SpectraSmart Spectrum 2.9.0.0
--------- Device Information -----------
Spectrum Name :  反射率_0
Saving Time :  2024/04/30 01:12:55
Spectro-Module Model Name : SE2030-DUVN
Spectro-Module Serial Number : OS361AC55029948
Wavelength Start : 200
Wavelength End : 1025
Wavelength Unit : Wavelength(nm)
Spectrum Unit : Reflectance(%)
-----------Spectrum Setting ------------
Integration Time : 20ms
Average : 10
Boxcar : 0
Background removal :  enabled
linearity correction :  enabled
SC :  disabled
Intensity correction :  disabled
DWT denoise :  enabled
savitzky-golay :  disabled
FFT :  disabled
Running average :  disabled
Kalman :  disabled
High pass :  disabled
---------------BEGIN--------------------
Wavelength(nm)             Reflectance(%)
200.29               0
200.75        140.0784
201.21        118.8597
201.67        98.82019
202.13        87.00789
202.58        87.04994
203.04        97.69068
203.50         118.698
203.96        147.1103
204.42        177.7521
204.88        207.4922
205.34        223.6788
205.80        213.1921
206.26         184.271
206.72         150.313
207.18        122.4376
207.64        106.1877
208.10          99.047
208.55         97.5827
209.01        99.65265
209.47        102.0045
209.93        103.1584
210.39        104.2872
210.85        105.4193
211.31        106.7848
211.77        108.6351
212.23        110.6221
212.69        113.1968
213.14        117.0141
213.60         120.034
214.06        122.5297
214.52        123.6941
214.98        123.0933
215.44        121.2902
215.90        118.4345
216.36        116.7916
216.81        120.9339
217.27        133.2617
217.73         155.937
218.19        186.6737
218.65        207.9724
219.11        208.0768
219.57         192.871
220.02        177.4262
220.48        174.5112
220.94        183.6535
221.40        203.5156
221.86        228.6509
222.32        237.1329
222.77        221.6962
223.23        199.0493
223.69        181.2718
224.15        173.8551
224.61        174.8971
225.06        181.8862
225.52        191.4623
225.98        195.9763
226.44         193.445
226.90        187.6765
227.36        183.2772
227.81        183.5528
228.27         188.677
228.73        197.0846
229.19        205.4636
229.65        206.8731
230.10        200.5119
230.56        191.6896
231.02        184.1828
231.48        181.3036
231.93        182.6823
232.39        186.8543
232.85        192.8967
233.31         199.341
233.77        205.1853
234.22        211.2392
234.68        215.5008
235.14        214.8853
235.60        209.1124
236.05        198.9809
236.51        188.7511
236.97        183.8312
237.43          185.29
237.88         193.448
238.34        204.7651
238.80        209.6975
239.26        202.7821
239.71         187.057
240.17        169.5846
240.63         159.259
241.08        158.3406
241.54        165.9499
242.00        183.4025
242.46        202.1711
242.91        209.2126
243.37        202.3867
243.83        189.3824
244.28        180.3931
244.74        176.6667
245.20        173.8128
245.66        172.1465
246.11         173.666
246.57        178.3174
247.03        188.6916
247.48        197.3623
247.94        188.8078
248.40        167.3844
248.85        143.5882
249.31        128.3283
249.77        125.6122
250.22        134.7741
250.68        157.5075
251.14        193.6557
251.59        214.9431
252.05        200.8757
252.51        173.2669
252.96         152.277
253.42        145.6712
253.88        149.1395
254.33        158.8329
254.79        170.4306
255.25        174.3064
255.70         169.245
256.16        162.2738
256.62         157.431
257.07        157.1531
257.53        161.4923
257.99        168.1471
258.44        174.1003
258.90        176.4574
259.35        174.3295
259.81        170.7977
260.27        167.4751
260.72        165.7445
261.18        166.0333
261.63         166.701
262.09        167.0863
262.55         165.414
263.00         161.671
263.46        157.4591
263.91        153.3203
264.37        150.8168
264.83        149.7103
265.28        149.3542
265.74        149.5025
266.19        149.2352
266.65        148.5509
267.11        147.5959
267.56        146.4763
268.02        145.5147
268.47        144.6423
268.93        143.7523
269.38        142.7292
269.84        141.5446
270.30         140.199
270.75        138.7173
271.21        137.1989
271.66        135.5307
272.12        133.7686
272.57        131.8171
273.03        129.7968
273.48        127.7198
273.94        125.7769
274.39        123.8555
274.85        122.0703
275.31        120.2297
275.76        118.2578
276.22         116.368
276.67        114.5198
277.13        113.0242
277.58        111.7307
278.04        110.6681
278.49        109.5829
278.95        108.4572
279.40        107.1165
279.86         105.779
280.31        104.2921
280.77        102.7578
281.22        101.1053
281.68        99.45873
282.13         97.9085
282.59        96.84165
283.04         96.1401
283.50        95.74414
283.95        95.24647
284.41        94.19333
284.86          92.465
285.32        90.38208
285.77        88.19355
286.22        86.44318
286.68        85.26845
287.13        84.43616
287.59        83.84647
288.04        83.20023
288.50        82.47282
288.95        81.66249
289.41        80.87534
289.86        80.10315
290.32        79.39976
290.77        78.70185
291.22        77.95413
291.68        77.08992
292.13        76.09431
292.59        75.07422
293.04         74.1668
293.50        73.66359
293.95        73.55668
294.40        73.78245
294.86        74.10025
295.31        74.14533
295.77          73.834
296.22        73.24864
296.68        72.61882
297.13        72.27006
297.58        72.28795
298.04        72.53983
298.49        72.81445
298.95        72.81977
299.40         72.4678
299.85        71.88394
300.31        71.25012
300.76        70.73358
301.21        70.43497
301.67        70.32527
302.12        70.27962
302.58        70.27261
303.03        70.23536
303.48        70.14581
303.94        70.06532
304.39        70.34448
304.84        70.46329
305.30        70.79766
305.75        71.02428
306.20        70.99352
306.66        70.70401
307.11         70.1897
307.57        69.62341
308.02        69.12029
308.47        68.75427
308.93        68.49495
309.38        68.27688
309.83        68.07575
310.29        67.88258
310.74        67.70238
311.19        67.52139
311.65        67.29843
312.10        67.01405
312.55        66.68407
313.00        66.36775
313.46        66.16287
313.91        66.06917
314.36        66.05691
314.82        66.05087
315.27        65.95897
315.72        65.73779
316.18         65.4188
316.63        65.03198
317.08        64.63766
317.53        64.26943
317.99        63.93673
318.44        63.61995
318.89         63.2957
319.35        62.96512
319.80        62.63853
320.25        62.39127
320.70        62.34069
321.16        62.47441
321.61        62.76955
322.06         63.0577
322.51        63.07883
322.97        62.76715
323.42        62.20642
323.87        61.54937
324.32        61.05328
324.78         60.7766
325.23        60.68257
325.68        60.66426
326.13        60.54676
326.59        60.26979
327.04        59.91633
327.49        59.56488
327.94        59.36074
328.39        59.32876
328.85        59.38361
329.30        59.46417
329.75        59.36612
330.20        59.04731
330.66        58.58203
331.11        58.08779
331.56        57.70313
332.01        57.48593
332.46        57.39215
332.92        57.40737
333.37        57.58358
333.82         57.8741
334.27        58.26473
334.72        58.64966
335.17        58.85291
335.63        58.81387
336.08        58.59379
336.53        58.26205
336.98        57.98867
337.43        57.83467
337.88        57.75851
338.34        57.72909
338.79        57.71097
339.24         57.6796
339.69        57.66869
340.14        57.65633
340.59        57.59585
341.05        57.49197
341.50        57.35649
341.95        57.24484
342.40        57.26117
342.85        57.41494
343.30         57.6514
343.75        57.90454
344.20        58.06947
344.66        58.12324
345.11        58.10347
345.56        58.00136
346.01        57.80055
346.46        57.53365
346.91        57.21725
347.36        56.97832
347.81        57.00985
348.26        57.32534
348.72        57.84269
349.17        58.40346
349.62        58.71018
350.07        58.67711
350.52        58.40366
350.97        57.99385
351.42        57.60886
351.87        57.31809
352.32        57.08134
352.77        56.93779
353.22        56.95311
353.67        57.11639
354.13        57.39561
354.58        57.69135
355.03        57.83339
355.48         57.7662
355.93        57.52582
356.38        57.14941
356.83         56.7044
357.28        56.23092
357.73        55.72746
358.18         55.2314
358.63        54.79986
359.08         54.4478
359.53        54.16791
359.98         53.9424
360.43        53.73288
360.88        53.51804
361.33        53.29883
361.78        53.05303
362.23          52.749
362.68        52.38569
363.13         51.9772
363.58        51.55296
364.03        51.16106
364.48        50.82057
364.93        50.52362
365.38        50.27516
365.83        50.08031
366.28        49.93221
366.73        49.82324
367.18        49.72277
367.63        49.58324
368.08        49.38505
368.53         49.1288
368.98        48.83078
369.43        48.52114
369.88        48.21784
370.33        47.93163
370.78        47.64492
371.23        47.32852
371.68        46.98418
372.13        46.61579
372.58        46.29878
373.03        46.15076
373.48        46.17303
373.93        46.31321
374.38        46.42155
374.83        46.25586
375.28        45.77889
375.72        45.08073
376.17        44.35062
376.62         43.7829
377.07        43.43129
377.52        43.22474
377.97         43.1423
378.42        43.14951
378.87         43.2088
379.32        43.32601
379.77        43.41527
380.22        43.34551
380.67        43.09294
381.11        42.67908
381.56        42.20477
382.01        41.85519
382.46        41.68451
382.91        41.65261
383.36        41.65721
383.81         41.5339
384.26        41.25182
384.71        40.86912
385.15        40.48631
385.60        40.29359
386.05        40.30762
386.50        40.45503
386.95        40.62017
387.40        40.63023
387.85        40.44754
388.29        40.11193
388.74        39.75692
389.19        39.44957
389.64        39.21436
390.09        39.01902
390.54        38.85722
390.98        38.71792
391.43        38.61685
391.88        38.55775
392.33        38.51527
392.78        38.48565
393.23        38.46579
393.67        38.36144
394.12        38.21816
394.57        38.36049
395.02        38.23024
395.47        38.25795
395.91        38.25635
396.36        38.17977
396.81        38.03359
397.26        37.84775
397.71          37.654
398.15        37.48256
398.60        37.39012
399.05        37.28457
399.50        37.16824
399.95        37.20752
400.39        37.20384
400.84        37.14113
401.29        36.95982
401.74        36.78609
402.18        36.63495
402.63        36.41482
403.08        36.19709
403.53        36.11583
403.97         36.1808
404.42        36.35387
404.87        36.52959
405.32        36.53633
405.76        36.33497
406.21        35.99756
406.66        35.63665
407.11        35.43316
407.55        35.44083
408.00        35.59657
408.45        35.81688
408.90        35.94338
409.34        35.92317
409.79        35.80139
410.24        35.65929
410.68        35.61746
411.13        35.70164
411.58        35.86548
412.03        36.02713
412.47        36.05897
412.92         35.9155
413.37        35.66298
413.81        35.37505
414.26        35.20153
414.71        35.15388
415.15        35.19595
415.60        35.26778
416.05        35.29927
416.49        35.26788
416.94        35.20212
417.39        35.11122
417.83        34.99997
418.28        34.88394
418.73        34.75503
419.17        34.65379
419.62        34.65229
420.07        34.75097
420.51        34.91839
420.96        35.09296
421.41        35.14762
421.85        35.04644
422.30        34.88941
422.74        34.70463
423.19        34.52741
423.64        34.39667
424.08        34.43701
424.53        34.58916
424.98        34.67096
425.42        34.65861
425.87        34.62775
426.31        34.57822
426.76        34.51493
427.21         34.3442
427.65        34.13908
428.10        33.91994
428.54        33.73734
428.99        33.63357
429.44        33.65413
429.88        33.73147
430.33        33.65951
430.77        33.48718
431.22        33.58539
431.66        33.92494
432.11        34.15133
432.56        34.21066
433.00        34.17453
433.45         34.0613
433.89          34.022
434.34        34.02896
434.78        33.98768
435.23         33.5965
435.67        33.40434
436.12        33.34696
436.57        33.26894
437.01        33.18922
437.46        33.20462
437.90        33.31526
438.35        33.49711
438.79        33.68839
439.24        33.73415
439.68        33.64698
440.13        33.59655
440.57        33.58059
441.02        33.53557
441.46        33.46418
441.91        33.32525
442.35        33.14521
442.80        33.30066
443.24        33.64367
443.69        33.49068
444.13        32.91945
444.58        32.64671
445.02        32.67403
445.47        32.64081
445.91        32.53181
446.36        32.50601
446.80        32.55001
447.24        32.63052
447.69        32.72139
448.13        32.77277
448.58        32.77982
449.02         32.7492
449.47        32.71701
449.91        32.72206
450.36        32.77929
450.80        32.86828
451.25        32.96238
451.69        33.00815
452.13        32.99278
452.58        32.94377
453.02        32.88287
453.47        32.83719
453.91        32.80834
454.36        32.88078
454.80        32.87487
455.24        32.88535
455.69        32.86588
456.13        32.82255
456.58        32.78567
457.02        32.77171
457.46        32.79063
457.91        32.83097
458.35        32.86668
458.79        32.88295
459.24        32.89027
459.68        32.91182
460.13        32.95123
460.57        32.87091
461.01        32.92157
461.46        32.79163
461.90        32.62214
462.34        32.82207
462.79         33.2536
463.23         33.2109
463.68        32.76045
464.12        32.59032
464.56        32.72668
465.01        32.83404
465.45        32.83314
465.89        32.74725
466.34        32.62754
466.78        32.62086
467.22        32.81001
467.67        32.80884
468.11        32.64703
468.55        32.47696
468.99        32.35966
469.44        32.30616
469.88        32.32876
470.32        32.42857
470.77        32.55585
471.21        32.64635
471.65        32.67076
472.10        32.65573
472.54        32.61858
472.98         32.6133
473.42        32.65165
473.87        32.71577
474.31        32.77711
474.75        32.80816
475.20        32.81012
475.64        32.78647
476.08        32.75792
476.52        32.74054
476.97        32.74063
477.41        32.75774
477.85        32.80009
478.29        32.82072
478.74        32.91986
479.18        32.99289
479.62        33.04298
480.06        33.10624
480.50        33.19999
480.95        33.02624
481.39        33.10401
481.83        33.12056
482.27        33.24816
482.72        33.19388
483.16        33.41199
483.60        33.49871
484.04        33.57466
484.48        33.67788
484.93        33.79524
485.37        33.76674
485.81        33.62211
486.25        33.55399
486.69        33.63367
487.14        33.70783
487.58        33.49122
488.02        34.22747
488.46        33.87197
488.90        34.54974
489.34        33.98912
489.79        34.03696
490.23        34.18695
490.67         34.4025
491.11         34.6223
491.55        34.59355
491.99        34.40714
492.43         34.4411
492.88        34.71383
493.32        34.98646
493.76        35.20193
494.20        35.41397
494.64        35.61134
495.08        35.77158
495.52        35.87737
495.96        35.96376
496.41        36.04685
496.85        35.99381
497.29        35.85323
497.73        36.14538
498.17         36.3839
498.61        36.47099
499.05        36.30477
499.49        36.26227
499.93        36.39013
500.37        36.61028
500.82        36.86449
501.26        37.01912
501.70        37.05301
502.14        37.06055
502.58        37.08664
503.02        37.15657
503.46        37.28671
503.90        37.46894
504.34        37.67605
504.78        37.86107
505.22        38.00232
505.66        38.09962
506.10        38.14672
506.54        38.17911
506.98         38.2118
507.42        38.16706
507.86        38.01577
508.30        38.14945
508.74        37.88071
509.18        37.78099
509.62        37.70287
510.06        37.75367
510.50        37.93879
510.94        38.23512
511.38        38.55415
511.82        38.72726
512.26         38.7152
512.70         38.5662
513.14        38.37191
513.58        38.27813
514.02        38.32465
514.46        38.46786
514.90        38.65134
515.34        38.78312
515.78        38.83202
516.22        38.82605
516.66        38.79836
517.10        38.79682
517.54        38.83346
517.98        38.88931
518.42        38.93115
518.86        38.91119
519.30        38.82185
519.74        38.68301
520.18        38.54144
520.62        38.46424
521.06        38.46837
521.50        38.53979
521.93        38.63346
522.37        38.66199
522.81        38.60992
523.25        38.49759
523.69        38.38413
524.13        38.36128
524.57        38.44233
525.01        38.59292
525.45        38.73791
525.89        38.75697
526.32        38.62079
526.76        38.38675
527.20        38.12792
527.64        37.95749
528.08        37.90494
528.52        37.93339
528.96         38.0041
529.40        38.05594
529.83        38.06321
530.27        38.04922
530.71        38.01616
531.15        37.96964
531.59        37.91442
532.03        37.84542
532.46        37.76407
532.90         37.6919
533.34        37.63097
533.78        37.58136
534.22        37.54333
534.66        37.51366
535.09        37.48726
535.53        37.47494
535.97        37.46564
536.41        37.45145
536.85        37.42894
537.28        37.39439
537.72        37.35926
538.16        37.34155
538.60        37.34449
539.04        37.36958
539.47        37.38477
539.91        37.37289
540.35         37.3258
540.79        37.26354
541.22        37.22831
541.66        37.29377
542.10        37.46664
542.54        37.71747
542.97         37.9961
543.41          38.234
543.85        38.40516
544.29        38.53688
544.72        38.62034
545.16        38.66782
545.60        38.68866
546.04        38.66431
546.47        38.64805
546.91        38.78612
547.35        39.06528
547.79        39.33346
548.22         39.5256
548.66        39.75145
549.10        40.00512
549.53        40.09156
549.97        39.98432
550.41        40.46932
550.84        40.34806
551.28        40.51781
551.72        40.59995
552.15        40.92229
552.59        40.96877
553.03        41.15489
553.46        41.32633
553.90        41.46956
554.34        41.57189
554.77        41.68077
555.21        41.79654
555.65        41.81572
556.08        41.77808
556.52        41.87983
556.96        42.09523
557.39         42.2818
557.83        42.42071
558.27        42.50027
558.70        42.55092
559.14        42.69313
559.57        42.89743
560.01        43.03843
560.45         43.1129
560.88        43.11261
561.32        43.24562
561.75        43.27063
562.19        43.26275
562.63        43.21026
563.06        43.14794
563.50        43.20665
563.93        43.34724
564.37        43.43806
564.80        43.45861
565.24        43.50139
565.68        43.57565
566.11        43.68925
566.55        43.84434
566.98        43.96528
567.42        44.09729
567.85        44.23874
568.29        44.38819
568.72        44.63972
569.16        45.04146
569.60        44.77359
570.03        45.22584
570.47        45.31277
570.90        45.40027
571.34        45.53537
571.77        45.66737
572.21        45.81984
572.64        45.94616
573.08        46.06293
573.51        46.23223
573.95        46.19309
574.38         46.7507
574.82        46.53684
575.25        46.58744
575.69        46.32721
576.12        46.09096
576.56        46.32937
576.99        46.48114
577.42        46.58118
577.86        46.62719
578.29        46.34534
578.73        46.78526
579.16        46.45551
579.60         46.4508
580.03        46.29211
580.47        46.56447
580.90        46.44096
581.33        46.14202
581.77        45.95748
582.20          46.306
582.64        46.15922
583.07        45.79412
583.51        45.47049
583.94           45.44
584.37        45.22445
584.81        44.97079
585.24        45.08691
585.68        45.63742
586.11        45.64258
586.54        45.00212
586.98        44.83087
587.41        45.35001
587.85        45.39307
588.28        45.12949
588.71        45.64981
589.15        45.01237
589.58        45.16403
590.01        44.79548
590.45        44.72231
590.88        44.78598
591.31        44.95301
591.75         45.0513
592.18        45.20842
592.61        45.36929
593.05        44.49478
593.48        45.04457
593.91        45.56994
594.35        44.93336
594.78         44.9596
595.21        45.10059
595.65        45.44579
596.08        45.12547
596.51         45.7076
596.94        45.78728
597.38        46.17884
597.81        46.45978
598.24         46.5232
598.68        46.75386
599.11        46.74522
599.54        47.60956
599.97        47.97386
600.41        47.52797
600.84        47.95287
601.27        48.31361
601.70        48.91446
602.14        49.50449
602.57        49.63481
603.00        49.43707
603.43        49.70073
603.87        50.29501
604.30        50.83752
604.73        51.14948
605.16        51.48842
605.60        51.98316
606.03        52.55015
606.46        53.09653
606.89        53.42781
607.32        53.56771
607.76        53.80882
608.19        54.20865
608.62        54.41282
609.05        54.45142
609.48        55.24755
609.92        55.46195
610.35        55.89111
610.78        56.25779
611.21        55.95866
611.64        56.37673
612.07        56.71841
612.50        57.32291
612.94        57.54294
613.37        58.13367
613.80        57.92613
614.23        58.45229
614.66        58.61118
615.09        58.84033
615.52        59.03818
615.96        59.09863
616.39        59.63065
616.82        59.32006
617.25        59.32966
617.68        59.68193
618.11        60.11168
618.54        60.58199
618.97        60.90082
619.40        60.71548
619.84        60.85823
620.27         61.2784
620.70          61.607
621.13        61.69793
621.56        61.91368
621.99        61.73524
622.42        61.24356
622.85        62.25044
623.28        62.10819
623.71        62.60598
624.14        61.53071
624.57        62.17824
625.00        62.01385
625.43        61.89098
625.86        61.78533
626.29        61.71387
626.72        61.66211
627.15        61.59961
627.58        61.59867
628.01        61.58142
628.44        61.38502
628.87         61.0822
629.30        60.78126
629.73        60.61829
630.16        60.84242
630.59        60.23527
631.02          60.134
631.45        59.88566
631.88        59.62589
632.31        59.25852
632.74        58.84274
633.17        58.40672
633.60        57.96853
634.03        57.54686
634.46        57.12546
634.89        56.72111
635.32        56.36859
635.75        56.06748
636.18        55.80276
636.61        55.53815
637.04        55.22332
637.47        54.85781
637.89        54.42219
638.32        53.92278
638.75        53.53757
639.18        53.31392
639.61        52.69099
640.04        52.61971
640.47        52.32608
640.90        52.08853
641.33        51.89718
641.76        51.74299
642.18        51.59591
642.61        51.42926
643.04         51.2534
643.47        51.10554
643.90        51.05888
644.33        51.12119
644.76        51.22382
645.18        51.48773
645.61         51.4831
646.04        51.20748
646.47         51.2846
646.90        51.64436
647.33        51.82124
647.75         51.7894
648.18        51.83044
648.61        52.00084
649.04        52.26926
649.47        52.64603
649.89        53.14625
650.32        53.67703
650.75        54.12668
651.18         54.4821
651.61        54.74994
652.03        55.02576
652.46         55.5612
652.89        56.25413
653.32        56.67269
653.74        56.90344
654.17        56.99132
654.60        57.39339
655.03        58.56004
655.46        57.98494
655.88        59.48586
656.31        62.12358
656.74        62.68691
657.16        61.37851
657.59        59.82675
658.02        60.08596
658.45        61.69146
658.87        62.23053
659.30         62.0769
659.73        62.86182
660.15        63.33147
660.58        63.51785
661.01        63.70606
661.44        63.81649
661.86        63.71172
662.29        63.55145
662.72        64.12302
663.14        65.22567
663.57        65.39353
664.00        64.75203
664.42        64.68884
664.85        65.27982
665.27        65.71774
665.70        65.91773
666.13        66.16094
666.55        66.43701
666.98        66.65717
667.41        66.83263
667.83         66.9745
668.26        67.08183
668.69         67.1749
669.11        67.25931
669.54        67.34444
669.96        67.43815
670.39        67.53665
670.82        67.65353
671.24        67.81911
671.67        68.01942
672.09        68.23754
672.52        68.44985
672.94        68.72289
673.37        68.52856
673.80        69.01244
674.22        68.66409
674.65        69.08539
675.07        69.29346
675.50         69.6563
675.92        69.95293
676.35        70.18725
676.77        70.35158
677.20        70.41273
677.62        70.41483
678.05         70.4357
678.47        70.49497
678.90        70.57825
679.32        70.66738
679.75        70.74521
680.17         70.8022
680.60        70.86094
681.02         70.9327
681.45        71.03677
681.87        71.17867
682.30        71.33585
682.72         71.5184
683.15        71.66828
683.57        71.81916
684.00        72.05413
684.42        72.31594
684.85        72.50291
685.27        72.60947
685.70        72.52872
686.12        72.40822
686.54        72.89233
686.97         73.8114
687.39        74.26605
687.82         74.1474
688.24        74.14868
688.66        74.24107
689.09         74.0119
689.51        73.57483
689.94        73.37939
690.36         73.4845
690.78        73.72997
691.21        74.03622
691.63        74.36911
692.06        74.61564
692.48        74.66814
692.90         74.4312
693.33         74.4128
693.75        74.60307
694.17        74.80149
694.60        74.96965
695.02        75.12534
695.44        75.24566
695.87        75.40589
696.29        75.59238
696.71        75.55836
697.14        75.39841
697.56        75.52217
697.98        75.89748
698.41        76.12376
698.83        76.17059
699.25         76.2818
699.68        76.42447
700.10         76.4931
700.52        76.46773
700.94        76.39754
701.37        76.31224
701.79        76.27937
702.21        76.30949
702.64        76.39294
703.06        76.53073
703.48        76.73442
703.90        77.00055
704.33        77.34286
704.75        77.66839
705.17        77.89807
705.59        77.97497
706.01        77.91743
706.44        77.82341
706.86        77.81414
707.28        77.91216
707.70         78.2172
708.12        78.61085
708.55        78.58757
708.97        78.26028
709.39        78.38038
709.81        78.93813
710.23        79.27943
710.66        79.35626
711.08        79.57256
711.50        79.89135
711.92        80.10323
712.34        80.19779
712.76        80.23492
713.19        80.21579
713.61         80.1992
714.03        80.18439
714.45        80.16294
714.87        80.16267
715.29        80.22723
715.71        80.35883
716.13        80.54514
716.56        80.71947
716.98        80.86674
717.40        80.93325
717.82        80.93185
718.24        80.89407
718.66        80.87544
719.08         80.8933
719.50         80.9322
719.92         80.9763
720.34        80.99982
720.76        80.99684
721.19         80.9715
721.61        80.95348
722.03        80.95605
722.45        80.98407
722.87        81.02983
723.29        81.08382
723.71        81.13111
724.13        81.16885
724.55        81.20641
724.97        81.25083
725.39        81.30917
725.81        81.38967
726.23        81.49556
726.65        81.62818
727.07        81.79548
727.49        81.98817
727.91        82.17725
728.33        82.36817
728.75        82.57065
729.17        82.77321
729.59        82.98299
730.01        83.10661
730.43        82.99579
730.85        82.65475
731.27        82.15289
731.69         81.6995
732.10        81.61875
732.52         81.9745
732.94        82.67177
733.36        83.50126
733.78        84.09887
734.20        84.33937
734.62        84.25676
735.04        84.00858
735.46        84.00612
735.88        84.24983
736.30        84.27991
736.72        84.08437
737.13        84.05096
737.55        84.06876
737.97        83.86481
738.39        83.50739
738.81        83.02032
739.23        82.64154
739.65        83.17043
740.06        84.26838
740.48        84.68822
740.90         84.3028
741.32        83.75951
741.74        83.33163
742.16         83.1889
742.57        83.44036
742.99        84.02191
743.41        84.70586
743.83        85.07323
744.25        85.05351
744.67        84.85892
745.08         84.6453
745.50        84.55037
745.92        84.65304
746.34        84.91397
746.75        85.24136
747.17        85.48341
747.59        85.59589
748.01        85.63542
748.42        85.62927
748.84        85.59745
749.26        85.57426
749.68        85.49841
750.09         85.3825
750.51        85.40705
750.93        85.51416
751.35        85.45092
751.76        85.26641
752.18        85.24384
752.60        85.39696
753.01        85.57715
753.43        85.72433
753.85        85.82185
754.27        85.87002
754.68        85.96201
755.10         86.0852
755.52        86.05759
755.93        86.12965
756.35        86.01555
756.77        85.97882
757.18        86.15025
757.60        86.53134
758.02        87.56725
758.43         88.6858
758.85        88.12186
759.26        85.74648
759.68        85.20177
760.10        86.36595
760.51        86.98454
760.93        86.86187
761.34        87.10139
761.76        87.57414
762.18        87.56152
762.59        87.12621
763.01        86.64796
763.42        86.30571
763.84        86.08498
764.26         86.0619
764.67        86.21665
765.09        86.50683
765.50         86.9106
765.92        87.30491
766.33        87.32809
766.75        86.94169
767.16        86.82899
767.58        87.01328
768.00        86.91863
768.41        86.66211
768.83        87.12309
769.24        88.00405
769.66        88.06573
770.07        87.38332
770.49        86.88403
770.90        86.79773
771.32        87.25237
771.73        88.06151
772.15        88.36311
772.56        88.07944
772.97         88.0098
773.39         87.7064
773.80        87.78783
774.22        88.06405
774.63        88.49205
775.05        88.87538
775.46        89.08607
775.88        89.04223
776.29        88.82199
776.70        88.50624
777.12        88.27882
777.53        88.18987
777.95        88.13953
778.36        88.19703
778.77        88.35989
779.19        88.59746
779.60        89.25629
780.02        90.02538
780.43        89.80765
780.84        88.87039
781.26        88.68642
781.67        89.34389
782.09        90.13297
782.50        90.74082
782.91        90.64537
783.33        89.91723
783.74        89.49573
784.15        89.44726
784.57        89.13071
784.98        88.63192
785.39        88.45213
785.81          88.646
786.22        89.05814
786.63        89.59995
787.04        90.13828
787.46        90.59524
787.87        90.95334
788.28        91.23405
788.70        91.41374
789.11        91.48653
789.52        91.64137
789.93        91.77448
790.35        91.39265
790.76        90.69657
791.17        90.43902
791.58        90.70995
792.00        91.13893
792.41        91.56864
792.82         91.8589
793.23        91.94752
793.65        91.75954
794.06        91.49863
794.47        91.75342
794.88        92.36623
795.29        92.48722
795.71        92.03787
796.12        91.67877
796.53        91.52287
796.94        91.26991
797.35        91.07565
797.76        91.53255
798.18        92.44706
798.59        93.01445
799.00        93.10088
799.41        93.11123
799.82        93.09763
800.23        92.99573
800.64         92.8487
801.06        92.63367
801.47        92.46616
801.88        92.45526
802.29        92.61031
802.70        92.87445
803.11        93.15952
803.52         93.3102
803.93         93.3094
804.34        93.23429
804.75         93.0691
805.17        92.95505
805.58        92.99805
805.99        92.63757
806.40        92.13491
806.81        93.11269
807.22        95.04332
807.63         95.0731
808.04        93.38887
808.45        92.83139
808.86        93.60271
809.27        94.05186
809.68        93.97675
810.09        93.88402
810.50        93.75079
810.91        93.43612
811.32          93.132
811.73        93.14262
812.14        93.51761
812.55        94.19949
812.96        94.92105
813.37        95.17062
813.78        94.82807
814.19        94.08453
814.60        93.24638
815.01        92.74091
815.42        92.67178
815.83        92.91353
816.24        93.33488
816.65        93.67339
817.05        93.81416
817.46        93.80173
817.87        93.71442
818.28        93.59129
818.69        93.46785
819.10        93.32513
819.51         93.2118
819.92        93.23624
820.33        93.41664
820.74        93.70417
821.14        94.06315
821.55        94.44174
821.96        94.79973
822.37        95.15765
822.78        95.40729
823.19        95.36485
823.60        95.00568
824.00        94.38496
824.41        93.72192
824.82        93.39806
825.23        93.49244
825.64        93.91774
826.04        94.46959
826.45        94.65765
826.86         94.3951
827.27        93.83146
827.68        93.19403
828.08        92.86578
828.49        92.90771
828.90         93.2479
829.31        93.78143
829.72        94.32728
830.12        94.84167
830.53        95.26955
830.94        95.68365
831.35        96.14397
831.75        96.67034
832.16        97.11362
832.57        97.38681
832.97        97.31646
833.38        96.89672
833.79        96.27892
834.20        95.60202
834.60        95.03089
835.01        94.67172
835.42         94.4488
835.82        94.48488
836.23        94.88451
836.64        95.64603
837.04        96.75646
837.45        97.78263
837.86        98.18905
838.26        97.84715
838.67        96.92879
839.08        95.81116
839.48        95.06992
839.89        94.91549
840.29        95.17046
840.70        95.69282
841.11        96.26495
841.51        96.80659
841.92        97.33654
842.33         97.8074
842.73        98.10632
843.14        98.14626
843.54        97.98004
843.95        97.69048
844.35        97.51772
844.76        97.49078
845.17        97.53053
845.57        97.61034
845.98         97.6313
846.38         97.5844
846.79        97.51343
847.19        97.32801
847.60         96.7955
848.00        95.95951
848.41        94.92776
848.81        94.04669
849.22        93.83588
849.62        94.42754
850.03        95.60146
850.43        97.08593
850.84        98.09883
851.24        98.46078
851.65        98.23629
852.05        97.66884
852.46        97.12088
852.86        96.71973
853.27         96.4552
853.67        96.17715
854.07        95.94424
854.48        95.67547
854.88        95.44865
855.29        95.20458
855.69        95.12524
856.10        95.10809
856.50        95.23804
856.90        95.34816
857.31        95.25785
857.71        94.99173
858.12        94.56307
858.52        94.18158
858.92        94.11371
859.33        94.39622
859.73        94.99295
860.13         95.7067
860.54        96.23088
860.94        96.52203
861.34        96.54839
861.75        96.33711
862.15        96.03913
862.55        95.67221
862.96        95.26736
863.36        94.73369
863.76         93.9463
864.17        92.97695
864.57        91.93927
864.97        91.12474
865.38          90.899
865.78        91.36128
866.18        92.36497
866.58         93.6802
866.99        94.78051
867.39        95.49084
867.79        95.85547
868.19        95.84178
868.60        95.42989
869.00        94.69836
869.40        93.65896
869.80        92.69636
870.21        92.47504
870.61        93.17619
871.01        94.55535
871.41        96.07663
871.81        96.86425
872.22         96.6787
872.62        95.77503
873.02        94.51292
873.42        93.51508
873.82        93.02295
874.22        92.90244
874.63        92.99508
875.03        93.04814
875.43        92.99505
875.83        92.91985
876.23        93.00774
876.63        93.53253
877.03         94.4919
877.44        95.68954
877.84        96.80143
878.24        97.20596
878.64         96.8021
879.04        95.85784
879.44        94.74199
879.84        93.99744
880.24        93.76791
880.64         93.8562
881.04        94.25001
881.44        94.91437
881.84        95.76828
882.24        96.86214
882.65         97.7858
883.05        97.98546
883.45        97.31628
883.85        96.01469
884.25        94.70157
884.65        94.34143
885.05         95.0985
885.45        96.58839
885.85        98.38067
886.25        99.71883
886.65        100.2802
887.05        100.3255
887.45        99.70164
887.85        98.19834
888.25        96.04884
888.65          93.494
889.04        91.25084
889.44        90.36732
889.84        90.89728
890.24        92.60902
890.64        94.93095
891.04         96.5822
891.44        97.03739
891.84        96.64621
892.24         95.8626
892.64        95.35417
893.04        95.30064
893.44        95.45308
893.83        95.78351
894.23         96.1751
894.63        96.59067
895.03        97.09982
895.43        97.57703
895.83        97.79325
896.23        97.70839
896.63        97.34199
897.02        96.86678
897.42        96.64085
897.82        96.73338
898.22        97.08954
898.62        97.46262
899.01        97.44544
899.41          96.948
899.81        96.11704
900.21        95.31051
900.61        95.07328
901.00        95.49883
901.40        96.39939
901.80        97.35016
902.20         97.6592
902.59        97.15363
902.99        96.06495
903.39         94.8025
903.79        93.97484
904.18        93.74327
904.58        93.97341
904.98        94.38494
905.38        94.55789
905.77        94.36234
906.17        93.92798
906.57        93.51163
906.96        93.54521
907.36        94.06405
907.76        94.93934
908.15        95.79874
908.55        95.88833
908.95        95.14632
909.34        93.84198
909.74        92.57285
910.14        92.10793
910.53        92.66184
910.93        93.91893
911.33        95.59594
911.72         97.2596
912.12        98.59473
912.52        99.71165
912.91        100.5059
913.31        100.7591
913.70        100.4829
914.10        99.70172
914.49        98.61774
914.89        97.57085
915.29        96.71296
915.68        96.02628
916.08        95.62093
916.47        95.48309
916.87        95.63365
917.26        96.03093
917.66        96.58675
918.05        97.17863
918.45        97.67493
918.84         98.1499
919.24        98.43037
919.64        98.44513
920.03        98.20413
920.42        97.68857
920.82        97.17133
921.21        96.95964
921.61        97.12791
922.00        97.62867
922.40        98.18664
922.79        98.43049
923.19        98.22777
923.58          97.728
923.98        97.17368
924.37        96.94988
924.77        97.13336
925.16        97.58471
925.55        98.09875
925.95        98.34638
926.34        98.25465
926.74        97.92524
927.13        97.46127
927.52        96.97949
927.92        96.55981
928.31        96.16416
928.70        95.85813
929.10         95.7356
929.49        95.80737
929.89        95.99277
930.28        96.24796
930.67        96.36209
931.07         96.2822
931.46        96.11051
931.85         95.8316
932.24        95.42991
932.64        94.96895
933.03        94.49479
933.42         94.2438
933.82        94.59743
934.21        95.62858
934.60        97.08492
934.99        98.68463
935.39        99.93041
935.78        100.6983
936.17        101.0953
936.56        100.8668
936.96         99.7173
937.35        97.78811
937.74        95.30469
938.13        93.12457
938.53        92.33099
938.92        93.01665
939.31        94.99329
939.70        97.43791
940.09        98.70618
940.49        98.27753
940.88        96.62663
941.27        94.68759
941.66        93.87283
942.05        94.49527
942.44        96.15622
942.84        98.06348
943.23        98.92562
943.62        98.26913
944.01        96.55853
944.40        94.67987
944.79        93.89484
945.18        94.48661
945.57        96.08958
945.97        97.87934
946.36        98.71941
946.75        98.15482
947.14        96.58868
947.53        94.86778
947.92        94.25154
948.31        95.04115
948.70         96.8836
949.09        98.97564
949.48        99.88745
949.87        99.20915
950.26        97.41101
950.65        95.42683
951.04        94.54317
951.43        95.03738
951.82        96.56761
952.21        98.35258
952.60        98.98021
952.99        98.06197
953.38        96.08762
953.77        94.05295
954.16        93.25777
954.55         93.9621
954.94        95.90493
955.33        98.20744
955.72        98.99922
956.11        97.69183
956.50        94.95553
956.89        92.22858
957.28        91.38129
957.66        92.81244
958.05        95.91788
958.44         99.5858
958.83        101.5321
959.22        100.9715
959.61        98.69178
960.00        95.96466
960.39        94.41249
960.78        94.34366
961.16        95.31136
961.55        96.57263
961.94          96.883
962.33        95.86157
962.72         94.1535
963.11        92.38013
963.49         91.2964
963.88        91.09961
964.27         91.4563
964.66        92.32238
965.04        93.70952
965.43        95.35323
965.82        97.29004
966.21        98.99733
966.60        99.52818
966.98        98.74314
967.37        97.05017
967.76        95.15451
968.15        94.03684
968.53        93.90222
968.92        94.40614
969.31        95.46486
969.69        96.89848
970.08        98.39246
970.47        100.1391
970.86        101.4899
971.24        101.3669
971.63        99.61602
972.02        96.62946
972.40        93.64645
972.79        92.64811
973.17        93.95886
973.56        96.91923
973.95        100.4364
974.33        102.4114
974.72        102.0757
975.11        100.1272
975.49        97.59068
975.88        96.34516
976.26        96.88216
976.65        98.53474
977.04        100.6464
977.42        102.0289
977.81        102.0729
978.19        101.3319
978.58        100.2107
978.96        99.21909
979.35        98.63768
979.74        98.31661
980.12        98.38817
980.51        99.02124
980.89        100.2624
981.28        101.8389
981.66         103.689
982.05        105.3245
982.43        106.6645
982.82        107.6648
983.20        107.9417
983.59         106.735
983.97        104.1527
984.35        100.5746
984.74        97.27584
985.12          95.923
985.51         96.7509
985.89        99.38047
986.28        102.5787
986.66         104.614
987.04        104.7548
987.43        103.4966
987.81        101.5732
988.20        100.5182
988.58        100.7506
988.96        101.7796
989.35        102.7372
989.73        102.5291
990.12        100.8425
990.50        98.28881
990.88        95.54415
991.27        93.65102
991.65        92.90923
992.03         93.0392
992.42         93.8812
992.80         95.4983
993.18        97.66896
993.56        100.4083
993.95        103.0658
994.33        104.6231
994.71         104.625
995.10        103.4157
995.48        101.6972
995.86        100.6722
996.24        100.6793
996.63        101.2795
997.01        102.4472
997.39         103.774
997.77        104.9973
998.15        106.3131
998.54        107.3039
998.92        107.3198
999.30        106.2877
999.68        104.2845
1000.06        102.1727
1000.45        101.5973
1000.83        103.0965
1001.21        106.1412
1001.59        109.5632
1001.97        111.4077
1002.35        111.1326
1002.73         109.345
1003.12        106.8139
1003.50        104.6699
1003.88        103.3833
1004.26        102.6464
1004.64        102.4106
1005.02        102.6008
1005.40        103.1191
1005.78        104.0336
1006.16        105.1661
1006.54        106.2418
1006.92        107.1951
1007.30        107.9949
1007.69        108.5985
1008.07        109.2661
1008.45        109.8892
1008.83        110.4007
1009.21        110.6056
1009.59        110.2318
1009.97        109.2912
1010.35        107.9208
1010.73        106.5721
1011.11        105.9543
1011.49        106.2042
1011.86        107.1409
1012.24        108.1684
1012.62        108.5482
1013.00        108.0698
1013.38        106.9274
1013.76        105.3735
1014.14         104.046
1014.52         103.204
1014.90        102.5583
1015.28        102.0636
1015.66        101.5967
1016.04        101.0633
1016.41        100.7451
1016.79        100.1543
1017.17        98.64843
1017.55        96.59935
1017.93        94.59248
1018.31        93.41739
1018.69        93.89025
1019.06        96.25286
1019.44        100.4376
1019.82        106.5249
1020.20        112.3785
1020.58        115.4614
1020.95        115.4843
1021.33        113.6421
1021.71        111.4182
1022.09        109.0469
1022.46        105.8626
1022.84        101.7767
1023.22        97.53131
1023.60        94.52553
1023.97        93.29935
1024.35        93.64578
1024.73        94.85321
