SpectraSmart Spectrum 2.9.0.0
--------- Device Information -----------
Spectrum Name :  反射率_0
Saving Time :  2024/04/30 00:55:06
Spectro-Module Model Name : SE2030-DUVN
Spectro-Module Serial Number : OS361AC55029948
Wavelength Start : 200
Wavelength End : 1025
Wavelength Unit : Wavelength(nm)
Spectrum Unit : Reflectance(%)
-----------Spectrum Setting ------------
Integration Time : 20ms
Average : 10
Boxcar : 0
Background removal :  enabled
linearity correction :  enabled
SC :  disabled
Intensity correction :  disabled
DWT denoise :  enabled
savitzky-golay :  disabled
FFT :  disabled
Running average :  disabled
Kalman :  disabled
High pass :  disabled
---------------BEGIN--------------------
Wavelength(nm)             Reflectance(%)
200.29               0
200.75         40.2636
201.21        36.53681
201.67        31.75128
202.13        26.71362
202.58        22.03786
203.04        17.90278
203.50        16.23569
203.96        21.25351
204.42        33.45054
204.88        50.06194
205.34        64.82032
205.80        69.06745
206.26         63.5919
206.72        54.42272
207.18        44.62628
207.64        35.15021
208.10        25.58306
208.55        14.64859
209.01        4.604067
209.47        2.197038
209.93        8.200229
210.39        18.92789
210.85        28.62476
211.31         32.6286
211.77        30.82053
212.23        23.30396
212.69        12.06312
213.14        8.190659
213.60        16.36159
214.06         29.8436
214.52        40.93234
214.98        45.03465
215.44        43.27369
215.90         37.7517
216.36        31.13719
216.81        28.40212
217.27         32.2272
217.73        42.32875
218.19         57.6243
218.65        69.42978
219.11        70.96561
219.57        65.21902
220.02        57.81406
220.48        52.90652
220.94        49.92687
221.40         47.1235
221.86        43.51838
222.32        38.89752
222.77        34.79436
223.23        32.80873
223.69        31.82029
224.15        30.54378
224.61         28.6449
225.06        25.86743
225.52        23.48793
225.98        23.89993
226.44        27.03611
226.90        31.25915
227.36        34.40919
227.81        35.01828
228.27        33.41791
228.73        30.10616
229.19        26.79221
229.65        26.90419
230.10        30.57875
230.56        35.61396
231.02        39.76332
231.48        41.20306
231.93        40.04254
232.39        37.15815
232.85         33.4776
233.31        30.78987
233.77        29.79444
234.22         30.0743
234.68        31.03158
235.14        31.52719
235.60        31.26015
236.05         30.7786
236.51        30.60619
236.97        31.35584
237.43        33.27834
237.88        36.36816
238.34        40.58406
238.80        45.43671
239.26        49.74149
239.71        53.10876
240.17        54.91694
240.63        55.24915
241.08        54.29056
241.54        51.21064
242.00        45.91639
242.46        41.61823
242.91        42.83974
243.37        49.79915
243.83        58.48092
244.28        64.26671
244.74        66.65356
245.20         66.5162
245.66        64.90191
246.11        64.31816
246.57         66.2188
247.03        70.30745
247.48        74.53281
247.94        74.21221
248.40        69.98041
248.85        64.61837
249.31        61.56037
249.77        62.26975
250.22        66.76311
250.68         75.6061
251.14        88.18624
251.59        93.30811
252.05        84.60327
252.51        71.93175
252.96        61.77417
253.42        55.29706
253.88        50.65387
254.33         46.4574
254.79        43.68007
255.25        43.94597
255.70        46.46834
256.16        49.75254
256.62        52.36377
257.07        53.48024
257.53        53.67148
257.99        53.25695
258.44        52.19424
258.90        51.11717
259.35        49.98741
259.81        49.08007
260.27        48.45565
260.72        48.21814
261.18        48.37213
261.63        48.55667
262.09        48.64806
262.55        48.20723
263.00        47.22064
263.46        46.08654
263.91          44.832
264.37        43.71829
264.83         42.7085
265.28        41.68435
265.74        40.84168
266.19        40.27831
266.65        40.05156
267.11        40.08008
267.56        40.12908
268.02        39.85049
268.47        39.16212
268.93        38.15973
269.38         37.0513
269.84        36.32012
270.30        36.05387
270.75        36.08929
271.21        36.14328
271.66        35.78226
272.12        34.93147
272.57        33.73298
273.03        32.43819
273.48        31.36074
273.94        30.65895
274.39        30.19021
274.85        29.88827
275.31        29.59365
275.76        29.23495
276.22        28.88131
276.67        28.51141
277.13         28.1726
277.58        27.82525
278.04        27.48088
278.49        27.07894
278.95        26.62626
279.40        26.09794
279.86        25.58526
280.31        25.08735
280.77        24.70955
281.22        24.43498
281.68        24.25414
282.13        24.16364
282.59        24.20116
283.04        24.32571
283.50        24.50876
283.95        24.62542
284.41        24.49723
284.86        24.10078
285.32        23.54731
285.77        22.94763
286.22        22.52615
286.68        22.34331
287.13        22.30295
287.59        22.37533
288.04        22.45617
288.50        22.51946
288.95         22.5646
289.41        22.58636
289.86        22.53838
290.32         22.4424
290.77        22.30853
291.22        22.16873
291.68        22.07419
292.13        22.04109
292.59        22.08675
293.04        22.26201
293.50        22.66087
293.95        23.28282
294.40        24.09838
294.86        24.98105
295.31        25.74843
295.77        26.34195
296.22        26.78667
296.68        27.18945
297.13          27.702
297.58         28.3651
298.04        29.10213
298.49        29.80581
298.95        30.30927
299.40        30.58174
299.85        30.69329
300.31        30.76484
300.76        30.91857
301.21        31.21651
301.67        31.62497
302.12        32.05376
302.58        32.50559
303.03        32.94993
303.48        33.26422
303.94        33.45155
304.39        34.20788
304.84        34.36934
305.30        34.84275
305.75        35.21882
306.20        35.47623
306.66        35.60872
307.11        35.63531
307.57        35.61523
308.02         35.5549
308.47        35.48617
308.93        35.41505
309.38        35.34607
309.83        35.33584
310.29        35.38774
310.74        35.48018
311.19        35.55851
311.65        35.52832
312.10        35.36695
312.55        35.10558
313.00        34.81072
313.46        34.58765
313.91        34.45039
314.36        34.37049
314.82        34.29721
315.27        34.16951
315.72        33.95908
316.18        33.69855
316.63        33.40087
317.08        33.09484
317.53        32.80121
317.99        32.52432
318.44        32.26988
318.89        32.05125
319.35        31.87099
319.80        31.72445
320.25        31.62399
320.70        31.58847
321.16        31.59758
321.61        31.64723
322.06        31.67206
322.51        31.57759
322.97        31.34355
323.42        31.00728
323.87        30.62267
324.32        30.28235
324.78        30.00772
325.23         29.7891
325.68        29.61098
326.13        29.45005
326.59        29.29074
327.04        29.15835
327.49         29.0316
327.94        28.88409
328.39        28.70311
328.85        28.46957
329.30        28.22178
329.75         27.9899
330.20        27.78976
330.66        27.61976
331.11        27.45361
331.56        27.22173
332.01        26.91442
332.46        26.54873
332.92        26.19341
333.37        25.99847
333.82         25.9882
334.27        26.12109
334.72        26.28728
335.17         26.3005
335.63         26.1107
336.08        25.78679
336.53        25.41232
336.98        25.14781
337.43        25.04551
337.88        25.04558
338.34        25.11494
338.79        25.22447
339.24        25.33872
339.69        25.47783
340.14        25.57534
340.59        25.51786
341.05        25.29633
341.50        24.94117
341.95        24.57553
342.40        24.40428
342.85        24.46705
343.30        24.69696
343.75        24.96641
344.20        25.06855
344.66        24.95459
345.11        24.68085
345.56        24.33126
346.01        24.03698
346.46        23.85041
346.91        23.74045
347.36        23.67954
347.81        23.62827
348.26        23.57093
348.72        23.51608
349.17        23.48928
349.62        23.52585
350.07        23.62164
350.52        23.75484
350.97        23.85454
351.42        23.81826
351.87        23.63723
352.32        23.35337
352.77         23.0597
353.22        22.90717
353.67        22.93336
354.13        23.08715
354.58        23.30161
355.03        23.46767
355.48        23.54174
355.93        23.55099
356.38        23.50014
356.83        23.39749
357.28        23.25513
357.73         23.0701
358.18        22.86528
358.63        22.68324
359.08        22.53421
359.53        22.40879
359.98        22.29996
360.43        22.19015
360.88        22.07245
361.33        21.95787
361.78        21.82996
362.23        21.66062
362.68        21.45424
363.13        21.22508
363.58        21.01802
364.03        20.90464
364.48        20.89567
364.93        20.96099
365.38        21.05853
365.83        21.11994
366.28        21.11999
366.73         21.0768
367.18        20.98911
367.63        20.85817
368.08        20.69212
368.53        20.48789
368.98        20.28264
369.43         20.1381
369.88        20.06881
370.33         20.0667
370.78        20.08151
371.23         20.0261
371.68        19.87953
372.13        19.66211
372.58         19.4347
373.03        19.29711
373.48        19.26696
373.93        19.30801
374.38        19.34761
374.83        19.26862
375.28          19.051
375.72         18.7414
376.17        18.42573
376.62        18.18739
377.07        18.04933
377.52          17.978
377.97        17.96332
378.42        17.98984
378.87        18.04026
379.32        18.11713
379.77        18.18161
380.22        18.17516
380.67        18.08794
381.11        17.92904
381.56        17.74824
382.01        17.63093
382.46        17.60098
382.91        17.63874
383.36        17.69098
383.81        17.67484
384.26        17.57225
384.71        17.40484
385.15         17.2235
385.60        17.13338
386.05        17.13877
386.50        17.20337
386.95        17.25541
387.40          17.184
387.85         16.9814
388.29        16.69666
388.74        16.42416
389.19        16.23396
389.64        16.14443
390.09        16.11636
390.54        16.15479
390.98        16.26553
391.43        16.42774
391.88        16.62379
392.33        16.76686
392.78        16.75261
393.23        16.58086
393.67        16.25834
394.12        15.89657
394.57        15.76126
395.02        15.65195
395.47        15.70566
395.91        15.80204
396.36        15.83964
396.81        15.79147
397.26        15.69704
397.71        15.57438
398.15        15.43983
398.60         15.3289
399.05        15.20068
399.50        15.07528
399.95        15.05039
400.39        15.05122
400.84        15.06687
401.29        15.06052
401.74        15.05713
402.18        15.04897
402.63        14.99687
403.08        14.93422
403.53        14.92566
403.97        14.97723
404.42        15.06972
404.87        15.14152
405.32        15.09528
405.76        14.91349
406.21        14.63823
406.66        14.35864
407.11        14.21313
407.55        14.23741
408.00        14.39306
408.45         14.5899
408.90        14.66297
409.34        14.56646
409.79        14.35036
410.24        14.12563
410.68        14.05989
411.13        14.18734
411.58        14.45103
412.03        14.73489
412.47        14.84427
412.92        14.71899
413.37        14.43771
413.81        14.11012
414.26        13.91893
414.71        13.89296
415.15        13.97944
415.60        14.10248
416.05        14.15479
416.49         14.1026
416.94        13.99133
417.39        13.85236
417.83        13.72738
418.28        13.64096
418.73        13.57262
419.17         13.5386
419.62        13.56869
420.07        13.65829
420.51        13.79377
420.96        13.93143
421.41        13.99365
421.85        13.96021
422.30        13.86854
422.74        13.74746
423.19        13.66475
423.64        13.63057
424.08        13.63226
424.53        13.64849
424.98        13.66872
425.42        13.68683
425.87        13.69812
426.31        13.69075
426.76        13.66598
427.21        13.57751
427.65         13.4537
428.10        13.31371
428.54        13.16962
428.99        13.04735
429.44         13.0324
429.88        13.07843
430.33        12.94736
430.77        12.72219
431.22        12.82242
431.66        13.20579
432.11        13.38812
432.56        13.29838
433.00        13.23257
433.45        13.19156
433.89        12.89575
434.34        12.50978
434.78        12.52067
435.23          12.846
435.67        12.94904
436.12        12.79908
436.57        12.69786
437.01         12.6875
437.46         12.7066
437.90        12.76073
438.35        12.85336
438.79        12.95501
439.24        12.99776
439.68        12.98718
440.13        12.99377
440.57        12.99148
441.02        12.94587
441.46        12.86309
441.91        12.66894
442.35        12.44406
442.80        12.56527
443.24        12.91848
443.69        12.87615
444.13        12.47833
444.58        12.31521
445.02        12.38703
445.47        12.37651
445.91        12.27945
446.36        12.25068
446.80        12.28843
447.24        12.35433
447.69        12.42712
448.13        12.47541
448.58        12.49126
449.02        12.48508
449.47        12.47664
449.91        12.48899
450.36        12.52885
450.80        12.58609
451.25        12.64299
451.69        12.67168
452.13        12.66363
452.58        12.63416
453.02        12.59464
453.47        12.56278
453.91        12.54108
454.36        12.56104
454.80        12.55316
455.24        12.55087
455.69        12.53567
456.13        12.50968
456.58        12.48772
457.02        12.47927
457.46        12.48929
457.91        12.51173
458.35        12.53129
458.79        12.52989
459.24        12.51335
459.68        12.49363
460.13        12.48704
460.57        12.45971
461.01        12.51189
461.46        12.51245
461.90        12.50497
462.34        12.62733
462.79        12.81918
463.23        12.80971
463.68        12.62656
464.12         12.5495
464.56        12.59206
465.01        12.61703
465.45        12.60434
465.89         12.5816
466.34        12.56904
466.78        12.62016
467.22        12.74499
467.67        12.75354
468.11        12.64772
468.55        12.50012
468.99        12.37023
469.44        12.31699
469.88        12.35696
470.32        12.47736
470.77        12.62385
471.21        12.72105
471.65        12.73986
472.10        12.70696
472.54        12.65645
472.98        12.65714
473.42        12.72271
473.87        12.82751
474.31        12.93007
474.75        12.96995
475.20        12.94014
475.64        12.86081
476.08        12.77259
476.52        12.73339
476.97        12.75793
477.41        12.82426
477.85        12.91272
478.29        12.98948
478.74        13.04647
479.18         13.0886
479.62        13.11441
480.06        13.15246
480.50        13.21475
480.95        13.17404
481.39        13.24357
481.83        13.31982
482.27        13.47094
482.72        13.56594
483.16        13.76374
483.60        13.86224
484.04        13.90602
484.48        13.92476
484.93        13.93334
485.37        13.96348
485.81        13.99257
486.25        14.05758
486.69        13.59696
487.14        13.90755
487.58        14.72701
488.02        14.59799
488.46          14.755
488.90        15.02841
489.34        14.59953
489.79        14.57619
490.23        14.60314
490.67        14.82768
491.11        15.13794
491.55        15.20492
491.99        15.08425
492.43        15.17691
492.88        15.49292
493.32        15.75649
493.76        15.93062
494.20         16.1169
494.64        16.31344
495.08        16.48477
495.52        16.61342
495.96        16.71982
496.41        16.81365
496.85        16.79672
497.29        16.72411
497.73        16.97862
498.17        17.30037
498.61        17.41602
499.05        17.27819
499.49        17.26581
499.93        17.40869
500.37        17.55296
500.82        17.67604
501.26        17.78452
501.70        17.87169
502.14        17.95979
502.58        18.06583
503.02         18.1948
503.46        18.34897
503.90        18.52939
504.34        18.70932
504.78        18.84142
505.22        18.91381
505.66        18.93499
506.10        18.92981
506.54         18.9617
506.98        19.04759
507.42        19.13278
507.86        19.17864
508.30        19.33974
508.74        19.25507
509.18        19.22838
509.62        19.19162
510.06        19.21059
510.50         19.2963
510.94        19.43337
511.38        19.59075
511.82        19.70683
512.26        19.76267
512.70        19.77277
513.14         19.7611
513.58        19.76579
514.02        19.79776
514.46        19.84571
514.90        19.89007
515.34        19.90069
515.78        19.87192
516.22        19.81593
516.66        19.75872
517.10        19.73873
517.54        19.76214
517.98        19.81386
518.42        19.86491
518.86        19.86921
519.30        19.81615
519.74        19.72328
520.18        19.61388
520.62        19.52218
521.06        19.46149
521.50        19.42562
521.93        19.41128
522.37        19.40666
522.81          19.409
523.25        19.41874
523.69        19.43808
524.13        19.47006
524.57        19.50987
525.01        19.54942
525.45        19.57006
525.89        19.54517
526.32        19.46803
526.76        19.35406
527.20        19.22281
527.64        19.10496
528.08        19.01134
528.52        18.93777
528.96        18.87804
529.40        18.82092
529.83        18.76123
530.27        18.70334
530.71        18.65082
531.15         18.6109
531.59        18.58192
532.03        18.55869
532.46        18.52521
532.90        18.46335
533.34        18.37284
533.78         18.2681
534.22        18.16785
534.66         18.0994
535.09        18.06831
535.53        18.06913
535.97        18.09807
536.41        18.15408
536.85        18.22783
537.28        18.31424
537.72         18.3874
538.16        18.41004
538.60        18.37701
539.04        18.30499
539.47        18.21471
539.91        18.15749
540.35        18.14387
540.79        18.16846
541.22        18.22988
541.66        18.32711
542.10        18.45193
542.54        18.60297
542.97         18.7686
543.41        18.93044
543.85         19.0826
544.29        19.23219
544.72        19.36691
545.16        19.48508
545.60        19.58818
546.04        19.66925
546.47        19.76217
546.91        19.95137
547.35        20.22842
547.79        20.50658
548.22        20.73858
548.66        20.96459
549.10        21.18076
549.53        21.28984
549.97        21.28698
550.41        21.60402
550.84        21.60629
551.28        21.76954
551.72        21.88921
552.15        22.13964
552.59        22.23985
553.03        22.41587
553.46        22.58339
553.90        22.73275
554.34        22.85663
554.77        22.98124
555.21        23.10865
555.65        23.17704
556.08        23.20844
556.52        23.32285
556.96        23.50768
557.39        23.65384
557.83        23.80246
558.27        23.89807
558.70        23.98265
559.14        24.12565
559.57        24.30863
560.01        24.48929
560.45        24.63156
560.88         24.6138
561.32        24.59114
561.75        24.58657
562.19        24.65553
562.63        24.71129
563.06        24.75539
563.50        24.85535
563.93        24.99179
564.37        25.12249
564.80        25.23126
565.24        25.33651
565.68          25.431
566.11        25.52006
566.55        25.60775
566.98        25.65729
567.42        25.71872
567.85        25.82009
568.29         25.9679
568.72        26.22921
569.16         26.6163
569.60        26.58173
570.03        26.93413
570.47        27.16337
570.90        27.20961
571.34        27.44192
571.77        27.52179
572.21        27.62375
572.64         27.6649
573.08        27.81583
573.51        28.10182
573.95        28.03746
574.38        28.24132
574.82        28.25836
575.25        28.30146
575.69        28.24313
576.12        28.12518
576.56        28.36167
576.99        28.57505
577.42        28.46442
577.86        28.54696
578.29        28.41671
578.73        28.31539
579.16        28.27343
579.60        28.05423
580.03          27.975
580.47        28.07487
580.90        27.97069
581.33        27.68006
581.77        27.81022
582.20        27.49199
582.64        27.42152
583.07        27.15194
583.51        26.92224
583.94        26.80425
584.37        26.63776
584.81        26.47777
585.24        26.62402
585.68        26.84213
586.11        26.62557
586.54          26.172
586.98        26.12166
587.41        26.60953
587.85         26.3083
588.28        26.13349
588.71        26.40825
589.15        26.06072
589.58        26.01981
590.01        25.98696
590.45        25.90102
590.88        25.83992
591.31        25.96449
591.75        26.16666
592.18        26.23746
592.61        26.25957
593.05        25.71804
593.48        26.11156
593.91        26.40677
594.35        26.14266
594.78        26.27571
595.21        26.53111
595.65        26.71026
596.08        26.45873
596.51        26.97347
596.94        27.27926
597.38        27.63649
597.81        27.74706
598.24        27.73069
598.68        28.00222
599.11        28.13201
599.54        28.88245
599.97        29.19417
600.41        29.35246
600.84         29.4913
601.27        30.07233
601.70        30.51813
602.14        30.91761
602.57        31.28721
603.00        31.62041
603.43        32.03702
603.87         32.4589
604.30        32.95452
604.73        33.39669
605.16        33.90714
605.60         34.4092
606.03        34.83427
606.46        35.14004
606.89        35.50303
607.32        35.94873
607.76        36.34126
608.19        36.68241
608.62        37.05037
609.05        37.47546
609.48        37.90525
609.92        38.26072
610.35        38.62717
610.78        38.88132
611.21        38.77724
611.64          39.168
612.07        39.64806
612.50          39.878
612.94        40.24855
613.37        40.59967
613.80        40.90005
614.23        41.23225
614.66        41.50169
615.09        41.73138
615.52        42.01069
615.96        42.30623
616.39        42.35494
616.82        42.21712
617.25        42.52636
617.68        42.74269
618.11        43.14334
618.54        43.47097
618.97        43.63795
619.40        43.69463
619.84         43.7302
620.27        44.16447
620.70        44.44511
621.13        44.55641
621.56        44.86456
621.99        44.67556
622.42        44.40659
622.85        45.00562
623.28        44.97284
623.71        45.26216
624.14        44.55114
624.57         44.9621
625.00        44.90239
625.43        44.90742
625.86        44.84169
626.29        44.70873
626.72        44.59314
627.15        44.47769
627.58        44.33601
628.01        44.15133
628.44        43.91497
628.87        43.59027
629.30        43.37232
629.73        43.23735
630.16        43.02814
630.59        42.72735
631.02        42.52208
631.45         42.2089
631.88        41.87989
632.31        41.47374
632.74        41.01783
633.17        40.52666
633.60        40.02537
634.03        39.53267
634.46        39.05181
634.89        38.59428
635.32        38.17023
635.75        37.77951
636.18        37.42032
636.61        37.07446
637.04        36.71237
637.47          36.334
637.89        35.92598
638.32        35.48059
638.75        35.09607
639.18        34.80072
639.61        34.23436
640.04        34.03744
640.47        33.73985
640.90        33.52814
641.33        33.38759
641.76        33.28585
642.18        33.15847
642.61         32.9773
643.04        32.76776
643.47        32.58764
643.90        32.51914
644.33        32.57524
644.76        32.77104
645.18        33.02424
645.61        33.10915
646.04        32.97151
646.47         33.0318
646.90        33.27707
647.33        33.46051
647.75        33.58002
648.18        33.80132
648.61        34.12733
649.04        34.49054
649.47        34.88958
649.89        35.33863
650.32        35.81318
650.75        36.33058
651.18        36.87975
651.61        37.35612
652.03        37.79373
652.46        38.43836
652.89        39.18223
653.32        39.51505
653.74        39.61281
654.17        39.76566
654.60        40.63704
655.03        41.65327
655.46        41.08667
655.88        42.31275
656.31        44.42277
656.74        44.91147
657.16        44.68517
657.59        43.95493
658.02        44.00274
658.45         44.9586
658.87        45.69979
659.30        46.06248
659.73        46.45913
660.15        46.96799
660.58        47.10583
661.01        47.26767
661.44        47.33032
661.86        47.32573
662.29        47.33305
662.72        47.61986
663.14        48.12682
663.57        48.28981
664.00        48.16876
664.42        48.30507
664.85        48.73553
665.27        49.12869
665.70        49.41905
666.13        49.68043
666.55        49.90064
666.98        50.05608
667.41        50.15754
667.83        50.21905
668.26        50.24666
668.69        50.24722
669.11        50.25949
669.54        50.33155
669.96        50.46969
670.39        50.70494
670.82        50.97287
671.24        51.06087
671.67        50.98994
672.09         51.0369
672.52        51.21744
672.94        51.38776
673.37        51.15585
673.80        51.55975
674.22        51.46098
674.65        51.66618
675.07        51.87069
675.50        52.10209
675.92        52.33606
676.35        52.48106
676.77        52.53049
677.20        52.56604
677.62        52.65475
678.05        52.48076
678.47        52.73659
678.90        52.86322
679.32        53.01506
679.75        53.10898
680.17        53.12983
680.60        53.10472
681.02        53.07001
681.45        53.09211
681.87        53.18744
682.30        53.35487
682.72        53.57767
683.15        53.69957
683.57        53.76395
684.00        54.00466
684.42        54.35089
684.85        54.52872
685.27         54.5224
685.70        54.37348
686.12        54.19685
686.54        54.43478
686.97        55.00299
687.39        55.25651
687.82         55.0914
688.24        55.32585
688.66        55.32383
689.09        55.16084
689.51        54.93661
689.94        54.91971
690.36        55.15018
690.78        55.22523
691.21         55.1753
691.63        55.38855
692.06        55.80549
692.48        56.02486
692.90        56.04292
693.33         56.1371
693.75        56.31529
694.17        56.41888
694.60        56.45113
695.02        56.48275
695.44        56.51432
695.87        56.59496
696.29        56.72855
696.71        56.71841
697.14         56.6407
697.56        56.88865
697.98        57.37201
698.41         57.5608
698.83        57.45486
699.25        57.47886
699.68        57.63458
700.10         57.7009
700.52        57.66903
700.94        57.67078
701.37        57.70367
701.79        57.72675
702.21        57.73473
702.64        57.75181
703.06        57.79478
703.48        57.89559
703.90        58.06031
704.33         58.2868
704.75        58.51217
705.17        58.69397
705.59        58.79253
706.01        58.82234
706.44        58.82355
706.86        58.84779
707.28        58.90501
707.70        59.03984
708.12        59.21985
708.55        59.24477
708.97        59.16901
709.39         59.3233
709.81        59.67493
710.23         59.8825
710.66        59.90985
711.08        59.96365
711.50         60.0455
711.92        60.10009
712.34        60.13765
712.76        60.17518
713.19        60.21033
713.61        60.27832
714.03        60.36561
714.45        60.46387
714.87        60.57202
715.29        60.68938
715.71        60.81273
716.13        60.94059
716.56        61.03668
716.98        61.12421
717.40        61.17675
717.82        61.17595
718.24        61.15081
718.66        61.19991
719.08        61.30954
719.50         61.3541
719.92         61.3319
720.34        61.33812
720.76        61.37352
721.19        61.37329
721.61        61.35044
722.03         61.3331
722.45        61.32383
722.87        61.31226
723.29        61.30241
723.71        61.30043
724.13        61.30875
724.55        61.33339
724.97         61.3672
725.39        61.39276
725.81        61.41371
726.23        61.44253
726.65        61.49938
727.07        61.61858
727.49        61.79993
727.91         62.0138
728.33         62.2469
728.75        62.47324
729.17        62.67086
729.59        62.86055
730.01        62.98278
730.43         62.9126
730.85         62.6706
731.27        62.37323
731.69        62.13543
732.10         62.0745
732.52        62.22938
732.94        62.59241
733.36        63.05354
733.78        63.41175
734.20        63.60474
734.62        63.61029
735.04        63.51661
735.46        63.67235
735.88        64.03615
736.30        64.06035
736.72        63.77591
737.13        63.83566
737.55        64.11951
737.97        63.95389
738.39        63.42751
738.81        63.05047
739.23        62.95734
739.65        63.28204
740.06        63.81465
740.48        63.97068
740.90         63.7038
741.32        63.44408
741.74        63.31948
742.16         63.2958
742.57        63.42706
742.99        63.71185
743.41        64.05854
743.83        64.35755
744.25        64.53144
744.67        64.42543
745.08        64.14534
745.50        64.09191
745.92        64.28378
746.34         64.3744
746.75        64.34085
747.17        64.36958
747.59          64.456
748.01        64.50166
748.42        64.51411
748.84        64.54729
749.26        64.61604
749.68        64.64326
750.09        64.62795
750.51        64.73038
750.93        64.87377
751.35        64.78928
751.76        64.54596
752.18        64.44288
752.60        64.49613
753.01        64.76454
753.43        64.78136
753.85        64.89548
754.27        64.97894
754.68        65.06825
755.10        65.14708
755.52        65.20194
755.93        65.21027
756.35        65.12812
756.77        65.07328
757.18        65.16292
757.60        65.41659
758.02        66.06841
758.43        66.73898
758.85         66.4837
759.26        65.09958
759.68        64.53664
760.10        64.85043
760.51        65.36141
760.93        65.84521
761.34        66.22353
761.76         66.3572
762.18        66.14957
762.59        65.73871
763.01        65.45108
763.42        65.37508
763.84        65.28234
764.26        65.22435
764.67        65.24744
765.09        65.38795
765.50        65.91206
765.92        66.57177
766.33        66.55815
766.75        65.85043
767.16        65.55776
767.58        65.74867
768.00        65.63427
768.41         65.3029
768.83        65.58005
769.24        66.24189
769.66        66.33284
770.07         65.8885
770.49        65.50894
770.90        65.39065
771.32        65.79445
771.73        66.54176
772.15        66.80964
772.56        66.53107
772.97        66.33593
773.39        65.94459
773.80        66.10284
774.22        66.60284
774.63        66.97959
775.05        67.07686
775.46        67.17305
775.88        67.21254
776.29        67.00861
776.70        66.64817
777.12        66.43469
777.53        66.42733
777.95        66.51546
778.36        66.67047
778.77        66.82061
779.19          66.935
779.60        67.12549
780.02        67.30716
780.43        67.32375
780.84        67.21569
781.26        67.06281
781.67         66.9867
782.09        67.35947
782.50        68.00306
782.91        68.06747
783.33        67.54942
783.74        67.24493
784.15        67.19269
784.57        66.91043
784.98          66.503
785.39         66.3932
785.81        66.62622
786.22        67.07125
786.63        67.61095
787.04        68.05761
787.46        68.34637
787.87        68.50639
788.28        68.58306
788.70        68.64336
789.11        68.70254
789.52        68.75233
789.93        68.76255
790.35        68.68549
790.76        68.53678
791.17         68.3503
791.58        68.20866
792.00         68.1988
792.41        68.35432
792.82        68.67699
793.23        69.07774
793.65         69.2803
794.06         69.2992
794.47        69.44427
794.88        69.66611
795.29        69.63481
795.71        69.31446
796.12        68.96363
796.53        68.71021
796.94        68.44575
797.35        68.63712
797.76        68.97145
798.18        69.41798
798.59        69.71392
799.00        69.77605
799.41        69.68784
799.82        69.53059
800.23        69.44933
800.64        69.49324
801.06        69.58772
801.47        69.73682
801.88        69.88107
802.29        69.98536
802.70        70.04352
803.11        70.06182
803.52        70.04766
803.93        70.02358
804.34        70.01183
804.75        69.94646
805.17        69.82851
805.58        69.71909
805.99        69.28163
806.40        68.74995
806.81        69.32462
807.22        70.65468
807.63        70.71975
808.04        69.65027
808.45        69.39251
808.86        70.05971
809.27        70.60286
809.68        70.79018
810.09        70.58263
810.50         70.0479
810.91         69.6686
811.32        69.60221
811.73        69.61909
812.14         69.7526
812.55        70.25439
812.96        70.93975
813.37        71.27898
813.78        71.15865
814.19        70.75289
814.60        70.25873
815.01        69.95478
815.42        69.91422
815.83        70.04251
816.24        70.26719
816.65        70.45473
817.05         70.5431
817.46        70.54817
817.87        70.50624
818.28        70.40919
818.69        70.27097
819.10        70.08646
819.51        69.90524
819.92         69.8325
820.33        69.89317
820.74        70.04903
821.14        70.25534
821.55        70.44485
821.96        70.58472
822.37        70.70556
822.78        70.76596
823.19        70.69964
823.60         70.5033
824.00        70.18445
824.41        69.86442
824.82        69.76842
825.23        69.93302
825.64        70.31361
826.04        70.73513
826.45        70.80701
826.86        70.47029
827.27        69.84964
827.68        69.19471
828.08        68.92352
828.49        69.09819
828.90        69.62654
829.31        70.33993
829.72        70.94202
830.12        71.34213
830.53        71.53625
830.94        71.62161
831.35         71.7216
831.75         71.8927
832.16        72.01739
832.57        72.04691
832.97         71.8802
833.38        71.52264
833.79        71.08257
834.20        70.66244
834.60        70.37627
835.01        70.28422
835.42        70.32079
835.82        70.52156
836.23        70.87317
836.64        71.35752
837.04        71.99249
837.45        72.52209
837.86        72.68306
838.26        72.41965
838.67        71.82207
839.08        71.12767
839.48        70.69146
839.89        70.64758
840.29        70.88794
840.70        71.29079
841.11        71.66469
841.51        71.95793
841.92         72.1927
842.33        72.39121
842.73        72.57288
843.14        72.69283
843.54         72.7536
843.95        72.76614
844.35        72.82583
844.76        72.91814
845.17        73.00288
845.57        73.04574
845.98        72.95113
846.38        72.72353
846.79        72.41333
847.19        72.00875
847.60        71.44648
848.00        70.78613
848.41        70.07462
848.81        69.53825
849.22        69.50406
849.62        70.04518
850.03        71.01958
850.43        72.17953
850.84        72.87479
851.24        72.96124
851.65        72.50354
852.05        71.79549
852.46        71.29384
852.86        71.13543
853.27        71.24937
853.67        71.39398
854.07        71.42824
854.48        71.26698
854.88        70.98875
855.29        70.67188
855.69        70.65659
856.10        70.92406
856.50          71.462
856.90         71.9351
857.31        71.89019
857.71        71.30392
858.12        70.29114
858.52        69.24542
858.92        68.77594
859.33        69.02964
859.73        69.86271
860.13        70.93874
860.54        71.70834
860.94        72.03204
861.34        71.97625
861.75        71.64005
862.15        71.26251
862.55         70.9147
862.96        70.55925
863.36        70.12604
863.76        69.53838
864.17        68.83607
864.57        68.11533
864.97         67.5519
865.38        67.34687
865.78        67.55895
866.18        68.09151
866.58        68.81126
866.99        69.41753
867.39        69.81674
867.79        70.04752
868.19        70.06881
868.60        69.83237
869.00        69.38107
869.40        68.71751
869.80        68.14258
870.21        68.16594
870.61        68.91711
871.01        70.20286
871.41        71.53928
871.81        72.15231
872.22        71.84967
872.62        70.84598
873.02        69.56368
873.42         68.7233
873.82        68.55489
874.22        68.88631
874.63        69.39168
875.03        69.56239
875.43        69.28463
875.83        68.72958
876.23        68.24924
876.63         68.4073
877.03        69.29499
877.44        70.63183
877.84        72.00807
878.24        72.67381
878.64        72.45383
879.04        71.64029
879.44        70.56705
879.84        69.71809
880.24        69.24535
880.64         68.9837
881.04        68.96474
881.44        69.23649
881.84        69.76381
882.24         70.5844
882.65        71.36814
883.05        71.65189
883.45        71.28041
883.85        70.40558
884.25        69.48783
884.65        69.24681
885.05        69.81387
885.45         70.9373
885.85        72.22654
886.25        73.00861
886.65        73.05012
887.05        72.56709
887.45        71.71632
887.85        70.77821
888.25        69.94263
888.65        69.18117
889.04        68.58598
889.44        68.34907
889.84        68.43126
890.24        68.81703
890.64         69.3985
891.04        69.90011
891.44        70.19365
891.84        70.32832
892.24        70.34974
892.64        70.35727
893.04        70.38796
893.44        70.39069
893.83        70.44176
894.23        70.60548
894.63        70.90697
895.03        71.32678
895.43        71.71843
895.83        71.85159
896.23        71.68322
896.63        71.26257
897.02        70.75762
897.42        70.51413
897.82        70.59089
898.22        70.92162
898.62         71.2813
899.01        71.29891
899.41        70.89191
899.81        70.20585
900.21        69.52583
900.61        69.28628
901.00        69.56709
901.40        70.20659
901.80        70.92333
902.20        71.26482
902.59        71.09579
902.99         70.5564
903.39        69.83852
903.79        69.21902
904.18        68.79803
904.58        68.54208
904.98        68.38065
905.38        68.22359
905.77        68.03265
906.17        67.84315
906.57        67.76192
906.96        67.97176
907.36         68.4558
907.76        69.17287
908.15        69.86311
908.55          69.982
908.95        69.49525
909.34        68.55638
909.74        67.66582
910.14        67.46977
910.53          68.132
910.93        69.39236
911.33        70.92001
911.72        72.18999
912.12        72.92746
912.52        73.29227
912.91        73.38058
913.31        73.35201
913.70        73.29391
914.10        73.10999
914.49        72.80372
914.89        72.38374
915.29        71.88808
915.68         71.3699
916.08        70.94027
916.47        70.61462
916.87        70.45258
917.26        70.41043
917.66         70.4854
918.05        70.69056
918.45        70.95537
918.84        71.31396
919.24        71.60922
919.64        71.72133
920.03         71.6325
920.42        71.36303
920.82        71.06487
921.21        70.88564
921.61        70.87917
922.00        71.00216
922.40        71.20383
922.79        71.48133
923.19        71.76146
923.58        72.05809
923.98        72.27007
924.37         72.2511
924.77        71.98258
925.16        71.52898
925.55        71.00952
925.95        70.63086
926.34        70.48176
926.74        70.49442
927.13        70.62859
927.52        70.77335
927.92        70.88892
928.31         70.9845
928.70        71.04353
929.10        71.02657
929.49        70.92082
929.89        70.68424
930.28        70.37355
930.67        70.03036
931.07        69.69258
931.46        69.41417
931.85        69.15588
932.24        68.84486
932.64        68.50055
933.03        68.16402
933.42        67.99345
933.82        68.23324
934.21        68.92226
934.60        69.89973
934.99        70.94931
935.39        71.70475
935.78        72.08888
936.17        72.16788
936.56        71.86787
936.96        71.14358
937.35        70.11386
937.74        68.88104
938.13        67.84161
938.53        67.48514
938.92        67.84082
939.31        68.82433
939.70        70.08536
940.09        70.90669
940.49        71.01039
940.88        70.57384
941.27        69.90401
941.66        69.49664
942.05        69.48612
942.44        69.76208
942.84         70.0501
943.23        69.96091
943.62        69.36954
944.01        68.42829
944.40        67.60611
944.79        67.56093
945.18        68.39404
945.57        69.92826
945.97        71.47639
946.36        72.08307
946.75        71.39621
947.14        69.73142
947.53          67.907
947.92        67.16606
948.31        67.80402
948.70        69.50408
949.09        71.50634
949.48        72.42723
949.87        71.86337
950.26        70.25912
950.65        68.47761
951.04        67.71797
951.43        68.23769
951.82         69.7087
952.21        71.40822
952.60        72.02689
952.99         71.2097
953.38        69.42676
953.77        67.58603
954.16        66.87755
954.55        67.53587
954.94        69.28882
955.33        71.38682
955.72        72.22156
956.11         71.2528
956.50        69.06203
956.89        66.75793
957.28        65.76707
957.66        66.41095
958.05        68.20501
958.44        70.43829
958.83        71.66434
959.22        71.36369
959.61        70.04209
960.00         68.4282
960.39        67.43401
960.78        67.23169
961.16         67.5395
961.55        67.96735
961.94        67.88223
962.33        67.12075
962.72        66.06517
963.11        65.03408
963.49        64.39139
963.88        64.22784
964.27        64.37837
964.66        64.88687
965.04        65.88737
965.43        67.22552
965.82        68.85356
966.21        70.34029
966.60        70.91153
966.98        70.43291
967.37        69.22642
967.76        67.77773
968.15        66.74309
968.53         66.2736
968.92        66.12724
969.31        66.38857
969.69        67.20159
970.08        68.45142
970.47        70.22978
970.86        71.83057
971.24        72.04237
971.63        70.63618
972.02        68.00857
972.40        65.34692
972.79        64.52025
973.17        65.84546
973.56        68.66678
973.95        71.91902
974.33        73.57484
974.72        72.93034
975.11        70.68134
975.49        67.85658
975.88        66.33994
976.26        66.60947
976.65        68.06361
977.04        70.06297
977.42        71.44635
977.81        71.63915
978.19        71.13019
978.58        70.29084
978.96        69.57202
979.35        69.22431
979.74        69.07749
980.12        69.20115
980.51        69.70898
980.89        70.62917
981.28        71.78503
981.66        73.16323
982.05        74.42583
982.43        75.53349
982.82        76.46645
983.20        76.91686
983.59        76.30817
983.97        74.67999
984.35        72.29462
984.74          70.103
985.12        69.39119
985.51        70.30209
985.89        72.55574
986.28        75.11227
986.66         76.5667
987.04        76.31144
987.43        74.79377
987.81        72.62988
988.20        71.21877
988.58         70.9201
988.96        71.37409
989.35          71.848
989.73        71.39864
990.12        69.77382
990.50        67.50303
990.88        65.16804
991.27        63.65749
991.65        63.19381
992.03        63.50193
992.42        64.43716
992.80        66.11086
993.18        68.29527
993.56        70.97302
993.95         73.4734
994.33        74.66476
994.71        74.15474
995.10        72.38404
995.48        70.14639
995.86        68.71818
996.24        68.46635
996.63         68.9503
997.01        70.18764
997.39        71.92595
997.77        73.84526
998.15        75.97561
998.54        77.64769
998.92        77.84743
999.30         76.3963
999.68         73.4918
1000.06        70.02091
1000.45        67.75597
1000.83        67.41552
1001.21        68.62388
1001.59        70.68658
1001.97        72.33869
1002.35        73.11668
1002.73        73.35464
1003.12        73.27693
1003.50        73.13622
1003.88        73.11021
1004.26        73.12151
1004.64        73.08369
1005.02        72.94373
1005.40        72.72755
1005.78        72.44583
1006.16        72.46346
1006.54        73.30555
1006.92         75.0117
1007.30        77.47686
1007.69        79.91464
1008.07        80.77666
1008.45        79.42993
1008.83        76.30152
1009.21        72.48067
1009.59        69.85374
1009.97         69.0461
1010.35        69.55776
1010.73        70.92857
1011.11        72.32391
1011.49        73.33361
1011.86        74.24593
1012.24        74.67381
1012.62        74.22185
1013.00        72.80019
1013.38        70.29587
1013.76        67.19495
1014.14        64.74232
1014.52        63.50788
1014.90        63.46229
1015.28        63.88503
1015.66        63.39864
1016.04        61.74026
1016.41        59.40626
1016.79           57.52
1017.17        58.07196
1017.55        61.07628
1017.93        65.13621
1018.31        69.07145
1018.69        72.27019
1019.06        75.05365
1019.44        77.79588
1019.82        80.66462
1020.20        82.91982
1020.58        83.59538
1020.95        82.50111
1021.33        80.33536
1021.71        77.68714
1022.09        74.45661
1022.46        70.16274
1022.84         65.1394
1023.22         60.7038
1023.60        58.45581
1023.97        58.44581
1024.35        59.70019
1024.73        61.03531
