SpectraSmart Spectrum 2.9.0.0
--------- Device Information -----------
Spectrum Name :  反射率_0
Saving Time :  2024/04/30 00:57:14
Spectro-Module Model Name : SE2030-DUVN
Spectro-Module Serial Number : OS361AC55029948
Wavelength Start : 200
Wavelength End : 1025
Wavelength Unit : Wavelength(nm)
Spectrum Unit : Reflectance(%)
-----------Spectrum Setting ------------
Integration Time : 20ms
Average : 10
Boxcar : 0
Background removal :  enabled
linearity correction :  enabled
SC :  disabled
Intensity correction :  disabled
DWT denoise :  enabled
savitzky-golay :  disabled
FFT :  disabled
Running average :  disabled
Kalman :  disabled
High pass :  disabled
---------------BEGIN--------------------
Wavelength(nm)             Reflectance(%)
200.29               0
200.75        56.09485
201.21        48.53165
201.67        39.60767
202.13        30.72245
202.58        22.88645
203.04        15.50322
203.50        12.03161
203.96        19.62384
204.42        39.42308
204.88         68.1955
205.34        93.12395
205.80        96.60217
206.26        81.66975
206.72        60.30298
207.18        41.65783
207.64        30.89416
208.10        26.61296
208.55        25.73754
209.01        27.27715
209.47        30.01025
209.93         32.6762
210.39        35.71696
210.85        37.84682
211.31        37.81671
211.77        35.57352
212.23        30.39537
212.69        23.57237
213.14        22.37059
213.60        29.00286
214.06        39.09283
214.52        47.35224
214.98        50.67741
215.44        50.02657
215.90         46.8859
216.36        43.16842
216.81        42.50658
217.27        46.93585
217.73        56.40483
218.19        70.53265
218.65        82.80745
219.11        87.02271
219.57         84.4558
220.02        79.28372
220.48        75.34048
220.94        72.24599
221.40        68.51541
221.86        63.25873
222.32        57.13503
222.77        52.32722
223.23        50.19734
223.69        49.23436
224.15        47.80357
224.61        45.57696
225.06        42.58303
225.52        39.96198
225.98        40.00974
226.44        42.71825
226.90        46.30983
227.36        49.17294
227.81        50.33994
228.27        50.06628
228.73        48.72771
229.19        46.92117
229.65        45.94854
230.10        46.15794
230.56        46.99746
231.02        47.73326
231.48        47.74699
231.93        46.93767
232.39        45.57549
232.85        43.98059
233.31        42.84127
233.77        42.37545
234.22        42.48201
234.68        42.57274
235.14        41.64412
235.60        39.64573
236.05        37.15979
236.51        35.10331
236.97        34.52642
237.43        35.67833
237.88        38.47828
238.34        42.76916
238.80         47.6604
239.26        51.72812
239.71        54.72424
240.17        55.95631
240.63        55.28828
241.08        52.68979
241.54        46.86701
242.00        37.46285
242.46        29.45959
242.91        30.18284
243.37        40.21879
243.83        53.61462
244.28        63.51933
244.74        69.20177
245.20        72.06758
245.66        72.41336
246.11        71.04497
246.57        68.65305
247.03         64.9886
247.48        60.04348
247.94        54.86924
248.40        51.42573
248.85        49.85052
249.31        50.33416
249.77        52.54555
250.22        56.70177
250.68        63.83386
251.14        74.03137
251.59        79.82159
252.05        75.64588
252.51        67.46845
252.96        60.24925
253.42        55.49304
253.88        51.81827
254.33        47.99735
254.79        44.73168
255.25        43.29538
255.70        43.62972
256.16        45.06979
256.62        46.18473
257.07        45.94158
257.53        44.78071
257.99         42.9543
258.44         41.0718
258.90        40.56818
259.35        41.06851
259.81        42.09665
260.27        42.83745
260.72        42.65386
261.18        41.79153
261.63        40.42934
262.09        39.11002
262.55        38.27711
263.00        37.91652
263.46        37.91288
263.91        37.83924
264.37        37.41021
264.83        36.56124
265.28        35.40012
265.74        34.30804
266.19        33.66504
266.65        33.57941
267.11         33.8463
267.56         34.1484
268.02        34.02912
268.47        33.38863
268.93        32.38859
269.38        31.25072
269.84        30.46286
270.30        30.14245
270.75        30.13772
271.21        30.22496
271.66        30.07406
272.12        29.60586
272.57        28.91086
273.03        28.15678
273.48        27.52407
273.94        27.11382
274.39        26.82203
274.85        26.57776
275.31        26.23177
275.76        25.74541
276.22        25.19632
276.67        24.64804
277.13        24.25769
277.58        24.00577
278.04        23.86601
278.49        23.70187
278.95        23.39498
279.40        22.90081
279.86        22.34244
280.31        21.78337
280.77        21.41668
281.22         21.2431
281.68          21.212
282.13        21.26417
282.59        21.35472
283.04        21.43411
283.50        21.49924
283.95        21.48437
284.41        21.29251
284.86        20.91777
285.32        20.43864
285.77        19.90878
286.22        19.46576
286.68        19.15503
287.13        18.91135
287.59        18.76493
288.04        18.70703
288.50           18.73
288.95        18.81098
289.41        18.87693
289.86        18.78672
290.32        18.54586
290.77        18.20009
291.22        17.85606
291.68        17.68557
292.13        17.72185
292.59        17.91901
293.04        18.24702
293.50        18.67799
293.95         19.1823
294.40        19.77017
294.86        20.34697
295.31        20.78168
295.77        21.04844
296.22        21.17145
296.68        21.28224
297.13        21.57284
297.58        22.09002
298.04        22.74567
298.49         23.4183
298.95        23.90488
299.40        24.15915
299.85        24.25469
300.31        24.27961
300.76        24.31898
301.21        24.43239
301.67        24.59179
302.12        24.77154
302.58        25.07125
303.03        25.48172
303.48        25.83439
303.94         26.0533
304.39        26.79839
304.84        26.75661
305.30        26.98319
305.75        27.11553
306.20        27.25816
306.66        27.42541
307.11        27.59541
307.57        27.75622
308.02        27.82572
308.47        27.80577
308.93        27.72833
309.38         27.6301
309.83        27.61014
310.29        27.68405
310.74        27.81873
311.19         27.9412
311.65        27.93257
312.10        27.77195
312.55        27.50394
313.00         27.2195
313.46        27.05891
313.91        27.04226
314.36        27.12443
314.82        27.23136
315.27        27.26267
315.72        27.17685
316.18        27.01747
316.63        26.80064
317.08        26.56207
317.53        26.32928
317.99        26.10274
318.44        25.90515
318.89        25.77843
319.35         25.7262
319.80        25.73116
320.25        25.78116
320.70        25.85249
321.16        25.91712
321.61        25.98887
322.06        26.00992
322.51        25.89851
322.97        25.64705
323.42        25.28698
323.87        24.91163
324.32        24.67433
324.78        24.60385
325.23        24.67382
325.68        24.79461
326.13        24.81057
326.59        24.67131
327.04        24.43227
327.49        24.15903
327.94        23.97095
328.39        23.89618
328.85        23.87957
329.30        23.88309
329.75         23.8077
330.20        23.62968
330.66        23.39394
331.11        23.13669
331.56        22.88851
332.01        22.67099
332.46         22.4694
332.92        22.32235
333.37        22.32102
333.82        22.46815
334.27        22.74043
334.72        23.03248
335.17        23.16621
335.63        23.09333
336.08        22.86261
336.53        22.56669
336.98         22.3853
337.43        22.37368
337.88        22.47881
338.34        22.63245
338.79        22.74523
339.24        22.78181
339.69        22.78602
340.14        22.77308
340.59        22.76418
341.05        22.76969
341.50        22.76228
341.95        22.76593
342.40        22.83137
342.85        22.95561
343.30        23.12203
343.75        23.24623
344.20        23.19264
344.66        22.95356
345.11         22.5754
345.56        22.17282
346.01        21.92586
346.46        21.88601
346.91        21.99959
347.36        22.19724
347.81        22.37369
348.26         22.4898
348.72        22.56782
349.17        22.61457
349.62        22.64103
350.07        22.65028
350.52        22.63204
350.97        22.57925
351.42        22.48709
351.87        22.36647
352.32         22.2362
352.77        22.12945
353.22        22.09454
353.67        22.13915
354.13        22.23819
354.58        22.36962
355.03        22.49813
355.48        22.59987
355.93         22.6784
356.38        22.69813
356.83         22.6089
357.28        22.41343
357.73        22.13212
358.18        21.83476
358.63        21.63354
359.08        21.55161
359.53        21.55464
359.98        21.58503
360.43        21.54656
360.88        21.41329
361.33         21.2208
361.78        20.99633
362.23        20.78065
362.68        20.59605
363.13        20.43535
363.58        20.31023
364.03        20.23996
364.48         20.2232
364.93        20.24959
365.38         20.3032
365.83        20.35705
366.28        20.39299
366.73        20.40644
367.18        20.37768
367.63        20.28123
368.08        20.11622
368.53        19.89434
368.98        19.64451
369.43        19.41412
369.88         19.2243
370.33        19.07317
370.78        18.95674
371.23        18.86335
371.68        18.78515
372.13        18.71975
372.58        18.66637
373.03        18.62324
373.48        18.58108
373.93        18.53168
374.38        18.44879
374.83        18.29564
375.28        18.07686
375.72        17.81286
376.17        17.56235
376.62        17.37159
377.07        17.25325
377.52        17.18937
377.97        17.17888
378.42        17.21743
378.87        17.29062
379.32        17.39207
379.77        17.47858
380.22         17.4895
380.67        17.41154
381.11        17.25202
381.56        17.05971
382.01         16.9173
382.46        16.85109
382.91        16.84975
383.36        16.85748
383.81        16.78564
384.26        16.62095
384.71        16.38984
385.15        16.16962
385.60        16.10476
386.05        16.20156
386.50        16.40484
386.95        16.60004
387.40        16.61075
387.85        16.41084
388.29        16.06581
388.74         15.7027
389.19        15.43886
389.64        15.30515
390.09        15.25587
390.54        15.27426
390.98         15.3303
391.43        15.40624
391.88        15.50831
392.33        15.59262
392.78        15.61176
393.23        15.56256
393.67        15.41619
394.12        15.24045
394.57         15.2375
395.02        15.19937
395.47        15.28087
395.91        15.35749
396.36        15.32039
396.81        15.15694
397.26        14.91267
397.71        14.66862
398.15        14.53302
398.60        14.54413
399.05        14.62712
399.50        14.71924
399.95        14.79687
400.39        14.76233
400.84        14.63703
401.29        14.44505
401.74         14.3208
402.18        14.29452
402.63        14.29858
403.08        14.31868
403.53        14.34456
403.97        14.36441
404.42        14.38683
404.87        14.38796
405.32         14.3269
405.76        14.19798
406.21        14.01807
406.66        13.84053
407.11        13.75311
407.55        13.77822
408.00         13.8934
408.45        14.03194
408.90        14.06946
409.34        13.97472
409.79        13.78646
410.24        13.60041
410.68        13.56156
411.13        13.69918
411.58        13.96592
412.03        14.25858
412.47        14.40091
412.92        14.33626
413.37        14.13417
413.81        13.88925
414.26        13.76597
414.71         13.7888
415.15        13.90722
415.60        14.05723
416.05        14.15072
416.49         14.1569
416.94        14.11586
417.39        14.03599
417.83        13.92397
418.28        13.79852
418.73        13.64906
419.17        13.52831
419.62        13.52285
420.07        13.63991
420.51        13.85126
420.96        14.07022
421.41         14.1503
421.85        14.06159
422.30        13.86952
422.74        13.65164
423.19          13.546
423.64        13.57648
424.08        13.70648
424.53         13.8783
424.98        14.01623
425.42        14.08951
425.87        14.11036
426.31        14.08691
426.76        14.05447
427.21        13.97772
427.65         13.8739
428.10        13.75604
428.54        13.62876
428.99        13.51538
429.44        13.50934
429.88        13.56882
430.33         13.4525
430.77        13.24939
431.22        13.39678
431.66        13.84342
432.11        14.08011
432.56        14.03032
433.00         13.9694
433.45        13.91958
433.89        13.71093
434.34         13.4699
434.78        13.51465
435.23        13.77284
435.67        13.84809
436.12        13.71601
436.57         13.5946
437.01        13.53513
437.46        13.53065
437.90        13.59314
438.35        13.71466
438.79        13.85118
439.24        13.90915
439.68        13.89076
440.13         13.8791
440.57        13.86662
441.02         13.8453
441.46        13.82343
441.91        13.71022
442.35        13.56231
442.80        13.74263
443.24        14.12874
443.69        14.07322
444.13        13.63292
444.58        13.44826
445.02        13.52573
445.47        13.52801
445.91        13.44495
446.36         13.4294
446.80        13.47714
447.24        13.55269
447.69        13.63667
448.13        13.69898
448.58         13.7319
449.02        13.74298
449.47        13.75186
449.91        13.78136
450.36        13.83789
450.80        13.91181
451.25        13.98232
451.69        14.01561
452.13        14.00372
452.58        13.96517
453.02        13.91932
453.47        13.89602
453.91        13.89921
454.36        13.95881
454.80        13.99054
455.24        14.02029
455.69        14.02362
456.13        14.00664
456.58        13.98521
457.02        13.96967
457.46        13.96771
457.91        13.97323
458.35        13.97821
458.79        13.97697
459.24        13.97733
459.68        13.98902
460.13        14.01739
460.57        14.00438
461.01        14.05809
461.46         14.0381
461.90        14.00526
462.34        14.13423
462.79        14.36242
463.23        14.37903
463.68        14.20422
464.12         14.1363
464.56        14.18649
465.01        14.20583
465.45        14.17705
465.89        14.13771
466.34        14.11317
466.78        14.16207
467.22        14.29476
467.67        14.29758
468.11        14.17268
468.55        14.00098
468.99        13.85179
469.44         13.7951
469.88        13.84911
470.32        13.99796
470.77        14.17189
471.21        14.27068
471.65        14.26122
472.10        14.17981
472.54        14.07955
472.98        14.05974
473.42        14.13976
473.87        14.28173
474.31         14.4291
474.75        14.49894
475.20        14.47716
475.64        14.39149
476.08        14.28458
476.52        14.21648
476.97         14.2061
477.41         14.2316
477.85        14.28352
478.29        14.34543
478.74        14.41216
479.18         14.4804
479.62         14.5372
480.06        14.59676
480.50        14.66454
480.95        14.60271
481.39         14.6489
481.83        14.68668
482.27        14.79919
482.72        14.85508
483.16        15.03131
483.60        15.11393
484.04        15.14266
484.48        15.13658
484.93        15.16041
485.37        15.25777
485.81         15.3443
486.25        15.70412
486.69        15.15782
487.14        15.37551
487.58        15.94109
488.02        15.91461
488.46        15.94849
488.90        16.36049
489.34        15.91236
489.79        15.94213
490.23        16.01211
490.67        16.25282
491.11        16.55089
491.55        16.55629
491.99        16.34635
492.43        16.36951
492.88        16.64777
493.32         16.8937
493.76        17.06288
494.20        17.24463
494.64        17.43146
495.08        17.59212
495.52        17.71241
495.96        17.81386
496.41        17.90505
496.85        17.89189
497.29        17.81774
497.73        18.03754
498.17        18.28507
498.61        18.34896
499.05        18.18827
499.49        18.15088
499.93        18.26859
500.37        18.41342
500.82        18.55618
501.26        18.67427
501.70        18.75644
502.14        18.83619
502.58        18.92849
503.02        19.03458
503.46        19.15765
503.90        19.29623
504.34        19.43816
504.78         19.5613
505.22        19.65773
505.66         19.7306
506.10        19.77595
506.54        19.81174
506.98        19.84666
507.42        19.83719
507.86        19.78279
508.30        19.90695
508.74        19.85089
509.18        19.90554
509.62        19.95912
510.06        20.01353
510.50        20.06454
510.94        20.11934
511.38        20.17744
511.82        20.22779
512.26        20.26872
512.70        20.29841
513.14        20.32828
513.58        20.37739
514.02        20.44866
514.46        20.53819
514.90        20.62221
515.34        20.66206
515.78        20.64992
516.22        20.59522
516.66        20.53331
517.10        20.52028
517.54        20.56543
517.98        20.65004
518.42         20.7308
518.86        20.73715
519.30        20.65597
519.74        20.51621
520.18        20.36117
520.62        20.25549
521.06        20.21888
521.50        20.23359
521.93        20.28376
522.37        20.33331
522.81        20.36933
523.25        20.40308
523.69         20.4355
524.13         20.4437
524.57        20.46494
525.01        20.45953
525.45        20.43437
525.89        20.38543
526.32        20.31213
526.76        20.22584
527.20        20.13036
527.64        20.03158
528.08        19.93538
528.52        19.84539
528.96        19.77135
529.40        19.72689
529.83        19.71201
530.27        19.72226
530.71        19.74361
531.15        19.75686
531.59        19.75259
532.03        19.73092
532.46        19.69077
532.90         19.6386
533.34        19.57807
533.78        19.51473
534.22        19.44804
534.66        19.37651
535.09        19.30182
535.53        19.23098
535.97        19.18294
536.41        19.19229
536.85         19.2596
537.28        19.36981
537.72        19.48091
538.16        19.52873
538.60        19.50103
539.04        19.42422
539.47        19.32784
539.91        19.27723
540.35         19.2856
540.79        19.33936
541.22        19.43366
541.66        19.56367
542.10        19.71727
542.54        19.89393
542.97        20.07457
543.41        20.22999
543.85        20.35311
544.29        20.45419
544.72         20.5333
545.16        20.60897
545.60        20.68781
546.04        20.75887
546.47        20.84402
546.91        21.00935
547.35        21.24211
547.79        21.45933
548.22         21.6298
548.66        21.82138
549.10        22.03398
549.53        22.15799
549.97        22.16939
550.41        22.48782
550.84        22.44588
551.28        22.54883
551.72        22.60331
552.15        22.81878
552.59         22.9115
553.03        23.10386
553.46        23.29328
553.90        23.44562
554.34         23.5481
554.77        23.63746
555.21        23.72423
555.65        23.76257
556.08        23.78032
556.52        23.88548
556.96        24.06381
557.39        24.23647
557.83        24.38829
558.27        24.50804
558.70        24.60834
559.14         24.7386
559.57        24.87833
560.01        24.99334
560.45        25.07263
560.88        25.03063
561.32        25.02981
561.75        25.07792
562.19         25.2078
562.63         25.2925
563.06        25.32387
563.50        25.38646
563.93         25.4706
564.37        25.54901
564.80        25.61368
565.24        25.67793
565.68        25.74523
566.11        25.83845
566.55        25.96033
566.98        26.06662
567.42        26.18518
567.85        26.30354
568.29        26.41295
568.72        26.61785
569.16        26.96082
569.60        26.84136
570.03        27.07211
570.47        27.45298
570.90        27.44812
571.34         27.5965
571.77        27.75554
572.21         27.8326
572.64         27.8542
573.08        28.00973
573.51        28.32232
573.95        28.25793
574.38        28.51126
574.82        28.39581
575.25        28.38564
575.69        28.31789
576.12        28.26773
576.56        28.63027
576.99        28.61567
577.42        28.59797
577.86        28.63767
578.29        28.51898
578.73        28.64461
579.16         28.4674
579.60        28.41541
580.03         28.2751
580.47        28.28965
580.90        28.22744
581.33        28.05635
581.77        28.39124
582.20        27.96745
582.64        27.90403
583.07         27.6258
583.51        27.46148
583.94        27.44795
584.37         27.2584
584.81        26.98412
585.24        27.08146
585.68        27.34443
586.11        27.29252
586.54        26.93893
586.98        26.85067
587.41        27.10322
587.85        27.17133
588.28        26.64689
588.71        26.98689
589.15        26.70776
589.58        26.61882
590.01         26.6461
590.45        26.59151
590.88        26.59287
591.31        26.68066
591.75        26.80299
592.18        26.87168
592.61        26.91481
593.05        26.61591
593.48        26.90464
593.91        26.98153
594.35        26.80831
594.78        26.94279
595.21        27.27473
595.65         27.2853
596.08        27.01078
596.51        27.45533
596.94        27.75537
597.38        28.10967
597.81        28.20018
598.24        28.45542
598.68        28.70123
599.11        28.92262
599.54        29.21433
599.97        29.56823
600.41        29.49971
600.84         30.1199
601.27        30.13914
601.70        30.49281
602.14        30.81011
602.57         31.0795
603.00        31.31266
603.43           31.64
603.87        31.96403
604.30        32.55605
604.73        32.82703
605.16        33.21772
605.60        33.56366
606.03        34.04984
606.46        34.55803
606.89        34.93559
607.32        35.10608
607.76        35.37307
608.19        35.73766
608.62        35.98457
609.05        36.14351
609.48        36.69827
609.92        36.97003
610.35        37.38592
610.78        37.77117
611.21        37.69589
611.64         38.0884
612.07         38.3503
612.50        38.70132
612.94        39.07005
613.37        39.51234
613.80        39.35003
614.23        39.92433
614.66        40.10486
615.09        40.29292
615.52        40.47074
615.96        40.64888
616.39        40.88105
616.82        41.00509
617.25        41.33023
617.68        41.26585
618.11        41.63359
618.54        42.01637
618.97        42.18072
619.40        42.12059
619.84        42.23026
620.27        42.56474
620.70        42.92229
621.13        43.16913
621.56        43.29557
621.99         43.1854
622.42        42.90783
622.85        43.27842
623.28        43.54824
623.71        43.78119
624.14        42.92562
624.57        43.48815
625.00        43.35522
625.43        43.29708
625.86        43.14081
626.29        43.01301
626.72        43.02745
627.15          43.071
627.58        42.72523
628.01        42.86888
628.44        42.71041
628.87        42.52812
629.30        42.24187
629.73        42.03102
630.16        41.79567
630.59        41.57038
631.02        41.45808
631.45        41.23698
631.88        40.98293
632.31        40.62318
632.74        40.24359
633.17        39.77494
633.60        39.34821
634.03        38.95439
634.46        38.57778
634.89        38.21712
635.32        37.87561
635.75        37.54853
636.18        37.23238
636.61        36.91419
637.04        36.57616
637.47        36.22174
637.89        35.83353
638.32        35.40556
638.75        35.03847
639.18        34.76149
639.61        34.21817
640.04        34.04276
640.47        33.75442
640.90        33.53973
641.33        33.38742
641.76        33.27956
642.18        33.17625
642.61        33.05105
643.04         32.9162
643.47        32.80928
643.90        32.78112
644.33        32.83572
644.76         32.9994
645.18        33.19424
645.61        33.20266
646.04        32.97955
646.47        32.94429
646.90        33.09983
647.33        33.22913
647.75        33.33208
648.18        33.56461
648.61        33.90325
649.04        34.22665
649.47        34.52928
649.89        34.86701
650.32        35.21593
650.75        35.58296
651.18        35.96784
651.61        36.25417
652.03        36.50559
652.46        37.07541
652.89        37.82606
653.32        38.17014
653.74         38.2015
654.17        38.38752
654.60        38.32766
655.03        39.75315
655.46        39.30042
655.88        40.44403
656.31        42.69687
656.74        43.19869
657.16        42.63338
657.59        41.54932
658.02        41.69847
658.45        42.46062
658.87        42.82205
659.30        43.08641
659.73        43.20807
660.15        43.87599
660.58        44.19252
661.01        44.46918
661.44         44.4803
661.86        44.43283
662.29        44.43377
662.72         44.6962
663.14        45.17826
663.57        45.37165
664.00        45.29751
664.42        45.40126
664.85        45.71251
665.27        45.94409
665.70        46.08797
666.13        46.29813
666.55           46.58
666.98        46.87817
667.41        47.15647
667.83        47.35284
668.26        47.45032
668.69        47.48095
669.11        47.49146
669.54        47.55919
669.96        47.70721
670.39        47.91082
670.82        48.14311
671.24        48.36599
671.67        48.55111
672.09        48.70578
672.52        48.85144
672.94        49.06362
673.37        48.97082
673.80        49.43766
674.22        49.36632
674.65        49.58497
675.07        49.80756
675.50        50.04388
675.92        50.27773
676.35        50.47492
676.77         50.6398
677.20         50.7612
677.62        50.86427
678.05        50.99067
678.47        51.14359
678.90        51.31384
679.32        51.46401
679.75        51.54378
680.17        51.54446
680.60        51.50094
681.02        51.45396
681.45        51.46991
681.87        51.57294
682.30        51.72858
682.72         51.9407
683.15        52.18077
683.57        52.44647
684.00        52.74004
684.42        53.01477
684.85        53.22007
685.27        53.34556
685.70        53.32906
686.12        53.25791
686.54        53.49616
686.97        53.96614
687.39        54.23193
687.82        54.22972
688.24        54.28021
688.66        54.37935
689.09        54.32037
689.51         54.1666
689.94        54.13456
690.36        54.25071
690.78         54.4514
691.21         54.6921
691.63         54.9045
692.06        55.06129
692.48         55.1965
692.90        55.30534
693.33         55.3704
693.75        55.39869
694.17        55.38718
694.60        55.38309
695.02        55.44753
695.44         55.5848
695.87        55.87284
696.29        56.23838
696.71        56.29186
697.14        56.11872
697.56         56.2891
697.98        56.75661
698.41         56.9628
698.83        56.90376
699.25        56.97958
699.68        57.17434
700.10        57.26886
700.52        57.24428
700.94        57.21437
701.37         57.1806
701.79        57.12929
702.21        57.06622
702.64        57.00771
703.06        56.99491
703.48        57.10013
703.90        57.33395
704.33        57.68311
704.75        58.05049
705.17        58.33285
705.59        58.47324
706.01        58.49947
706.44         58.4753
706.86        58.50853
707.28        58.62392
707.70        58.80641
708.12        59.01577
708.55        59.14154
708.97         59.1895
709.39        59.27238
709.81        59.41191
710.23        59.57238
710.66        59.74868
711.08        59.97692
711.50        60.21777
711.92        60.42183
712.34        60.57734
712.76        60.69863
713.19        60.76747
713.61         60.7939
714.03        60.77121
714.45        60.70996
714.87        60.65507
715.29        60.67383
715.71        60.77861
716.13        60.95089
716.56        61.13545
716.98        61.30806
717.40        61.42086
717.82        61.48919
718.24        61.52219
718.66        61.53887
719.08        61.54907
719.50        61.54227
719.92        61.53506
720.34        61.55654
720.76        61.61079
721.19        61.68829
721.61        61.77064
722.03         61.7993
722.45        61.76459
722.87        61.68457
723.29        61.60033
723.71         61.5785
724.13        61.63708
724.55        61.75776
724.97        61.90866
725.39        62.03448
725.81        62.12111
726.23        62.18904
726.65        62.25693
727.07        62.35737
727.49        62.49485
727.91        62.64149
728.33        62.79597
728.75        62.95863
729.17        63.11923
729.59        63.28653
730.01        63.40543
730.43        63.38279
730.85        63.22444
731.27        62.97638
731.69        62.75338
732.10        62.75749
732.52        63.04566
732.94        63.44969
733.36        63.84387
733.78        64.30877
734.20        64.84489
734.62        64.24986
735.04        64.80699
735.46        64.53871
735.88        64.23992
736.30        64.10506
736.72        64.18853
737.13        64.50864
737.55         64.8285
737.97        64.66872
738.39        64.14223
738.81        63.82818
739.23        63.87464
739.65        64.29695
740.06        64.86229
740.48        65.07915
740.90        64.87058
741.32         64.5194
741.74        64.19795
742.16        64.06104
742.57         64.1836
742.99        64.52227
743.41        64.94613
743.83        65.18357
744.25        65.19884
744.67        65.16579
745.08        65.14735
745.50        65.13446
745.92        65.15819
746.34        65.22845
746.75        65.34434
747.17        65.43688
747.59        65.48814
748.01        65.64809
748.42         65.8819
748.84          65.682
749.26        65.56321
749.68        65.52737
750.09        65.68444
750.51        65.90073
750.93        66.05505
751.35         65.8765
751.76        65.47828
752.18        65.36922
752.60        65.59223
753.01        65.86111
753.43        66.06377
753.85        66.17783
754.27        66.18283
754.68        66.11945
755.10        66.03457
755.52        66.01542
755.93        66.08384
756.35        66.12203
756.77        66.18275
757.18        66.45132
757.60        66.94317
758.02        67.12856
758.43        68.18459
758.85        67.67897
759.26        66.36991
759.68        66.11725
760.10        66.91647
760.51        67.18922
760.93        66.86414
761.34          66.909
761.76        67.24898
762.18          67.312
762.59          67.098
763.01        66.67309
763.42         66.1965
763.84        66.07307
764.26        66.39771
764.67        66.33786
765.09        66.86433
765.50        67.33463
765.92        67.73702
766.33        68.01915
766.75        68.00786
767.16        67.80446
767.58        67.49476
768.00        67.26353
768.41        67.19594
768.83        67.50281
769.24        67.94968
769.66        67.77042
770.07        67.10442
770.49        66.82946
770.90        67.03129
771.32        67.54633
771.73        67.88374
772.15        68.08585
772.56        68.00529
772.97        67.95787
773.39        67.59338
773.80        67.70169
774.22        68.08983
774.63        68.38839
775.05         68.4696
775.46        68.54557
775.88        68.56908
776.29        68.42448
776.70        68.16033
777.12        67.97563
777.53        67.91074
777.95        67.88143
778.36        67.92183
778.77        68.04147
779.19        68.23068
779.60        68.63487
780.02        69.07694
780.43        69.14262
780.84        68.91499
781.26        68.72807
781.67         68.7403
782.09        69.34875
782.50        70.26059
782.91        70.21482
783.33        69.29771
783.74        68.87409
784.15        69.02399
784.57        68.93711
784.98        68.63551
785.39        68.55961
785.81        68.73534
786.22        69.03607
786.63        69.41434
787.04        69.79503
787.46        70.13315
787.87        70.41624
788.28        70.64843
788.70        70.80177
789.11        70.86269
789.52        70.93658
789.93         70.9737
790.35        70.70509
790.76        70.24057
791.17        70.03866
791.58        70.15446
792.00        70.24452
792.41        70.30988
792.82        70.64417
793.23        71.14272
793.65        71.25819
794.06        71.05985
794.47        71.17171
794.88        71.49552
795.29        71.43659
795.71        70.95836
796.12        70.41447
796.53        69.99567
796.94        69.91354
797.35        70.24924
797.76        70.94229
798.18        71.73314
798.59        72.23835
799.00        72.32489
799.41        72.09621
799.82         71.7073
800.23        71.43578
800.64        71.37836
801.06        71.42697
801.47        71.56577
801.88        71.69518
802.29        71.77197
802.70        71.82382
803.11        71.86279
803.52        71.89268
803.93        71.92814
804.34        71.97327
804.75        71.98158
805.17        71.94765
805.58         71.9139
805.99        71.67243
806.40        71.37498
806.81        71.74866
807.22        72.59409
807.63        72.72636
808.04        72.18578
808.45        72.06438
808.86        72.42234
809.27        72.61057
809.68        72.55174
810.09        72.46144
810.50        72.34344
810.91        72.13779
811.32        71.95773
811.73        71.98368
812.14        72.24668
812.55        72.71496
812.96        73.22909
813.37        73.47982
813.78        73.38673
814.19        73.05251
814.60        72.65599
815.01        72.45701
815.42        72.51707
815.83        72.75515
816.24        73.07924
816.65        73.30784
817.05        73.36487
817.46        73.27638
817.87        73.11205
818.28         72.9115
818.69        72.70663
819.10         72.4928
819.51        72.30987
819.92        72.24077
820.33         72.3063
820.74        72.47282
821.14        72.72352
821.55        73.03601
821.96        73.37762
822.37         73.7559
822.78        74.06305
823.19        74.11382
823.60        73.86942
824.00        73.37519
824.41        72.81725
824.82        72.52464
825.23        72.56815
825.64        72.87575
826.04        73.26961
826.45         73.3455
826.86         73.0347
827.27        72.47475
827.68        71.87975
828.08        71.60478
828.49        71.70181
828.90        72.09248
829.31        72.66589
829.72        73.22989
830.12        73.72574
830.53        74.12235
830.94        74.45862
831.35         74.7566
831.75         75.0345
832.16        75.18344
832.57        75.19962
832.97        75.05921
833.38        74.78593
833.79        74.46985
834.20        74.14102
834.60         73.8077
835.01        73.52428
835.42        73.26304
835.82        73.18364
836.23        73.47312
836.64        74.16081
837.04        75.20942
837.45        76.20583
837.86        76.61577
838.26         76.3024
838.67        75.42996
839.08        74.38172
839.48        73.74099
839.89        73.70517
840.29        74.10095
840.70        74.70301
841.11        75.15809
841.51        75.36731
841.92        75.39471
842.33        75.36323
842.73        75.45518
843.14        75.66273
843.54         75.9418
843.95        76.16483
844.35        76.20965
844.76        76.02728
845.17        75.66405
845.57        75.26523
845.98        75.01894
846.38        75.00233
846.79        75.17328
847.19        75.37506
847.60         75.2902
848.00        74.88145
848.41        74.25532
848.81        73.70361
849.22        73.66113
849.62        74.24158
850.03        75.26369
850.43        76.45399
850.84        77.11604
851.24        77.10161
851.65        76.49579
852.05        75.65097
852.46         75.1045
852.86        74.99688
853.27        75.22215
853.67          75.454
854.07        75.44878
854.48        75.10072
854.88        74.52724
855.29        73.85194
855.69        73.54405
856.10        73.64843
856.50        74.12774
856.90         74.6433
857.31        74.73117
857.71        74.34252
858.12        73.58934
858.52        72.79617
858.92        72.44403
859.33        72.65097
859.73         73.3125
860.13        74.15897
860.54        74.76504
860.94        75.03596
861.34        74.99415
861.75        74.74232
862.15        74.52312
862.55        74.37705
862.96        74.26163
863.36        74.00291
863.76        73.36098
864.17        72.36407
864.57        71.17143
864.97        70.09727
865.38         69.5475
865.78        69.63995
866.18        70.23727
866.58        71.14604
866.99        71.93134
867.39          72.438
867.79        72.72508
868.19        72.78643
868.60         72.6318
869.00         72.3108
869.40        71.79444
869.80        71.31326
870.21        71.27385
870.61        71.79377
871.01        72.72447
871.41        73.69466
871.81        74.09929
872.22        73.78914
872.62        72.94112
873.02        71.88289
873.42        71.16893
873.82        70.98854
874.22        71.22408
874.63        71.62875
875.03        71.82058
875.43        71.70551
875.83        71.38387
876.23        71.15228
876.63        71.48764
877.03        72.44722
877.44        73.79758
877.84        75.09391
878.24        75.52798
878.64        74.95398
879.04        73.69817
879.44        72.26336
879.84        71.37937
880.24        71.22501
880.64        71.55757
881.04        72.20301
881.44        72.86369
881.84          73.405
882.24        73.94719
882.65        74.32594
883.05        74.38963
883.45        74.08079
883.85        73.45638
884.25         72.8425
884.65        72.76385
885.05          73.307
885.45        74.28949
885.85        75.41734
886.25        76.17159
886.65        76.35262
887.05        76.10543
887.45        75.48515
887.85        74.61265
888.25         73.6431
888.65        72.62663
889.04        71.72053
889.44        71.19327
889.84        71.02117
890.24        71.15667
890.64        71.53072
891.04        71.95461
891.44        72.32063
891.84        72.65927
892.24        72.90939
892.64        73.02261
893.04        73.01282
893.44        72.86011
893.83        72.74184
894.23        72.89719
894.63        73.39799
895.03        74.17409
895.43        74.94678
895.83        75.29256
896.23        75.11947
896.63        74.50842
897.02        73.77895
897.42        73.52237
897.82         73.8485
898.22        74.63181
898.62        75.40293
899.01         75.3938
899.41        74.45695
899.81        72.87718
900.21        71.30055
900.61        70.70625
901.00        71.28396
901.40        72.71157
901.80        74.34862
902.20        75.13528
902.59        74.78663
902.99        73.65293
903.39        72.25585
903.79        71.37656
904.18        71.23152
904.58         71.5944
904.98        72.18299
905.38        72.58463
905.77        72.64789
906.17        72.51061
906.57        72.33837
906.96        72.40199
907.36        72.72092
907.76         73.2066
908.15        73.62043
908.55        73.47076
908.95        72.74877
909.34        71.63729
909.74        70.60847
910.14        70.23203
910.53        70.67581
910.93        71.72248
911.33          73.112
911.72        74.43805
912.12        75.43513
912.52         76.1805
912.91        76.71282
913.31        77.09393
913.70        77.33923
914.10        77.36433
914.49        77.06422
914.89        76.29301
915.29        75.11917
915.68        73.69476
916.08        72.37743
916.47        71.56332
916.87         71.4034
917.26        71.74371
917.66        72.42427
918.05         73.1793
918.45        73.82555
918.84        74.46778
919.24        74.92982
919.64        75.07659
920.03        74.90647
920.42        74.41634
920.82        73.86838
921.21        73.59766
921.61         73.6935
922.00        74.08127
922.40        74.59203
922.79        75.00053
923.19        75.18902
923.58        75.26385
923.98        75.23778
924.37        75.14472
924.77        75.00293
925.16        74.77672
925.55         74.5553
925.95        74.50183
926.34        74.65565
926.74        74.97123
927.13        75.25906
927.52        75.16534
927.92        74.64468
928.31        73.80199
928.70        72.92555
929.10        72.46729
929.49         72.5387
929.89        72.97187
930.28        73.55945
930.67        73.85468
931.07         73.7275
931.46        73.36117
931.85        72.88105
932.24        72.47207
932.64        72.22932
933.03        72.10525
933.42        72.17877
933.82        72.57533
934.21        73.29693
934.60        74.22683
934.99        75.22469
935.39        76.03081
935.78        76.59441
936.17         76.9421
936.56        76.88303
936.96        76.19019
937.35        74.94408
937.74        73.31225
938.13        71.84702
938.53        71.23438
938.92        71.53765
939.31        72.64035
939.70        74.05743
940.09         74.8232
940.49        74.61345
940.88        73.69939
941.27        72.61356
941.66        72.16889
942.05        72.55088
942.44        73.55473
942.84        74.66649
943.23        75.05221
943.62        74.43421
944.01        73.09829
944.40        71.75067
944.79         71.4103
945.18        72.26751
945.57        74.02503
945.97        75.86939
946.36        76.63254
946.75        75.88776
947.14        74.04774
947.53        71.98038
947.92         70.9854
948.31        71.38798
948.70        72.83672
949.09        74.63046
949.48        75.50315
949.87        75.06776
950.26         73.7392
950.65        72.25052
951.04        71.60583
951.43        72.03153
951.82        73.25182
952.21        74.66135
952.60        75.18195
952.99        74.51456
953.38        73.02306
953.77        71.50664
954.16        71.01949
954.55        71.75913
954.94        73.50526
955.33        75.48019
955.72        76.03494
956.11        74.66917
956.50        72.00681
956.89        69.29653
957.28        68.13362
957.66        68.85699
958.05        70.94691
958.44        73.58791
958.83        75.09483
959.22        74.85728
959.61        73.45176
960.00        71.69975
960.39        70.64463
960.78        70.49649
961.16         70.9342
961.55        71.54987
961.94        71.68391
962.33        71.13206
962.72        70.26991
963.11        69.39481
963.49         68.8446
963.88        68.71175
964.27        68.83719
964.66        69.26014
965.04        70.11449
965.43        71.26051
965.82        72.67479
966.21        73.98985
966.60        74.53542
966.98        74.19273
967.37        73.23515
967.76        72.08575
968.15         71.3266
968.53         71.0834
968.92        71.12543
969.31        71.50555
969.69        72.31296
970.08        73.41696
970.47        74.93655
970.86        76.23253
971.24        76.21788
971.63        74.71553
972.02        72.10457
972.40        69.55969
972.79        68.93015
973.17        70.50907
973.56        73.63831
973.95        77.20268
974.33        79.07777
974.72        78.52375
975.11        76.25779
975.49        73.34359
975.88        71.73554
976.26        71.93474
976.65        73.29256
977.04        75.19766
977.42         76.5345
977.81        76.72659
978.19        76.28583
978.58        75.45946
978.96         74.4921
979.35        73.61238
979.74        72.71027
980.12        72.10094
980.51        72.32184
980.89        73.50913
981.28        75.36493
981.66        77.58651
982.05        79.32021
982.43        80.37618
982.82        80.86922
983.20        80.71103
983.59        79.72624
983.97        78.08893
984.35        75.89622
984.74        74.01388
985.12        73.60704
985.51        74.77139
985.89        77.30844
986.28        80.07427
986.66        81.47313
987.04        80.87842
987.43        78.75662
987.81        76.00726
988.20        74.53206
988.58        74.81709
988.96        76.36945
989.35         78.0344
989.73        78.16711
990.12        76.31458
990.50        73.18467
990.88        69.76738
991.27        67.62633
991.65        67.18524
992.03        68.01414
992.42        69.59511
992.80        71.45348
993.18        73.23161
993.56        75.06371
993.95        76.74139
994.33        77.98961
994.71        78.58524
995.10        78.59942
995.48         78.1137
995.86         77.4118
996.24        76.64161
996.63        75.64243
997.01        74.89938
997.39        75.04855
997.77        76.15341
998.15        78.04021
998.54        79.81213
998.92        80.06233
999.30        78.48339
999.68        75.44707
1000.06          71.941
1000.45        69.86097
1000.83         69.9662
1001.21        71.77094
1001.59        74.49523
1001.97        76.79025
1002.35        78.15043
1002.73        78.91357
1003.12        79.29384
1003.50        79.55594
1003.88        79.85332
1004.26        80.03273
1004.64         80.0192
1005.02        79.79156
1005.40        79.37666
1005.78        78.83889
1006.16          78.395
1006.54        78.29078
1006.92         78.5443
1007.30        79.12823
1007.69        79.64516
1008.07        79.42408
1008.45        78.20909
1008.83        76.23437
1009.21        74.16212
1009.59         73.0898
1009.97        73.31633
1010.35        74.50559
1010.73        76.17033
1011.11        77.48414
1011.49         78.1358
1011.86        78.41136
1012.24        78.24463
1012.62        77.76138
1013.00        77.03644
1013.38        75.96104
1013.76        74.77819
1014.14        74.08794
1014.52        74.09293
1014.90        74.69454
1015.28        75.49503
1015.66        75.76697
1016.04         75.3787
1016.41        74.70225
1016.79        73.93178
1017.17         73.5519
1017.55        73.75705
1017.93        74.22668
1018.31         75.1385
1018.69        76.95195
1019.06         79.9546
1019.44        84.37389
1019.82        89.87257
1020.20        93.49816
1020.58        92.95904
1020.95        88.92867
1021.33        83.89064
1021.71        80.12728
1022.09        77.70717
1022.46        75.83235
1022.84        74.33225
1023.22        72.47269
1023.60        70.56194
1023.97        69.45676
1024.35        69.26859
1024.73        69.84338
