SpectraSmart Spectrum 2.9.0.0
--------- Device Information -----------
Spectrum Name :  反射率_0
Saving Time :  2024/04/30 00:58:42
Spectro-Module Model Name : SE2030-DUVN
Spectro-Module Serial Number : OS361AC55029948
Wavelength Start : 200
Wavelength End : 1025
Wavelength Unit : Wavelength(nm)
Spectrum Unit : Reflectance(%)
-----------Spectrum Setting ------------
Integration Time : 20ms
Average : 10
Boxcar : 0
Background removal :  enabled
linearity correction :  enabled
SC :  disabled
Intensity correction :  disabled
DWT denoise :  enabled
savitzky-golay :  disabled
FFT :  disabled
Running average :  disabled
Kalman :  disabled
High pass :  disabled
---------------BEGIN--------------------
Wavelength(nm)             Reflectance(%)
200.29               0
200.75        50.35378
201.21        42.57769
201.67        34.34229
202.13        27.34394
202.58        22.61976
203.04        20.09898
203.50        21.41114
203.96        29.68763
204.42        44.61235
204.88        63.61746
205.34        79.01162
205.80        80.77415
206.26         71.0909
206.72        57.48537
207.18        44.93974
207.64        35.79563
208.10        29.25924
208.55        23.55452
209.01        19.53222
209.47        20.22563
209.93        25.29827
210.39        32.76532
210.85        39.12685
211.31        41.60314
211.77        40.16746
212.23        34.61081
212.69        26.10684
213.14        22.45781
213.60        27.06284
214.06        35.69985
214.52         43.0373
214.98        45.64322
215.44        44.29915
215.90         40.6961
216.36        36.64083
216.81        35.52022
217.27        39.31211
217.73        47.66589
218.19        60.77584
218.65        73.95416
219.11        81.07484
219.57        81.94719
220.02        78.92628
220.48        74.83459
220.94        69.51232
221.40        61.63196
221.86        51.12736
222.32        42.60501
222.77        39.91111
223.23        41.73253
223.69        44.59195
224.15         46.2002
224.61        46.62976
225.06        46.50075
225.52        46.74414
225.98        48.46936
226.44        51.32662
226.90        54.19174
227.36        56.33152
227.81        57.52236
228.27        58.05805
228.73        58.02843
229.19        57.81592
229.65        58.05033
230.10        58.69632
230.56        59.57435
231.02        60.01598
231.48        59.42265
231.93        57.75775
232.39        55.28368
232.85        52.62109
233.31        51.07121
233.77        51.05108
234.22         52.3727
234.68         54.0015
235.14        54.06842
235.60        52.20258
236.05        49.12379
236.51        46.29301
236.97        45.53521
237.43        47.29863
237.88        51.52136
238.34        57.42379
238.80         62.3686
239.26        64.12065
239.71        63.08285
240.17         60.3402
240.63         57.8077
241.08        56.00438
241.54        54.13081
242.00        52.22937
242.46        51.52586
242.91        53.61987
243.37        58.15586
243.83        63.74207
244.28        69.34193
244.74        74.86382
245.20        80.33846
245.66        84.15252
246.11        82.68151
246.57        74.61121
247.03        61.36449
247.48         45.8437
247.94        36.10364
248.40        35.19128
248.85        38.82534
249.31        44.32708
249.77        50.59461
250.22         58.6034
250.68         71.1758
251.14        88.04332
251.59        95.59897
252.05        85.84563
252.51        70.03131
252.96        58.17313
253.42        53.41026
253.88        53.30429
254.33        55.74946
254.79        59.38217
255.25        60.71296
255.70        59.14705
256.16        57.09716
256.62        55.38771
257.07        54.35239
257.53        54.20898
257.99        54.44587
258.44        54.80267
258.90        55.57782
259.35        56.18648
259.81        56.76734
260.27        57.12178
260.72        57.14861
261.18        57.05256
261.63        56.64498
262.09        56.00806
262.55        54.92397
263.00        53.46407
263.46        52.00303
263.91         50.5881
264.37        49.54594
264.83        48.79845
265.28        48.19401
265.74         47.8218
266.19        47.58026
266.65        47.49302
267.11        47.52133
267.56        47.52034
268.02        47.30036
268.47        46.79613
268.93        46.04012
269.38        45.16647
269.84        44.53099
270.30        44.19351
270.75        44.06264
271.21        43.89635
271.66        43.29442
272.12        42.21789
272.57        40.79042
273.03        39.34911
273.48         38.3326
273.94        37.89721
274.39        37.82659
274.85        37.90129
275.31        37.73006
275.76        37.20806
276.22        36.49947
276.67        35.70879
277.13        35.08983
277.58        34.64025
278.04        34.32082
278.49        33.98341
278.95        33.53202
279.40        32.90895
279.86        32.24995
280.31        31.60486
280.77        31.16662
281.22        30.91676
281.68        30.81145
282.13          30.765
282.59        30.72498
283.04        30.62929
283.50        30.49278
283.95         30.2588
284.41        29.86412
284.86        29.31166
285.32        28.69178
285.77        28.04814
286.22        27.51747
286.68        27.14429
287.13         26.8538
287.59         26.6892
288.04        26.64967
288.50        26.72388
288.95        26.86573
289.41         26.9735
289.86        26.85179
290.32        26.50352
290.77        25.98955
291.22        25.44788
291.68        25.10232
292.13        25.00558
292.59        25.11033
293.04        25.37896
293.50        25.77932
293.95        26.27335
294.40        26.87839
294.86          27.496
295.31        27.98592
295.77        28.31747
296.22        28.50797
296.68        28.68656
297.13        29.04263
297.58        29.62059
298.04         30.3315
298.49        31.04652
298.95        31.55926
299.40         31.8215
299.85        31.91176
300.31        31.93064
300.76         31.9746
301.21        32.10643
301.67        32.29432
302.12        32.50208
302.58        32.81561
303.03        33.21765
303.48        33.57067
303.94        33.80093
304.39        34.47914
304.84        34.43432
305.30        34.61546
305.75        34.72246
306.20         34.8999
306.66        35.16486
307.11        35.46702
307.57        35.75293
308.02        35.86756
308.47        35.80556
308.93        35.62558
309.38        35.39759
309.83        35.28012
310.29         35.3104
310.74        35.43784
311.19         35.5791
311.65        35.59826
312.10        35.46125
312.55        35.21521
313.00        34.95176
313.46        34.81036
313.91        34.80758
314.36        34.89786
314.82        34.98799
315.27        34.95195
315.72        34.74842
316.18        34.43214
316.63        34.06327
317.08        33.74611
317.53        33.52164
317.99        33.37184
318.44        33.26919
318.89        33.17396
319.35        33.07126
319.80         32.9706
320.25        32.90169
320.70        32.91065
321.16        32.98458
321.61        33.11037
322.06        33.20413
322.51         33.1432
322.97        32.90268
323.42        32.53276
323.87        32.11659
324.32        31.79058
324.78         31.5875
325.23        31.48911
325.68        31.45233
326.13        31.40418
326.59        31.31347
327.04        31.21778
327.49        31.12411
327.94        31.05551
328.39         31.0107
328.85        30.95215
329.30        30.88565
329.75        30.78015
330.20        30.63194
330.66        30.45752
331.11        30.26345
331.56        30.03089
332.01        29.76971
332.46        29.48771
332.92        29.23639
333.37        29.13927
333.82        29.20756
334.27         29.4036
334.72        29.63488
335.17        29.74428
335.63        29.68131
336.08        29.50159
336.53        29.24492
336.98        29.00335
337.43        28.81995
337.88         28.6678
338.34        28.56791
338.79        28.57438
339.24        28.67863
339.69        28.87749
340.14        29.09082
340.59        29.17862
341.05        29.10922
341.50        28.91268
341.95        28.68172
342.40        28.57513
342.85        28.62651
343.30        28.78269
343.75        28.94697
344.20        28.96733
344.66        28.81668
345.11        28.54167
345.56        28.22737
346.01        28.00174
346.46        27.90851
346.91         27.9144
347.36        27.97154
347.81         28.0095
348.26        28.00544
348.72        27.97221
349.17         27.9467
349.62        27.98496
350.07        28.08931
350.52        28.23114
350.97        28.34085
351.42        28.31635
351.87         28.1506
352.32        27.89341
352.77        27.62761
353.22        27.48657
353.67        27.50352
354.13        27.62234
354.58        27.80374
355.03        27.98557
355.48        28.12351
355.93        28.22429
356.38         28.2304
356.83        28.05552
357.28        27.70352
357.73        27.21572
358.18        26.69005
358.63        26.28367
359.08        26.04178
359.53         25.9254
359.98        25.89351
360.43        25.87104
360.88         25.8265
361.33         25.7822
361.78        25.72129
362.23        25.61583
362.68        25.46502
363.13        25.26857
363.58          25.062
364.03        24.91036
364.48        24.82511
364.93        24.78459
365.38        24.75553
365.83        24.68234
366.28        24.55005
366.73        24.38057
367.18        24.18585
367.63        23.98275
368.08        23.78233
368.53        23.58081
368.98        23.39692
369.43        23.26065
369.88        23.17834
370.33        23.14638
370.78        23.13567
371.23        23.09662
371.68        23.01272
372.13        22.88678
372.58         22.7478
373.03        22.64661
373.48        22.58865
373.93        22.55409
374.38        22.49289
374.83        22.32722
375.28         22.0513
375.72        21.69841
376.17        21.35296
376.62        21.09012
377.07        20.92797
377.52        20.83944
377.97        20.80217
378.42        20.77891
378.87        20.75346
379.32        20.73741
379.77        20.71823
380.22        20.67749
380.67        20.60963
381.11        20.50661
381.56        20.39384
382.01        20.31623
382.46        20.28454
382.91        20.29386
383.36         20.2961
383.81        20.21586
384.26        20.04443
384.71        19.80484
385.15        19.56849
385.60        19.47345
386.05        19.52828
386.50        19.68571
386.95        19.84734
387.40         19.8597
387.85          19.698
388.29         19.4125
388.74        19.11642
389.19        18.90199
389.64        18.79239
390.09        18.74536
390.54        18.74501
390.98        18.76416
391.43        18.79147
391.88        18.83544
392.33        18.85672
392.78        18.81546
393.23        18.71424
393.67        18.52209
394.12        18.31219
394.57        18.31391
395.02        18.27315
395.47        18.37365
395.91        18.48237
396.36        18.49582
396.81        18.39788
397.26        18.23359
397.71        18.05305
398.15        17.92036
398.60        17.87775
399.05         17.8585
399.50        17.85493
399.95        17.93828
400.39         18.0063
400.84        18.05511
401.29        18.04136
401.74        17.99818
402.18        17.92551
402.63        17.78447
403.08        17.62831
403.53        17.55345
403.97        17.57526
404.42        17.66811
404.87        17.77348
405.32        17.79465
405.76        17.70511
406.21        17.54262
406.66        17.36714
407.11         17.2742
407.55        17.29311
408.00        17.39521
408.45        17.52083
408.90        17.56136
409.34        17.48769
409.79        17.33208
410.24        17.18503
410.68        17.18211
411.13        17.34828
411.58        17.63975
412.03         17.9411
412.47        18.05721
412.92        17.93068
413.37        17.63948
413.81        17.30753
414.26        17.14413
414.71        17.18066
415.15        17.35843
415.60        17.58106
416.05        17.70604
416.49        17.68828
416.94        17.58003
417.39        17.42874
417.83        17.30341
418.28        17.23546
418.73        17.19525
419.17        17.18705
419.62        17.22254
420.07        17.29528
420.51        17.40402
420.96        17.51674
421.41         17.5696
421.85        17.54627
422.30        17.47993
422.74        17.39947
423.19        17.38078
423.64         17.4296
424.08        17.53023
424.53        17.64091
424.98        17.71858
425.42         17.7483
425.87        17.73194
426.31        17.67563
426.76        17.61602
427.21        17.50778
427.65         17.3816
428.10        17.25596
428.54        17.13958
428.99        17.05739
429.44        17.10846
429.88        17.23337
430.33        17.14538
430.77        16.93523
431.22        17.09767
431.66         17.5885
432.11        17.84618
432.56        17.78337
433.00        17.75087
433.45        17.74721
433.89        17.41278
434.34        16.95862
434.78        17.04145
435.23        17.54084
435.67        17.70664
436.12        17.49443
436.57         17.3203
437.01        17.26613
437.46        17.28706
437.90        17.40086
438.35        17.60806
438.79         17.8306
439.24        17.91727
439.68        17.86374
440.13        17.78216
440.57        17.69422
441.02         17.6323
441.46        17.61661
441.91        17.54419
442.35        17.44074
442.80        17.65302
443.24        18.04247
443.69        17.93497
444.13        17.41966
444.58        17.21409
445.02        17.33115
445.47        17.40343
445.91        17.39088
446.36        17.41373
446.80        17.45757
447.24        17.49686
447.69        17.53969
448.13        17.59713
448.58        17.66961
449.02        17.74776
449.47        17.82237
449.91        17.86946
450.36        17.88688
450.80         17.8817
451.25        17.86017
451.69        17.82791
452.13        17.78928
452.58        17.75232
453.02        17.72224
453.47        17.70511
453.91        17.69678
454.36        17.74545
454.80        17.75483
455.24        17.77496
455.69        17.77823
456.13        17.76411
456.58        17.74362
457.02        17.71797
457.46        17.69505
457.91        17.67559
458.35        17.65454
458.79        17.63322
459.24        17.62361
459.68        17.63459
460.13        17.67561
460.57        17.68027
461.01        17.78242
461.46        17.80346
461.90        17.80357
462.34          17.982
462.79        18.25475
463.23        18.23162
463.68        17.95981
464.12        17.84934
464.56        17.92023
465.01        17.97312
465.45        17.96816
465.89        17.92648
466.34        17.87499
466.78        17.89712
467.22        18.01717
467.67        17.98541
468.11        17.81363
468.55        17.59879
468.99        17.42076
469.44        17.35663
469.88        17.42667
470.32        17.61363
470.77        17.83717
471.21        17.97913
471.65        17.99944
472.10        17.93779
472.54        17.85088
472.98          17.847
473.42         17.9479
473.87        18.11295
474.31        18.28123
474.75        18.36624
475.20         18.3542
475.64        18.27385
476.08        18.17225
476.52        18.11512
476.97        18.12155
477.41        18.16537
477.85        18.23381
478.29        18.30511
478.74        18.37388
479.18         18.4375
479.62        18.48069
480.06        18.52197
480.50        18.57289
480.95        18.46382
481.39        18.50239
481.83        18.54882
482.27        18.70441
482.72        18.79047
483.16        19.02929
483.60        19.14557
484.04        19.18989
484.48        19.19566
484.93        19.20638
485.37        19.19827
485.81        19.11566
486.25        19.27749
486.69        18.88032
487.14        18.93289
487.58        19.47189
488.02        19.64985
488.46        19.91023
488.90        20.34221
489.34        19.82127
489.79        19.98629
490.23        19.92196
490.67        20.13324
491.11        20.37037
491.55        20.38865
491.99         20.2485
492.43         20.3128
492.88         20.5991
493.32         20.8623
493.76        21.05799
494.20        21.25729
494.64        21.45368
495.08        21.61687
495.52        21.73598
495.96        21.85221
496.41        21.97857
496.85        21.98637
497.29        21.91543
497.73        22.20297
498.17        22.50989
498.61        22.53294
499.05         22.2473
499.49        22.17498
499.93        22.35444
500.37        22.55066
500.82         22.7204
501.26        22.87294
501.70         22.9898
502.14        23.08889
502.58        23.18469
503.02        23.28332
503.46        23.39058
503.90        23.50589
504.34        23.62376
504.78         23.7333
505.22        23.83044
505.66        23.91555
506.10        23.98307
506.54        24.05103
506.98        24.12645
507.42        24.15746
507.86        24.13083
508.30        24.29981
508.74        24.22253
509.18        24.25614
509.62        24.28307
510.06        24.33731
510.50        24.41887
510.94        24.52691
511.38        24.63618
511.82        24.69162
512.26          24.684
512.70        24.62941
513.14        24.56863
513.58        24.56497
514.02         24.6333
514.46        24.75598
514.90        24.89466
515.34        24.98601
515.78        25.01185
516.22        24.98873
516.66        24.95121
517.10        24.95422
517.54          25.008
517.98        25.09092
518.42        25.16582
518.86        25.17462
519.30        25.10616
519.74        24.98616
520.18        24.84972
520.62        24.74745
521.06        24.69693
521.50        24.68637
521.93        24.70615
522.37        24.73204
522.81         24.7557
523.25        24.77846
523.69        24.80131
524.13        24.82578
524.57        24.84837
525.01        24.86329
525.45        24.85389
525.89        24.79755
526.32        24.69084
526.76        24.55187
527.20        24.40806
527.64        24.30146
528.08        24.24275
528.52        24.22271
528.96        24.22081
529.40         24.2028
529.83        24.15717
530.27        24.09493
530.71        24.02964
531.15        23.98615
531.59         23.9678
532.03        23.96347
532.46        23.95188
532.90        23.90888
533.34        23.83135
533.78        23.73736
534.22        23.64518
534.66        23.58102
535.09        23.54986
535.53        23.54528
535.97        23.56744
536.41        23.62311
536.85        23.70413
537.28        23.80468
537.72        23.88846
538.16        23.90023
538.60        23.83375
539.04        23.71284
539.47        23.57652
539.91        23.50794
540.35        23.52081
540.79        23.59915
541.22        23.72089
541.66        23.85222
542.10        23.97652
542.54        24.10469
542.97        24.23667
543.41        24.37514
543.85        24.51886
544.29        24.66585
544.72        24.80206
545.16        24.92656
545.60        25.03775
546.04         25.1289
546.47        25.22185
546.91        25.38853
547.35        25.61784
547.79        25.81624
548.22        25.96149
548.66        26.15973
549.10        26.41388
549.53        26.58043
549.97        26.62639
550.41        27.04859
550.84        27.03643
551.28        27.20037
551.72        27.28118
552.15         27.4907
552.59          27.488
553.03        27.55773
553.46        27.62822
553.90        27.73946
554.34        27.89087
554.77        28.09936
555.21        28.32972
555.65        28.44837
556.08        28.46596
556.52        28.53696
556.96        28.66857
557.39        28.80452
557.83        28.93978
558.27        29.04635
558.70        29.13996
559.14        29.28259
559.57        29.44796
560.01        29.59981
560.45        29.71068
560.88        29.65428
561.32        29.62071
561.75        29.62564
562.19        29.72812
562.63        29.81278
563.06        29.87553
563.50        30.00256
563.93        30.15954
564.37        30.27885
564.80         30.3422
565.24        30.37764
565.68        30.40331
566.11        30.46843
566.55        30.58273
566.98        30.68506
567.42        30.80459
567.85        30.92558
568.29        31.04434
568.72        31.26388
569.16        31.61858
569.60         31.4628
570.03        31.76024
570.47        31.95837
570.90        31.98872
571.34        32.10454
571.77         32.2528
572.21        32.39278
572.64        32.51899
573.08        32.62806
573.51          32.741
573.95        32.68034
574.38        33.23124
574.82        32.75505
575.25        33.08988
575.69        33.10664
576.12        33.03188
576.56        33.18424
576.99          33.317
577.42        33.19713
577.86        33.25808
578.29        33.11952
578.73        33.00164
579.16        33.01027
579.60        33.07732
580.03        32.87343
580.47        32.90199
580.90        32.80962
581.33        32.72971
581.77        32.76184
582.20        32.30298
582.64        32.36658
583.07        31.92566
583.51        31.83216
583.94        31.94672
584.37        31.88246
584.81        31.64989
585.24        31.72893
585.68        31.92001
586.11        31.72796
586.54        31.30639
586.98        31.41239
587.41        31.97271
587.85        31.61995
588.28        31.40176
588.71        31.50615
589.15        31.21161
589.58        31.48353
590.01        31.27082
590.45        31.26567
590.88        31.29747
591.31        31.41028
591.75        31.52648
592.18        31.71147
592.61        31.96723
593.05        31.30803
593.48        31.54415
593.91         31.4507
594.35        31.50922
594.78        31.62438
595.21        31.74509
595.65        31.97824
596.08        31.59851
596.51        32.15813
596.94        32.51311
597.38        32.91251
597.81        33.03099
598.24        33.02391
598.68        33.31315
599.11        33.47855
599.54        33.93204
599.97        34.34977
600.41         34.1436
600.84        34.70296
601.27        34.91158
601.70        35.39539
602.14        35.81639
602.57        36.12289
603.00        36.31728
603.43        36.63551
603.87        37.01515
604.30        37.47528
604.73        37.90522
605.16         38.3945
605.60         38.8756
606.03        39.35332
606.46        39.74064
606.89         40.0314
607.32        40.24437
607.76        40.51794
608.19         40.9054
608.62         41.1258
609.05        41.17651
609.48        42.12898
609.92        42.26749
610.35        42.65185
610.78        43.07493
611.21        42.87422
611.64        43.13117
612.07         43.6934
612.50        44.00132
612.94        44.25943
613.37        44.75685
613.80        44.86074
614.23        45.32056
614.66        45.55626
615.09        45.75451
615.52        46.03534
615.96         46.3591
616.39        46.46659
616.82        46.22854
617.25        46.67953
617.68        46.87605
618.11        47.29361
618.54        47.58637
618.97        47.72899
619.40        47.76566
619.84        47.89468
620.27        48.18076
620.70        48.44881
621.13        48.62155
621.56        48.70427
621.99        49.10218
622.42        48.56781
622.85        48.91417
623.28        49.13569
623.71        49.41624
624.14        48.52789
624.57        49.11607
625.00        49.03947
625.43        49.10129
625.86        48.86163
626.29        48.92275
626.72        48.84198
627.15        48.71053
627.58        48.59922
628.01         48.4762
628.44        48.24815
628.87        47.96137
629.30        47.76467
629.73        47.80267
630.16        47.65503
630.59        47.34674
631.02        47.13481
631.45        46.81797
631.88        46.51612
632.31        46.16845
632.74        45.79697
633.17        45.40131
633.60        44.98854
634.03        44.56593
634.46        44.12888
634.89        43.69445
635.32        43.29387
635.75        42.93117
636.18        42.59429
636.61        42.26325
637.04        41.91149
637.47        41.54073
637.89        41.13497
638.32        40.68985
638.75        40.32292
639.18        40.06684
639.61        39.50663
640.04        39.36732
640.47        39.08589
640.90        38.87479
641.33        38.72075
641.76        38.60841
642.18         38.5005
642.61        38.36972
643.04        38.23206
643.47        38.12167
643.90        38.08224
644.33         38.1171
644.76        38.25996
645.18        38.44447
645.61        38.45726
646.04        38.24995
646.47        38.29571
646.90        38.55853
647.33        38.71603
647.75        38.75531
648.18         38.8886
648.61        39.13057
649.04        39.39301
649.47        39.67909
649.89        40.06508
650.32        40.51799
650.75        40.91362
651.18        41.27601
651.61        41.77996
652.03        42.38102
652.46        42.94854
652.89         43.4304
653.32        43.70228
653.74        43.77425
654.17        44.46424
654.60        44.00483
655.03        45.32369
655.46        45.01948
655.88        46.11845
656.31        47.62667
656.74        47.41594
657.16        47.00959
657.59        46.35761
658.02          47.271
658.45        48.78674
658.87        49.02129
659.30        49.24524
659.73        49.91568
660.15        50.08215
660.58        50.38894
661.01         50.6114
661.44        50.89469
661.86        50.80127
662.29        50.51022
662.72         50.8856
663.14        51.80563
663.57        52.05997
664.00        51.71192
664.42         51.7896
664.85         52.3429
665.27         52.7903
665.70        53.04987
666.13        53.28472
666.55        53.48606
666.98        53.60998
667.41        53.69613
667.83        53.79803
668.26        53.92426
668.69        54.08699
669.11        54.28053
669.54        54.45191
669.96        54.58482
670.39        54.85804
670.82        54.95831
671.24         55.1191
671.67        55.23822
672.09        55.32798
672.52        55.41523
672.94        55.59791
673.37        55.46046
673.80         55.9762
674.22        55.91488
674.65        56.23147
675.07        56.59383
675.50        56.99923
675.92        57.37821
676.35          57.615
676.77        57.70058
677.20        57.64869
677.62        57.54535
678.05         57.5298
678.47        57.63653
678.90         57.8383
679.32        58.05972
679.75        58.18598
680.17        58.18471
680.60        58.10514
681.02         58.0232
681.45        58.04152
681.87         58.1849
682.30        58.45755
682.72        58.79965
683.15        58.92677
683.57          58.898
684.00        59.09967
684.42        59.47816
684.85         59.6839
685.27        59.70882
685.70        59.62291
686.12        59.55104
686.54        59.95557
686.97        60.69692
687.39        61.05601
687.82        60.95685
688.24         60.9753
688.66        61.11734
689.09        61.00824
689.51        60.71977
689.94        60.60891
690.36        60.70829
690.78        60.81999
691.21        60.93596
691.63        61.22358
692.06        61.59236
692.48         61.7472
692.90         61.6625
693.33        61.68389
693.75        61.81317
694.17        61.86503
694.60        61.87362
695.02        61.93198
695.44        62.03392
695.87        62.40109
696.29        62.67987
696.71        62.69306
697.14        62.46917
697.56        62.52721
697.98        62.86945
698.41        63.06715
698.83         63.1053
699.25        63.24825
699.68        63.45128
700.10        63.55582
700.52        63.53241
700.94        63.44427
701.37        63.32388
701.79        63.23979
702.21         63.2103
702.64        63.22766
703.06        63.29795
703.48        63.44049
703.90        63.65277
704.33        63.93912
704.75         64.2291
705.17         64.4681
705.59        64.60734
706.01        64.65956
706.44        64.66405
706.86        64.66869
707.28        64.68311
707.70        64.78272
708.12        64.94746
708.55        64.92396
708.97          64.768
709.39        65.06149
709.81        65.40007
710.23        65.70225
710.66        65.81049
711.08        65.95879
711.50        66.12486
711.92        66.21922
712.34        66.24855
712.76        66.23265
713.19         66.1867
713.61        66.18123
714.03        66.21727
714.45        66.28814
714.87        66.38076
715.29        66.47349
715.71        66.55611
716.13        66.62569
716.56        66.67572
716.98        66.77966
717.40        66.91153
717.82        67.05741
718.24        67.16729
718.66        67.16563
719.08        67.04594
719.50        66.83948
719.92        66.62457
720.34        66.52452
720.76        66.57067
721.19        66.72115
721.61        66.92634
722.03         67.0751
722.45        67.13255
722.87        67.12668
723.29        67.09116
723.71        67.08252
724.13        67.11755
724.55        67.17464
724.97        67.23553
725.39          67.272
725.81        67.28313
726.23        67.29465
726.65        67.31995
727.07        67.37772
727.49        67.47139
727.91        67.57665
728.33        67.71336
728.75        67.91695
729.17        68.17779
729.59        68.48338
730.01         68.7301
730.43        68.76642
730.85        68.55301
731.27         68.1828
731.69        67.81329
732.10        67.70375
732.52        67.90357
732.94        68.33226
733.36        68.86723
733.78        69.24333
734.20        69.36536
734.62         69.4169
735.04        69.43353
735.46         69.2205
735.88        68.93636
736.30        69.12329
736.72        69.66988
737.13        69.93304
737.55        69.75852
737.97        69.39231
738.39        68.99291
738.81        68.67102
739.23        68.56614
739.65          68.942
740.06        69.55982
740.48        69.81269
740.90         69.6151
741.32        69.27012
741.74        68.94062
742.16        68.80618
742.57         68.9504
742.99        69.23476
743.41        69.57017
743.83        69.94231
744.25        70.23928
744.67        70.19808
745.08         69.9163
745.50        69.82056
745.92        69.97341
746.34        70.13702
746.75        70.27253
747.17         70.4183
747.59        70.55717
748.01        70.68672
748.42        70.79488
748.84        70.84589
749.26        70.84868
749.68        70.76247
750.09        70.61985
750.51        70.62215
750.93         70.7208
751.35        70.65125
751.76        70.45007
752.18        70.38932
752.60        70.48402
753.01         70.5887
753.43        70.66705
753.85         70.7562
754.27        70.86034
754.68        71.00114
755.10        71.14463
755.52        71.24352
755.93        71.26936
756.35        71.17383
756.77        71.09743
757.18        71.21641
757.60        71.55164
758.02         72.1289
758.43        73.12535
758.85         72.5731
759.26        71.00605
759.68        70.55656
760.10        71.28403
760.51        71.65198
760.93        71.54378
761.34        71.53619
761.76         72.0009
762.18        71.83555
762.59        71.29287
763.01        70.97192
763.42        70.97977
763.84        70.96627
764.26        70.96073
764.67        71.08312
765.09        71.33959
765.50        71.79374
765.92        72.31929
766.33        72.42487
766.75        72.04641
767.16        71.95285
767.58        71.99462
768.00        71.79003
768.41        71.40488
768.83        71.62883
769.24        72.25285
769.66        72.26672
770.07        71.75923
770.49        71.55299
770.90        71.70028
771.32        72.30901
771.73        72.49216
772.15        72.65553
772.56        72.53449
772.97        72.53759
773.39        72.24751
773.80        72.27711
774.22        72.48478
774.63        72.86827
775.05        73.25745
775.46        73.46669
775.88        73.41985
776.29        73.23319
776.70        72.97556
777.12        72.77847
777.53        72.68723
777.95        72.62888
778.36        72.67287
778.77        72.83821
779.19        73.09952
779.60        73.72686
780.02         74.4473
780.43        74.32848
780.84        73.57714
781.26        73.41796
781.67        73.91368
782.09        74.45029
782.50        74.78487
782.91        74.52941
783.33        73.77515
783.74        73.32732
784.15        73.25636
784.57        73.02925
784.98        72.71221
785.39        72.70213
785.81        73.02488
786.22        73.54943
786.63        74.15206
787.04        74.64524
787.46        74.95856
787.87        75.10278
788.28        75.15981
788.70        75.23106
789.11        75.33687
789.52        75.54894
789.93        75.74612
790.35        75.54916
790.76        75.03015
791.17        74.66357
791.58         74.5958
792.00        74.59814
792.41        74.69223
792.82         75.2591
793.23        76.07794
793.65        76.07294
794.06        75.43804
794.47        75.61198
794.88         76.4221
795.29        76.52053
795.71        75.84468
796.12         75.2079
796.53        74.85728
796.94        74.67307
797.35        75.08535
797.76        75.79723
798.18        76.63432
798.59        77.17561
799.00        77.27924
799.41        77.04345
799.82        76.62396
800.23        76.31638
800.64        76.22305
801.06        76.23267
801.47        76.32594
801.88        76.39865
802.29        76.40573
802.70        76.36744
803.11        76.32906
803.52        76.34979
803.93        76.46049
804.34        76.65913
804.75         76.8154
805.17        76.83641
805.58        76.75684
805.99        76.23891
806.40         75.5826
806.81        76.14276
807.22        77.58016
807.63        77.74786
808.04        76.73379
808.45        76.53421
808.86        77.25691
809.27        77.72005
809.68        77.75161
810.09        77.68011
810.50        77.48697
810.91        77.07155
811.32        76.64084
811.73        76.53008
812.14        76.80627
812.55        77.41344
812.96        78.09255
813.37        78.34381
813.78        78.04623
814.19        77.37831
814.60        76.64257
815.01        76.26722
815.42        76.34832
815.83        76.75384
816.24        77.31229
816.65        77.68554
817.05        77.74127
817.46        77.55991
817.87        77.27178
818.28          77.004
818.69        76.81437
819.10         76.6571
819.51        76.57072
819.92        76.63924
820.33        76.86315
820.74        77.20648
821.14        77.59126
821.55        77.89841
821.96        78.07973
822.37        78.16431
822.78        78.12506
823.19        77.93581
823.60        77.61567
824.00        77.17694
824.41        76.73677
824.82         76.5062
825.23        76.52393
825.64        76.75796
826.04        77.07261
826.45        77.12945
826.86        76.88115
827.27        76.42728
827.68        75.95932
828.08        75.80653
828.49        76.00423
828.90         76.4854
829.31        77.11834
829.72        77.67326
830.12        78.09117
830.53         78.3478
830.94        78.53471
831.35        78.76228
831.75        79.07523
832.16        79.34088
832.57        79.50917
832.97        79.46899
833.38        79.21255
833.79        78.85244
834.20        78.44759
834.60        78.04849
835.01        77.72568
835.42        77.44055
835.82        77.33733
836.23        77.57751
836.64        78.18714
837.04        79.13828
837.45        80.05241
837.86        80.45644
838.26        80.22498
838.67        79.50391
839.08        78.60712
839.48        78.01315
839.89        77.89691
840.29        78.10677
840.70        78.50182
841.11        78.86697
841.51        79.14009
841.92        79.35873
842.33        79.53895
842.73        79.67832
843.14        79.72941
843.54        79.70787
843.95        79.64484
844.35        79.67413
844.76        79.79113
845.17        79.94377
845.57        80.09216
845.98        80.13023
846.38        80.04934
846.79        79.88629
847.19        79.60951
847.60        79.11344
848.00        78.45271
848.41        77.69781
848.81        77.08049
849.22        76.93728
849.62        77.35815
850.03        78.19128
850.43        79.26154
850.84        80.02247
851.24        80.35234
851.65        80.26936
852.05        79.93282
852.46        79.57172
852.86        79.26932
853.27        79.04176
853.67        78.77298
854.07        78.50352
854.48        78.17863
854.88        77.85032
855.29        77.52219
855.69        77.42605
856.10        77.51139
856.50        77.82608
856.90        78.15419
857.31        78.22307
857.71        78.02496
858.12        77.58571
858.52           77.14
858.92        77.02123
859.33        77.29151
859.73        77.90324
860.13        78.60342
860.54        78.99178
860.94        79.00485
861.34        78.65356
861.75        78.11824
862.15         77.7797
862.55        77.70745
862.96        77.83633
863.36        77.87409
863.76        77.38362
864.17        76.35227
864.57        74.99076
864.97         73.7281
865.38         73.1509
865.78        73.41865
866.18        74.33716
866.58        75.61255
866.99        76.60447
867.39        77.09026
867.79        77.19981
868.19        77.01346
868.60        76.66504
869.00        76.24898
869.40        75.69673
869.80        75.25362
870.21        75.35318
870.61        76.09652
871.01         77.3174
871.41        78.56258
871.81        79.09387
872.22        78.73173
872.62         77.6901
873.02        76.35934
873.42        75.40768
873.82        75.07304
874.22        75.21805
874.63        75.59106
875.03         75.7965
875.43        75.72717
875.83         75.4828
876.23        75.34708
876.63        75.76929
877.03        76.79076
877.44        78.17898
877.84        79.46588
878.24        79.80772
878.64        79.07511
879.04        77.62911
879.44         76.0358
879.84        75.11898
880.24        75.06644
880.64        75.58281
881.04        76.47082
881.44         77.3907
881.84        78.17606
882.24        78.96819
882.65        79.49393
883.05        79.42848
883.45        78.70709
883.85        77.45648
884.25        76.24323
884.65        75.94827
885.05        76.71409
885.45        78.24966
885.85        80.03661
886.25        81.15366
886.65        81.28904
887.05        80.73317
887.45        79.67751
887.85        78.48583
888.25        77.40235
888.65         76.3629
889.04        75.55784
889.44        75.33081
889.84        75.63965
890.24         76.4575
890.64        77.48006
891.04        78.02972
891.44        77.89252
891.84         77.2802
892.24        76.56055
892.64        76.25523
893.04        76.47076
893.44        77.02786
893.83        77.80511
894.23        78.50061
894.63        79.01125
895.03        79.41908
895.43        79.70212
895.83        79.82617
896.23        79.79877
896.63        79.58431
897.02        79.27576
897.42        79.10883
897.82        79.11388
898.22        79.28024
898.62        79.42871
899.01        79.25363
899.41        78.70045
899.81        77.89404
900.21        77.12907
900.61        76.85039
901.00        77.13934
901.40        77.85275
901.80        78.66227
902.20        79.03049
902.59        78.81171
902.99        78.16377
903.39        77.38518
903.79         76.9223
904.18        76.88827
904.58        77.18077
904.98        77.56349
905.38        77.69089
905.77        77.45677
906.17        76.96209
906.57        76.46058
906.96        76.37164
907.36        76.74927
907.76        77.51299
908.15        78.28224
908.55        78.29635
908.95         77.4909
909.34        76.10657
909.74        74.84393
910.14        74.64185
910.53        75.70763
910.93        77.66605
911.33        79.95171
911.72        81.67329
912.12        82.44055
912.52        82.49956
912.91        82.12096
913.31        81.76594
913.70        81.62968
914.10        81.53942
914.49        81.36107
914.89        80.89297
915.29        80.13997
915.68        79.25182
916.08        78.49851
916.47        78.12332
916.87        78.22506
917.26        78.65993
917.66        79.27173
918.05        79.83601
918.45        80.19646
918.84        80.46037
919.24        80.51986
919.64        80.36697
920.03        80.03987
920.42        79.52035
920.82        79.00639
921.21        78.70821
921.61        78.68213
922.00        78.89145
922.40        79.19755
922.79        79.43806
923.19        79.51832
923.58        79.51827
923.98        79.45509
924.37        79.37111
924.77        79.28124
925.16        79.15745
925.55         79.0532
925.95        79.06605
926.34        79.22735
926.74        79.50739
927.13        79.77426
927.52        79.77308
927.92        79.46729
928.31        78.90789
928.70         78.3165
929.10        78.04167
929.49        78.15955
929.89         78.5322
930.28        78.95061
930.67        78.96237
931.07        78.47881
931.46        77.71889
931.85        76.90074
932.24        76.33759
932.64        76.14607
933.03        76.24155
933.42        76.64522
933.82        77.37003
934.21         78.3611
934.60        79.50253
934.99        80.62373
935.39         81.4313
935.78        81.87155
936.17        81.96545
936.56        81.56466
936.96        80.53438
937.35        79.01064
937.74        77.18433
938.13        75.59029
938.53        74.86605
938.92        75.06068
939.31        76.06161
939.70        77.45021
940.09        78.37558
940.49        78.51254
940.88        78.06483
941.27        77.39917
941.66        77.11075
942.05        77.34994
942.44        77.96675
942.84        78.59379
943.23        78.69433
943.62        78.09064
944.01        76.99229
944.40        75.97169
944.79        75.84231
945.18        76.74114
945.57         78.4333
945.97        80.17937
946.36        80.94333
946.75        80.32506
947.14        78.67144
947.53        76.77887
947.92        75.85018
948.31        76.19031
948.70        77.49747
949.09        79.10313
949.48        79.79786
949.87        79.23615
950.26        77.82083
950.65        76.32157
951.04        75.79939
951.43        76.46993
951.82        78.02672
952.21        79.77615
952.60        80.46476
952.99        79.74078
953.38        78.04053
953.77        76.22692
954.16        75.42809
954.55        75.87943
954.94        77.34887
955.33        79.14646
955.72        79.80369
956.11        78.83949
956.50        76.76709
956.89        74.68686
957.28        74.02332
957.66        75.08727
958.05        77.41975
958.44        80.12716
958.83        81.39772
959.22        80.65882
959.61        78.56617
960.00        76.23248
960.39        75.07665
960.78        75.35362
961.16        76.66978
961.55        78.32797
961.94        79.04865
962.33        78.39219
962.72        76.92065
963.11          75.242
963.49        74.13385
963.88        73.80251
964.27        73.96035
964.66        74.52339
965.04         75.4214
965.43        76.43661
965.82        77.62656
966.21        78.71719
966.60         79.1838
966.98         78.9296
967.37        78.14627
967.76        77.14547
968.15        76.36676
968.53        75.91814
968.92         75.6366
969.31          75.631
969.69         76.1088
970.08        76.99252
970.47        78.35023
970.86        79.62315
971.24        79.84737
971.63        78.81809
972.02        76.86683
972.40        74.88262
972.79        74.31861
973.17         75.4233
973.56         77.6466
973.95        80.21186
974.33        81.61806
974.72        81.29777
975.11        79.78387
975.49        77.78975
975.88        76.69312
976.26        76.83189
976.65        77.71902
977.04        78.95509
977.42        79.81808
977.81        79.88293
978.19        79.53157
978.58        78.92639
978.96        78.18941
979.35        77.49813
979.74        76.81798
980.12         76.4348
980.51        76.80339
980.89         78.0528
981.28        79.86676
981.66        82.05221
982.05        83.95758
982.43        85.43083
982.82        86.51222
983.20         86.9305
983.59         86.1656
983.97        84.31682
984.35        81.62099
984.74        79.12635
985.12        78.24505
985.51        79.14841
985.89         81.5517
986.28        84.31714
986.66        85.86032
987.04        85.52865
987.43        83.80486
987.81        81.43922
988.20        80.04626
988.58        80.04674
988.96        80.98836
989.35        81.96554
989.73        81.77075
990.12        80.06324
990.50        77.45024
990.88          74.642
991.27        72.73839
991.65        72.05114
992.03        72.28761
992.42        73.22771
992.80        74.85102
993.18        76.91555
993.56        79.44486
993.95         81.9162
994.33        83.48615
994.71        83.74335
995.10         82.9201
995.48        81.51811
995.86        80.43137
996.24        79.93852
996.63        79.73457
997.01        79.88097
997.39         80.2336
997.77        80.66036
998.15        81.25381
998.54        81.71586
998.92        81.54261
999.30        80.66143
999.68        79.23557
1000.06        77.70551
1000.45        76.90746
1000.83        77.19186
1001.21        78.26222
1001.59        79.92043
1001.97        81.79887
1002.35        83.63531
1002.73        85.48147
1003.12        86.86166
1003.50        86.97955
1003.88        85.80508
1004.26        83.57064
1004.64        81.09454
1005.02        79.83371
1005.40        80.15419
1005.78        81.59636
1006.16         83.4327
1006.54        84.61951
1006.92        84.88982
1007.30        84.52953
1007.69        83.74017
1008.07        83.12506
1008.45        82.89937
1008.83        82.89908
1009.21        82.99321
1009.59        83.01434
1009.97        82.87766
1010.35        82.60743
1010.73        82.38062
1011.11        82.43205
1011.49        82.77478
1011.86        83.41145
1012.24        83.72736
1012.62        83.00073
1013.00        81.07146
1013.38        78.00772
1013.76        74.66394
1014.14        72.88625
1014.52        73.35258
1014.90        75.68824
1015.28        78.44272
1015.66        79.25884
1016.04        77.59762
1016.41        74.17919
1016.79        70.37677
1017.17        68.98042
1017.55        70.53953
1017.93        73.58421
1018.31        76.84673
1018.69         79.4799
1019.06        81.68407
1019.44        83.89262
1019.82        86.26836
1020.20        88.16257
1020.58        88.78171
1020.95        87.83833
1021.33        86.11042
1021.71        84.39796
1022.09        82.66747
1022.46        80.53889
1022.84        77.92847
1023.22        74.67522
1023.60        71.65276
1023.97        69.62117
1024.35        68.65979
1024.73        68.41739
