SpectraSmart Spectrum 2.9.0.0
--------- Device Information -----------
Spectrum Name :  反射率_0
Saving Time :  2024/04/30 00:48:39
Spectro-Module Model Name : SE2030-DUVN
Spectro-Module Serial Number : OS361AC55029948
Wavelength Start : 200
Wavelength End : 1025
Wavelength Unit : Wavelength(nm)
Spectrum Unit : Reflectance(%)
-----------Spectrum Setting ------------
Integration Time : 20ms
Average : 10
Boxcar : 0
Background removal :  enabled
linearity correction :  enabled
SC :  disabled
Intensity correction :  disabled
DWT denoise :  enabled
savitzky-golay :  disabled
FFT :  disabled
Running average :  disabled
Kalman :  disabled
High pass :  disabled
---------------BEGIN--------------------
Wavelength(nm)             Reflectance(%)
200.29               0
200.75        64.49483
201.21         54.6652
201.67        43.40567
202.13        33.04332
202.58        25.00379
203.04        18.85775
203.50        17.00069
203.96        24.06199
204.42          40.584
204.88        64.36255
205.34        85.81941
205.80        91.56142
206.26        83.05431
206.72        68.63001
207.18        55.39683
207.64        47.57485
208.10        44.25762
208.55        43.37514
209.01        43.60969
209.47        43.37391
209.93        42.34325
210.39        41.69635
210.85        41.29492
211.31        40.74413
211.77         39.9446
212.23        38.42446
212.69        37.20213
213.14        39.92025
213.60        46.02766
214.06        53.03266
214.52        57.94173
214.98        59.20127
215.44        57.67526
215.90        54.18347
216.36        50.64073
216.81        50.84812
217.27         56.9081
217.73        69.29079
218.19         87.2486
218.65        101.7726
219.11        105.2812
219.57        100.0418
220.02        92.42757
220.48        87.96331
220.94        86.18893
221.40        85.45149
221.86        84.33421
222.32         80.5555
222.77        74.96131
223.23        70.92314
223.69        68.47444
224.15        66.89564
224.61        65.79425
225.06        64.86718
225.52        65.00377
225.98        67.45732
226.44        71.45543
226.90         75.5386
227.36        78.53748
227.81        79.88719
228.27        80.02186
228.73        79.08138
229.19        77.53242
229.65        76.43456
230.10          76.129
230.56        76.52042
231.02        76.85246
231.48         76.4418
231.93        75.20234
232.39         73.4305
232.85        71.75513
233.31        71.45651
233.77        72.85609
234.22        75.70374
234.68        78.68919
235.14        79.53513
235.60        77.70037
236.05         73.9301
236.51        70.01157
236.97        68.15499
237.43        68.86789
237.88        72.08983
238.34        76.70567
238.80        79.77795
239.26        79.30932
239.71        76.16064
240.17        72.09889
240.63        69.70303
241.08        69.74577
241.54        71.88499
242.00         76.6632
242.46        82.64656
242.91        86.83085
243.37        87.79101
243.83        86.53471
244.28        85.17249
244.74        83.96208
245.20        81.86225
245.66        78.73082
246.11        74.99583
246.57         71.1143
247.03        67.49911
247.48        63.98396
247.94        60.20472
248.40         57.2941
248.85         55.6453
249.31        55.26816
249.77        55.35798
250.22         55.8889
250.68        57.10571
251.14        59.89286
251.59        64.60591
252.05        68.70843
252.51        70.70071
252.96        71.31622
253.42        72.27191
253.88        73.62623
254.33        75.23653
254.79        76.73731
255.25        76.61211
255.70        74.87083
256.16        73.00015
256.62        71.80187
257.07        71.74722
257.53        72.93307
257.99        74.70037
258.44        75.93179
258.90        75.85363
259.35        74.23463
259.81        72.31784
260.27        70.64299
260.72        69.67602
261.18         69.5359
261.63          69.575
262.09        69.66042
262.55        69.23935
263.00        68.24408
263.46        67.18539
263.91        66.04408
264.37         65.1749
264.83        64.49734
265.28        63.84856
265.74        63.39409
266.19         63.1091
266.65        63.04664
267.11        63.12135
267.56        63.14861
268.02        62.90053
268.47        62.29883
268.93        61.43108
269.38        60.41134
269.84        59.56535
270.30        58.96917
270.75        58.51427
271.21        58.11209
271.66        57.55845
272.12        56.81927
272.57        55.93515
273.03        54.96555
273.48        53.89159
273.94         52.8407
274.39        51.78199
274.85        50.86536
275.31        50.17353
275.76        49.66203
276.22        49.31079
276.67        48.98556
277.13        48.64311
277.58        48.17482
278.04        47.66814
278.49        47.00768
278.95        46.17521
279.40        45.14164
279.86        44.04452
280.31        42.97087
280.77        42.21279
281.22        41.75552
281.68         41.5457
282.13        41.45197
282.59        41.37692
283.04        41.22304
283.50        41.02737
283.95        40.69555
284.41        40.13717
284.86        39.34412
285.32        38.41577
285.77        37.44993
286.22        36.68154
286.68        36.17152
287.13        35.82748
287.59        35.60592
288.04        35.35552
288.50        35.06433
288.95        34.73766
289.41        34.43087
289.86        34.16244
290.32        33.96344
290.77        33.80366
291.22        33.65224
291.68        33.46397
292.13        33.22323
292.59        32.98054
293.04        32.81829
293.50        32.89515
293.95        33.21655
294.40        33.73545
294.86        34.30548
295.31         34.7158
295.77        34.90907
296.22        34.93254
296.68        34.91634
297.13        35.03856
297.58        35.35468
298.04        35.78711
298.49         36.2291
298.95        36.51711
299.40        36.61102
299.85        36.57373
300.31        36.51246
300.76        36.52441
301.21        36.66193
301.67        36.89197
302.12        37.11879
302.58        37.34321
303.03        37.53519
303.48        37.59071
303.94        37.52346
304.39        37.99919
304.84        37.93093
305.30        38.17301
305.75        38.34528
306.20        38.44069
306.66        38.45655
307.11        38.40643
307.57        38.32625
308.02        38.18304
308.47        38.00033
308.93        37.78785
309.38        37.57978
309.83          37.484
310.29        37.51284
310.74        37.63128
311.19        37.73857
311.65        37.66725
312.10        37.38789
312.55        36.96451
313.00        36.52803
313.46        36.28383
313.91        36.26431
314.36        36.39941
314.82        36.58419
315.27        36.67071
315.72        36.59603
316.18        36.41394
316.63        36.13935
317.08         35.8076
317.53        35.45236
317.99        35.07719
318.44        34.71896
318.89        34.44504
319.35        34.26887
319.80        34.17322
320.25        34.14559
320.70        34.15706
321.16        34.17382
321.61        34.21294
322.06        34.20947
322.51        34.07235
322.97        33.78886
323.42        33.38924
323.87        32.96629
324.32         32.6754
324.78        32.54627
325.23        32.56108
325.68        32.62914
326.13        32.59378
326.59        32.40895
327.04        32.13616
327.49        31.85931
327.94        31.73003
328.39        31.77693
328.85        31.92418
329.30        32.10123
329.75        32.13725
330.20        31.98143
330.66        31.69039
331.11        31.32219
331.56        30.94155
332.01        30.58792
332.46        30.24267
332.92        29.94742
333.37        29.81182
333.82        29.84144
334.27        30.01619
334.72        30.23804
335.17        30.33163
335.63        30.24497
336.08        30.03467
336.53        29.76104
336.98        29.55538
337.43        29.46312
337.88        29.43622
338.34        29.46265
338.79        29.54599
339.24        29.66413
339.69        29.83218
340.14         29.9799
340.59        29.98589
341.05        29.83304
341.50        29.54715
341.95        29.24728
342.40        29.13367
342.85        29.24071
343.30        29.50126
343.75        29.77508
344.20        29.83372
344.66        29.63929
345.11        29.27597
345.56        28.85919
346.01        28.56955
346.46        28.46736
346.91        28.48554
347.36        28.60675
347.81        28.80968
348.26        29.06248
348.72        29.36764
349.17        29.63574
349.62        29.70831
350.07        29.55569
350.52         29.2232
350.97        28.83396
351.42        28.58171
351.87        28.51675
352.32        28.59297
352.77        28.73229
353.22        28.80199
353.67        28.76223
354.13        28.65058
354.58        28.52412
355.03        28.47279
355.48        28.51188
355.93        28.60003
356.38        28.66786
356.83        28.61724
357.28        28.43207
357.73        28.15252
358.18        27.84639
358.63        27.61722
359.08         27.4908
359.53         27.4325
359.98        27.39939
360.43        27.32301
360.88        27.18323
361.33        27.00664
361.78        26.80836
362.23         26.6097
362.68        26.42264
363.13        26.24018
363.58        26.07353
364.03        25.94156
364.48        25.84606
364.93        25.78374
365.38        25.73678
365.83        25.67487
366.28        25.58929
366.73        25.48473
367.18        25.37394
367.63          25.279
368.08        25.20304
368.53        25.13716
368.98        25.06736
369.43        24.97078
369.88        24.84575
370.33        24.70684
370.78        24.56724
371.23        24.44801
371.68        24.35528
372.13        24.27532
372.58        24.21299
373.03        24.17762
373.48        24.15825
373.93        24.14395
374.38        24.09241
374.83        23.93679
375.28        23.67528
375.72        23.33824
376.17        22.99786
376.62        22.71171
377.07        22.49882
377.52         22.3377
377.97        22.24088
378.42        22.22756
378.87        22.28668
379.32        22.40595
379.77        22.51821
380.22        22.52419
380.67        22.40428
381.11        22.17953
381.56        21.91914
382.01        21.74214
382.46        21.68442
382.91        21.71888
383.36        21.77978
383.81        21.76453
384.26        21.65127
384.71        21.46937
385.15        21.28247
385.60         21.2163
386.05        21.27531
386.50        21.41044
386.95        21.52933
387.40        21.49228
387.85        21.28159
388.29        20.94913
388.74        20.60893
389.19        20.34684
389.64         20.1873
390.09        20.09299
390.54        20.05886
390.98        20.07471
391.43         20.1299
391.88        20.22025
392.33        20.29315
392.78        20.29231
393.23        20.21655
393.67        20.03978
394.12        19.83221
394.57        19.82936
395.02        19.75797
395.47        19.81909
395.91        19.89786
396.36        19.93299
396.81        19.91104
397.26        19.85781
397.71        19.78056
398.15        19.68042
398.60        19.59334
399.05         19.4757
399.50        19.35328
399.95        19.34958
400.39        19.36851
400.84        19.39354
401.29        19.37638
401.74        19.34921
402.18        19.30621
402.63        19.20549
403.08        19.09337
403.53         19.0556
403.97        19.10262
404.42        19.20822
404.87        19.30902
405.32        19.30375
405.76        19.16891
406.21        18.94724
406.66        18.71306
407.11        18.58409
407.55        18.59327
408.00        18.70328
408.45         18.8448
408.90        18.88997
409.34        18.80337
409.79        18.62676
410.24        18.44567
410.68        18.38738
411.13        18.47831
411.58        18.67345
412.03        18.88726
412.47        18.97799
412.92        18.89659
413.37        18.70406
413.81        18.47256
414.26        18.33553
414.71         18.3109
415.15        18.36316
415.60        18.44331
416.05        18.49222
416.49        18.48743
416.94        18.45232
417.39        18.39422
417.83        18.31842
418.28        18.23593
418.73        18.13751
419.17        18.04513
419.62        17.99745
420.07        18.00007
420.51        18.04451
420.96        18.09983
421.41         18.1054
421.85        18.04616
422.30        17.95898
422.74        17.87207
423.19        17.85773
423.64        17.92011
424.08        18.04398
424.53        18.18378
424.98        18.29091
425.42        18.34715
425.87        18.35031
426.31        18.31048
426.76        18.27446
427.21        18.19336
427.65        18.09197
428.10         17.9745
428.54        17.82801
428.99        17.67673
429.44        17.63713
429.88        17.66352
430.33        17.48165
430.77        17.19976
431.22        17.32508
431.66        17.80288
432.11        18.06164
432.56         18.0143
433.00        17.96871
433.45         17.9341
433.89        17.69559
434.34        17.39453
434.78        17.40737
435.23        17.66534
435.67        17.73219
436.12        17.58566
436.57        17.47009
437.01        17.42717
437.46        17.41797
437.90        17.44997
438.35        17.52668
438.79        17.61696
439.24        17.64178
439.68        17.61345
440.13        17.62448
440.57        17.64991
441.02        17.65338
441.46        17.63787
441.91        17.49134
442.35        17.29123
442.80        17.52276
443.24        18.02465
443.69         17.9293
444.13        17.32886
444.58        17.09836
445.02        17.24848
445.47        17.32133
445.91        17.27421
446.36        17.26509
446.80        17.28208
447.24        17.29456
447.69        17.30821
448.13        17.33061
448.58         17.3643
449.02        17.40203
449.47        17.45428
449.91        17.52626
450.36         17.6165
450.80        17.72002
451.25        17.80499
451.69        17.81804
452.13        17.75048
452.58        17.62634
453.02        17.48927
453.47        17.40744
453.91        17.39383
454.36        17.48088
454.80        17.54152
455.24        17.57265
455.69        17.53668
456.13        17.45218
456.58        17.36588
457.02        17.33231
457.46        17.36667
457.91        17.44591
458.35        17.52734
458.79        17.55731
459.24        17.53651
459.68        17.49429
460.13        17.46452
460.57           17.42
461.01        17.50385
461.46        17.52532
461.90        17.53702
462.34        17.72531
462.79        18.00208
463.23        17.98922
463.68        17.72341
464.12        17.59191
464.56        17.61701
465.01        17.61173
465.45        17.55826
465.89        17.50819
466.34        17.49142
466.78        17.57641
467.22        17.77526
467.67        17.81862
468.11        17.70353
468.55         17.5299
468.99        17.36748
469.44        17.27931
469.88        17.28799
470.32        17.38232
470.77        17.50684
471.21        17.58547
471.65        17.58962
472.10        17.54817
472.54        17.50064
472.98        17.52537
473.42        17.63428
473.87        17.79574
474.31        17.95122
474.75         18.0178
475.20        17.98488
475.64        17.87875
476.08        17.75302
476.52        17.68541
476.97        17.69667
477.41        17.75792
477.85        17.84812
478.29        17.93069
478.74        17.99665
479.18        18.04847
479.62        18.07626
480.06        18.10684
480.50        18.15308
480.95        18.04428
481.39        18.08252
481.83        18.13223
482.27        18.29442
482.72        18.40188
483.16        18.65894
483.60        18.77724
484.04        18.81257
484.48        18.77648
484.93        18.73148
485.37        18.79175
485.81        18.92038
486.25         19.0566
486.69        18.75164
487.14        18.97819
487.58        19.30201
488.02        19.44963
488.46        19.40151
488.90        19.73563
489.34         19.1771
489.79          19.175
490.23        19.34221
490.67        19.69574
491.11        20.09144
491.55         20.1061
491.99        19.83115
492.43        19.83749
492.88          20.152
493.32        20.40148
493.76        20.53701
494.20        20.68859
494.64        20.85368
495.08        20.99485
495.52        21.09418
495.96         21.1788
496.41        21.26128
496.85        21.21542
497.29        21.10573
497.73        21.40727
498.17        21.78879
498.61        21.90689
499.05         21.7038
499.49        21.65986
499.93         21.8115
500.37        21.96046
500.82        22.08064
501.26        22.18331
501.70        22.26037
502.14        22.34194
502.58        22.43661
503.02        22.52994
503.46        22.62395
503.90          22.727
504.34        22.83579
504.78        22.94058
505.22        23.03801
505.66        23.12585
506.10        23.19768
506.54        23.27144
506.98        23.35269
507.42        23.38947
507.86        23.36884
508.30        23.53558
508.74        23.46256
509.18        23.49918
509.62        23.52831
510.06        23.57732
510.50        23.64738
510.94         23.7389
511.38        23.84232
511.82        23.92863
512.26        23.99011
512.70        24.02993
513.14        24.05899
513.58        24.10258
514.02        24.16629
514.46        24.23046
514.90        24.27486
515.34        24.33453
515.78        24.29868
516.22        24.26214
516.66        24.21636
517.10        24.19867
517.54        24.21606
517.98        24.25906
518.42        24.30661
518.86        24.32144
519.30        24.29501
519.74        24.23957
520.18        24.17524
520.62        24.13183
521.06        24.11854
521.50        24.12857
521.93        24.14893
522.37        24.15145
522.81        24.13155
523.25        24.09408
523.69        24.05726
524.13        24.04873
524.57        24.07079
525.01        24.11234
525.45        24.14295
525.89        24.11464
526.32        24.01714
526.76        23.87642
527.20        23.72805
527.64        23.62736
528.08        23.58772
528.52        23.59194
528.96        23.61755
529.40        23.62826
529.83        23.61033
530.27        23.57709
530.71        23.53304
531.15        23.48848
531.59         23.4457
532.03         23.3969
532.46        23.34047
532.90        23.28366
533.34        23.22795
533.78        23.18104
534.22        23.13574
534.66        23.07848
535.09        23.00755
535.53        22.93164
535.97        22.87471
536.41        22.88176
536.85        22.95546
537.28        23.07689
537.72        23.19772
538.16        23.24351
538.60            23.2
539.04        23.09744
539.47        22.97231
539.91        22.90278
540.35        22.90396
540.79        22.95996
541.22        23.05874
541.66        23.18416
542.10        23.32261
542.54        23.47919
542.97        23.64331
543.41        23.80001
543.85        23.94391
544.29        24.07948
544.72        24.19814
545.16        24.30698
545.60        24.40825
546.04        24.49262
546.47        24.58349
546.91        24.75559
547.35         24.9957
547.79         25.2077
548.22        25.36453
548.66         25.5608
549.10        25.79861
549.53        25.94601
549.97        25.96642
550.41        26.33727
550.84         26.2731
551.28        26.37053
551.72        26.40774
552.15        26.63615
552.59        26.72718
553.03        26.93735
553.46        27.14665
553.90        27.31615
554.34        27.42897
554.77        27.52621
555.21        27.61699
555.65         27.6435
556.08        27.63823
556.52        27.73084
556.96        27.90359
557.39        28.06244
557.83        28.19219
558.27        28.28159
558.70        28.35872
559.14         28.5022
559.57        28.68862
560.01        28.86858
560.45         29.0085
560.88        28.97475
561.32        28.94901
561.75        28.96197
562.19        29.06159
562.63         29.0974
563.06         29.0786
563.50        29.14388
563.93        29.27518
564.37         29.3895
564.80        29.47148
565.24        29.56548
565.68        29.66578
566.11        29.77087
566.55        29.88114
566.98        29.95236
567.42        30.03321
567.85        30.13264
568.29         30.2427
568.72        30.49232
569.16        30.92155
569.60        30.76205
570.03        30.92661
570.47        31.39683
570.90        31.33584
571.34        31.35671
571.77        31.60602
572.21        31.74528
572.64        31.88369
573.08        31.98287
573.51        32.08614
573.95        32.25175
574.38        32.50717
574.82        32.55261
575.25        32.47104
575.69        32.42803
576.12        32.47651
576.56        32.49443
576.99        32.67078
577.42        32.53901
577.86        32.62626
578.29        32.56794
578.73        32.60178
579.16        32.45612
579.60        32.39077
580.03        32.18335
580.47        32.44228
580.90        32.36767
581.33        32.06139
581.77        32.33221
582.20        31.93684
582.64          31.754
583.07        31.52604
583.51        31.45963
583.94         31.6485
584.37        31.52784
584.81         31.1668
585.24        31.09406
585.68        31.21795
586.11        31.26018
586.54        30.80235
586.98        30.88079
587.41        31.35887
587.85        31.13797
588.28        30.92423
588.71         31.1263
589.15        30.75972
589.58        30.65306
590.01         30.6363
590.45         30.6353
590.88        30.72156
591.31        30.77548
591.75        30.78252
592.18        30.90266
592.61        31.20033
593.05        30.52904
593.48          30.967
593.91        30.95591
594.35        30.86451
594.78        30.92497
595.21        31.05506
595.65        31.19697
596.08        30.88943
596.51        31.38883
596.94         31.8263
597.38        32.24015
597.81        32.37175
598.24         32.3432
598.68         32.5554
599.11        32.78624
599.54        33.35797
599.97         33.5867
600.41        33.59356
600.84        33.99814
601.27         34.3228
601.70        34.79704
602.14        35.22537
602.57        35.54249
603.00        35.80008
603.43        36.14663
603.87        36.52581
604.30        36.92204
604.73        37.31958
605.16        37.72962
605.60        38.15369
606.03         38.6387
606.46        39.06593
606.89        39.69492
607.32        39.86444
607.76        40.26258
608.19        40.71381
608.62        40.94931
609.05        41.28169
609.48        41.77079
609.92        41.99176
610.35        42.38423
610.78        42.77058
611.21        42.74672
611.64        43.27722
612.07        43.54037
612.50         43.8357
612.94        44.10306
613.37        44.71289
613.80        44.84273
614.23        45.44422
614.66        45.74587
615.09         45.9977
615.52        46.21328
615.96        46.41389
616.39        46.55629
616.82        46.60843
617.25        46.97012
617.68        46.80083
618.11        47.10452
618.54        47.56753
618.97        47.86992
619.40        48.01854
619.84        48.23563
620.27        48.54773
620.70        48.88138
621.13        49.18404
621.56        49.01985
621.99        49.30074
622.42         48.9348
622.85        49.21642
623.28        49.41554
623.71        49.55582
624.14        49.01202
624.57        49.47282
625.00        49.39872
625.43        49.30125
625.86        49.17649
626.29         49.0551
626.72         48.9367
627.15         48.8213
627.58        48.72421
628.01        48.60426
628.44        48.42887
628.87        48.25372
629.30        47.81853
629.73        47.93809
630.16        47.73674
630.59        47.43882
631.02        47.26189
631.45         46.9869
631.88        46.68049
632.31        46.26086
632.74        45.86435
633.17        45.34426
633.60        44.89309
634.03        44.47674
634.46        44.08393
634.89        43.69268
635.32        43.27386
635.75        42.82242
636.18        42.34628
636.61        41.87481
637.04        41.45917
637.47        41.11819
637.89        40.80972
638.32        40.48312
638.75        40.17997
639.18        39.90975
639.61        39.28086
640.04        39.04372
640.47         38.6847
640.90        38.42926
641.33        38.24949
641.76        38.11597
642.18         37.9702
642.61        37.78089
643.04        37.57657
643.47         37.4046
643.90        37.32561
644.33        37.34769
644.76        37.49743
645.18        37.70102
645.61        37.73499
646.04        37.54769
646.47        37.60846
646.90        37.88524
647.33        38.06796
647.75        38.14324
648.18        38.30931
648.61        38.58331
649.04        38.88969
649.47        39.23265
649.89        39.67458
650.32        40.15891
650.75        40.56625
651.18        40.90303
651.61        41.25624
652.03        41.68652
652.46        42.24333
652.89        42.82201
653.32        43.29713
653.74        43.77315
654.17        43.78857
654.60        44.13775
655.03         45.6428
655.46        44.63638
655.88         46.1876
656.31        48.42544
656.74        48.91196
657.16        47.87872
657.59        47.23999
658.02        47.61936
658.45        48.78557
658.87        49.33324
659.30        49.32334
659.73        50.12728
660.15        50.46094
660.58         50.9485
661.01        51.07407
661.44        51.02078
661.86        50.99539
662.29        51.09409
662.72        51.51769
663.14        52.15227
663.57        52.31262
664.00        52.08829
664.42        52.21591
664.85        52.74731
665.27        53.23468
665.70        53.58718
666.13         53.9038
666.55         54.1659
666.98        54.33284
667.41         54.4507
667.83        54.59218
668.26        54.77067
668.69        54.97888
669.11        55.18421
669.54        55.33415
669.96        55.42193
670.39        55.47761
670.82        55.53757
671.24        55.64361
671.67        55.80645
672.09        56.04716
672.52        56.33683
672.94        56.63894
673.37        56.50019
673.80        56.97343
674.22        56.81153
674.65        56.98362
675.07        57.17356
675.50        57.38848
675.92        57.61079
676.35        57.80655
676.77        57.97997
677.20         58.1176
677.62        58.24899
678.05        58.42031
678.47        58.63179
678.90        58.87278
679.32        59.08147
679.75         59.1699
680.17        59.12199
680.60        58.98462
681.02        58.84037
681.45        58.80323
681.87        58.92807
682.30        59.17194
682.72        59.49408
683.15        59.71143
683.57        59.83626
684.00        60.04635
684.42        60.31505
684.85        60.49643
685.27        60.58806
685.70        60.59264
686.12        60.59491
686.54        60.92772
686.97        61.51214
687.39        61.90074
687.82         61.9795
688.24        62.08649
688.66         62.2278
689.09        61.82364
689.51        61.66185
689.94          61.482
690.36        61.53561
690.78        61.72909
691.21        62.00847
691.63        62.27245
692.06        62.47446
692.48        62.66502
692.90        62.84175
693.33        62.96286
693.75        63.02479
694.17        63.07021
694.60        63.15413
695.02        63.07791
695.44        63.26826
695.87        63.50775
696.29        63.85481
696.71        63.82418
697.14        63.55347
697.56        63.80396
697.98        64.48344
698.41        64.80531
698.83        64.74393
699.25        64.81607
699.68        65.01572
700.10        65.10806
700.52        65.08038
700.94        65.04076
701.37        65.01539
701.79        65.03738
702.21        65.11253
702.64        65.23999
703.06        65.40373
703.48        65.58984
703.90        65.79037
704.33        66.01703
704.75        66.23182
705.17         66.4229
705.59        66.55741
706.01        66.67414
706.44        66.79742
706.86        66.78318
707.28        66.93166
707.70        67.02296
708.12        67.14645
708.55        67.24707
708.97        67.34377
709.39         67.5136
709.81        67.74927
710.23        67.97992
710.66        68.17944
711.08        68.41227
711.50        68.64695
711.92        68.78009
712.34        68.81969
712.76        68.93236
713.19        69.10847
713.61        68.96716
714.03        69.01952
714.45        68.90945
714.87        68.85392
715.29        68.90591
715.71        69.08057
716.13        69.35223
716.56        69.62531
716.98        69.83286
717.40        69.91084
717.82        69.89008
718.24        69.82037
718.66        69.78715
719.08         69.8176
719.50        69.88136
719.92        69.96694
720.34        70.05718
720.76        70.14085
721.19         70.2207
721.61        70.29119
722.03        70.31162
722.45        70.27742
722.87        70.19711
723.29        70.10833
723.71        70.07172
724.13        70.10387
724.55        70.20715
724.97        70.37319
725.39        70.47018
725.81        70.46619
726.23         70.5932
726.65          70.943
727.07        70.58401
727.49         71.2432
727.91        71.48966
728.33         71.7812
728.75        71.99995
729.17        72.13334
729.59        72.16105
730.01        72.04649
730.43        71.94123
730.85        71.71619
731.27        71.31792
731.69        71.16343
732.10        71.14457
732.52        71.41265
732.94        71.87134
733.36        72.38362
733.78        72.86059
734.20        73.25103
734.62        72.89783
735.04        73.08633
735.46        73.09879
735.88        73.31137
736.30        73.56033
736.72        73.74124
737.13        73.76567
737.55        73.54881
737.97        73.11703
738.39        72.65412
738.81        72.42478
739.23        72.52812
739.65        73.04292
740.06         73.7015
740.48         74.0099
740.90        73.87395
741.32        73.50467
741.74        73.08506
742.16        72.88665
742.57        73.01004
742.99         73.3101
743.41        73.70141
743.83        74.10963
744.25        74.44842
744.67        74.60872
745.08        74.60558
745.50        74.59293
745.92        74.59551
746.34        74.48912
746.75        74.35627
747.17        74.34145
747.59         74.4539
748.01        74.80097
748.42        75.23069
748.84        75.11845
749.26          74.591
749.68         74.4799
750.09          74.771
750.51        74.87083
750.93        74.74046
751.35        74.66308
751.76        74.67937
752.18        74.75592
752.60        74.89442
753.01        75.07306
753.43         75.2391
753.85        75.36966
754.27        75.46367
754.68        75.54739
755.10        75.61871
755.52        75.68876
755.93        75.73743
756.35        75.71112
756.77        75.68921
757.18        75.82269
757.60        76.13825
758.02        76.71185
758.43        77.12664
758.85        77.30775
759.26         75.4211
759.68        75.09695
760.10        75.78117
760.51        76.33859
760.93        76.62081
761.34         76.8234
761.76        77.21703
762.18        77.23902
762.59        77.09544
763.01        76.25057
763.42        76.06749
763.84        75.78848
764.26        75.84535
764.67        76.05956
765.09        76.38609
765.50        76.92819
765.92        77.45911
766.33        77.48204
766.75        76.96453
767.16        76.75014
767.58        76.90978
768.00         76.8241
768.41        76.57525
768.83        77.01142
769.24        77.82047
769.66        77.70361
770.07        76.82169
770.49        76.34029
770.90        76.44621
771.32        77.01421
771.73        77.80161
772.15        77.96175
772.56        77.48048
772.97        77.38667
773.39        77.26969
773.80        77.36749
774.22         77.5144
774.63        77.94776
775.05        78.46466
775.46        78.72486
775.88        78.63479
776.29        78.35158
776.70        77.98945
777.12        77.76032
777.53        77.72485
777.95         77.7692
778.36        77.91401
778.77        78.11893
779.19        78.35272
779.60         78.8799
780.02        79.45048
780.43         79.3301
780.84        78.71359
781.26        78.41067
781.67        78.60059
782.09        79.45191
782.50           80.56
782.91        80.46941
783.33        79.32729
783.74        78.86771
784.15        79.17973
784.57        79.23773
784.98        78.99969
785.39        78.82693
785.81        78.72685
786.22        78.98409
786.63        78.98926
787.04            79.3
787.46        79.70367
787.87        80.18037
788.28        80.67091
788.70        81.00597
789.11        81.13047
789.52        81.33265
789.93        81.34062
790.35        80.98766
790.76        80.36113
791.17        80.07965
791.58        80.20461
792.00        80.25468
792.41        80.24065
792.82        80.58991
793.23        81.15837
793.65        81.28868
794.06        81.11387
794.47        81.28071
794.88        81.60692
795.29        82.28451
795.71        81.46007
796.12        81.07855
796.53        80.76693
796.94         80.6584
797.35        80.81229
797.76         81.2286
798.18        81.76199
798.59        82.15891
799.00        82.32584
799.41        82.33273
799.82        82.24148
800.23        82.17141
800.64        82.16876
801.06        82.15585
801.47        82.19041
801.88        82.29349
802.29        82.44838
802.70        82.63107
803.11        82.78439
803.52        82.80227
803.93        82.68211
804.34        82.48894
804.75        82.22777
805.17        82.00273
805.58        81.90534
805.99        81.60026
806.40        81.28331
806.81        81.97049
807.22        83.34863
807.63        83.71136
808.04        83.07546
808.45        82.95244
808.86        83.41541
809.27        83.53238
809.68        83.26024
810.09         83.0397
810.50        82.91058
810.91        82.75201
811.32        82.65289
811.73         82.7505
812.14        83.05167
812.55         83.5399
812.96        84.03898
813.37        84.20139
813.78        83.95078
814.19        83.42453
814.60        82.82905
815.01        82.43597
815.42        82.32974
815.83        82.47294
816.24        82.79604
816.65        83.10586
817.05        83.31808
817.46        83.45886
817.87        83.54429
818.28        83.52045
818.69        83.39877
819.10         83.1939
819.51        82.95904
819.92        82.81266
820.33        82.79568
820.74        82.86332
821.14        83.02605
821.55        83.30058
821.96        83.65891
822.37        84.11015
822.78        84.49751
823.19        84.54037
823.60        84.17863
824.00        83.48647
824.41        82.72617
824.82        82.34667
825.23        82.44987
825.64        82.93776
826.04        83.56682
826.45        83.79811
826.86        83.52517
827.27        82.91017
827.68        82.24738
828.08         82.0232
828.49        82.31522
828.90        83.01299
829.31        83.89325
829.72        84.57512
830.12        84.95613
830.53        85.04121
830.94        85.03095
831.35        85.21456
831.75        85.68087
832.16        86.23646
832.57         86.6882
832.97        86.68124
833.38        86.15981
833.79        85.33894
834.20        84.44179
834.60        83.75276
835.01        83.39822
835.42        83.25875
835.82        83.39198
836.23        83.81068
836.64        84.48444
837.04        85.43015
837.45        86.27484
837.86        86.56785
838.26        86.20216
838.67        85.31017
839.08        84.23907
839.48        83.52045
839.89        83.34913
840.29        83.58296
840.70        84.05003
841.11        84.47712
841.51        84.78836
841.92         85.0189
842.33         85.2456
842.73        85.56979
843.14        85.94325
843.54        86.33521
843.95        86.63419
844.35        86.76035
844.76        86.66547
845.17         86.3659
845.57        85.98396
845.98        85.67301
846.38        85.50832
846.79        85.47209
847.19        85.41977
847.60        85.03944
848.00        84.32667
848.41        83.40885
848.81        82.63367
849.22         82.5126
849.62          83.172
850.03        84.39954
850.43        85.87132
850.84        86.76357
851.24        86.88597
851.65         86.3322
852.05        85.46835
852.46        84.86277
852.86        84.67256
853.27        84.79416
853.67        84.91907
854.07        84.85847
854.48        84.50609
854.88        83.99408
855.29        83.40189
855.69        83.14449
856.10        83.23364
856.50        83.66088
856.90        84.14709
857.31         84.3328
857.71        84.18678
858.12        83.77722
858.52        83.34903
858.92        83.23949
859.33        83.51222
859.73        84.09414
860.13        84.77606
860.54        85.23775
860.94        85.42892
861.34        85.35027
861.75        85.04319
862.15        84.65994
862.55        84.22937
862.96        83.76364
863.36        83.20518
863.76        82.48038
864.17        81.64899
864.57         80.8096
864.97        80.14668
865.38        79.87061
865.78        80.04775
866.18        80.56583
866.58        81.33643
866.99        82.13071
867.39        82.86621
867.79        83.53011
868.19        83.92673
868.60         83.7863
869.00        83.12083
869.40        82.00021
869.80        80.90349
870.21        80.65762
870.61        81.47631
871.01        83.05164
871.41        84.74785
871.81        85.54126
872.22        85.17049
872.62        83.96167
873.02        82.37338
873.42        81.18295
873.82        80.67912
874.22        80.66933
874.63        80.96033
875.03        81.25101
875.43        81.44127
875.83        81.63442
876.23        81.95178
876.63        82.55737
877.03        83.43418
877.44        84.40938
877.84        85.26971
878.24        85.60036
878.64        85.32987
879.04         84.6366
879.44        83.77664
879.84        83.12078
880.24        82.77788
880.64        82.63924
881.04        82.70392
881.44        82.95002
881.84           83.34
882.24        83.91682
882.65        84.44579
883.05         84.6639
883.45        84.45567
883.85        83.91996
884.25        83.39044
884.65        83.40023
885.05        84.03281
885.45        85.07214
885.85        86.22193
886.25        86.97134
886.65        87.12853
887.05        86.86768
887.45        86.21002
887.85        85.21783
888.25        84.05927
888.65        82.80828
889.04        81.74954
889.44        81.34715
889.84        81.58771
890.24        82.38648
890.64        83.46789
891.04        84.21941
891.44        84.39293
891.84        84.14107
892.24        83.70838
892.64        83.45551
893.04         83.4723
893.44         83.6441
893.83        83.91541
894.23         84.1099
894.63        84.21477
895.03        84.30576
895.43        84.42731
895.83        84.63428
896.23        84.92484
896.63        85.22412
897.02        85.50368
897.42         85.7864
897.82        86.03107
898.22        86.26749
898.62        86.35156
899.01        86.05965
899.41        85.37833
899.81        84.40645
900.21        83.48992
900.61        83.15378
901.00        83.48944
901.40         84.3474
901.80        85.31475
902.20        85.69913
902.59        85.32306
902.99        84.39455
903.39        83.31349
903.79        82.68463
904.18        82.65478
904.58         83.0715
904.98        83.62081
905.38        83.83318
905.77        83.57257
906.17        82.98936
906.57        82.38403
906.96        82.25144
907.36        82.66138
907.76        83.48846
908.15        84.34767
908.55        84.46955
908.95        83.77419
909.34        82.51492
909.74        81.32237
910.14        81.01917
910.53        81.81537
910.93        83.38568
911.33        85.31188
911.72        86.94318
912.12          87.942
912.52         88.4797
912.91        88.68906
913.31        88.77879
913.70        88.84262
914.10        88.75131
914.49        88.42514
914.89        87.76097
915.29        86.80807
915.68        85.70629
916.08        84.70999
916.47        84.03882
916.87        83.80309
917.26        83.88087
917.66        84.21709
918.05        84.74102
918.45        85.31829
918.84        86.02228
919.24        86.56187
919.64        86.62115
920.03        86.16361
920.42        85.25499
920.82        84.31425
921.21        83.88988
921.61        84.11712
922.00        84.86454
922.40        85.79919
922.79        86.43512
923.19        86.57401
923.58        86.38068
923.98        86.05502
924.37        85.91883
924.77        86.05356
925.16        86.35146
925.55         86.6638
925.95        86.76611
926.34        86.62695
926.74        86.32251
927.13        85.98859
927.52        85.78977
927.92        85.77879
928.31        85.87553
928.70        86.00792
929.10        86.05026
929.49        85.96146
929.89        85.73781
930.28        85.43398
930.67        85.04832
931.07        84.61974
931.46        84.20129
931.85        83.80452
932.24        83.44041
932.64        83.14597
933.03        82.96066
933.42        82.98471
933.82        83.35288
934.21        84.08561
934.60        85.02549
934.99        86.05377
935.39        86.96484
935.78        87.71227
936.17        88.29784
936.56          88.451
936.96        87.81264
937.35        86.44254
937.74        84.57478
938.13        82.85053
938.53        82.06951
938.92        82.31005
939.31         83.4129
939.70        84.89622
940.09        85.79163
940.49        85.75652
940.88        85.07366
941.27         84.1647
941.66        83.68676
942.05         83.8099
942.44        84.34909
942.84        84.98068
943.23        85.25946
943.62          84.991
944.01        84.34699
944.40        83.73408
944.79        83.72628
945.18        84.42369
945.57         85.6511
945.97        86.85239
946.36        87.34057
946.75        86.81107
947.14        85.50941
947.53         84.0503
947.92        83.35454
948.31        83.65335
948.70        84.72984
949.09        86.01927
949.48        86.50488
949.87        85.90253
950.26        84.53235
950.65        83.10027
951.04        82.57857
951.43        83.16082
951.82        84.59945
952.21        86.19153
952.60        86.66795
952.99        85.70689
953.38        83.74658
953.77        81.76048
954.16        81.03671
954.55        81.82072
954.94        83.84763
955.33        86.25127
955.72        87.15833
956.11        85.96134
956.50        83.33801
956.89        80.62717
957.28        79.56335
957.66        80.53067
958.05        82.95338
958.44        85.94734
958.83        87.68943
959.22        87.50869
959.61        86.02446
960.00        84.14138
960.39        83.00832
960.78        82.85712
961.16        83.35284
961.55         84.0052
961.94        84.05045
962.33        83.26977
962.72        82.11151
963.11        80.96702
963.49        80.28549
963.88        80.19085
964.27        80.48537
964.66        81.16943
965.04        82.31582
965.43        83.72245
965.82        85.36057
966.21        86.84006
966.60        87.45879
966.98        87.08248
967.37        86.01015
967.76        84.64877
968.15        83.55534
968.53        82.86942
968.92        82.36932
969.31        82.22268
969.69         82.7461
970.08        83.86382
970.47        85.65708
970.86        87.33681
971.24        87.53271
971.63        85.97943
972.02         83.1511
972.40        80.31564
972.79         79.4835
973.17        80.97099
973.56        84.02349
973.95         87.5368
974.33        89.41995
974.72         88.9126
975.11        86.77014
975.49        83.89597
975.88        81.95163
976.26        81.43051
976.65        81.77906
977.04        82.74932
977.42        83.88605
977.81        84.76469
978.19        85.64311
978.58        86.39766
978.96        86.69991
979.35        86.57182
979.74        86.07126
980.12        85.47283
980.51        85.25103
980.89        85.62048
981.28        86.25329
981.66        87.26083
982.05        88.49043
982.43        89.92916
982.82        91.55021
983.20        92.74277
983.59         92.2984
983.97        90.13925
984.35        86.72993
984.74        83.44743
985.12        82.17812
985.51        83.20613
985.89        86.06107
986.28         89.4665
986.66        91.63484
987.04        91.80606
987.43        90.50941
987.81        88.47749
988.20        87.25442
988.58        87.27387
988.96        88.10831
989.35        88.87411
989.73        88.43765
990.12        86.50178
990.50        83.64713
990.88        80.75295
991.27         79.1767
991.65        79.22133
992.03        80.49641
992.42        82.38203
992.80        84.23165
993.18        85.67985
993.56        86.90594
993.95        87.81654
994.33        88.45462
994.71        88.71531
995.10        88.58734
995.48        88.17873
995.86        87.78926
996.24        87.52668
996.63        87.26135
997.01        87.19608
997.39        87.40386
997.77        87.85801
998.15          88.575
998.54        89.20547
998.92        89.20831
999.30        88.49207
999.68        87.21479
1000.06         85.9231
1000.45        85.60207
1000.83        86.61637
1001.21        88.62116
1001.59        91.05722
1001.97        92.99913
1002.35        94.10374
1002.73        94.58177
1003.12        94.55025
1003.50        94.14495
1003.88        93.52702
1004.26        92.66613
1004.64        91.74172
1005.02        91.10072
1005.40        90.85754
1005.78        90.96944
1006.16        91.32217
1006.54        91.70453
1006.92        92.04346
1007.30        92.38597
1007.69        92.61981
1008.07        92.73943
1008.45        92.63789
1008.83        92.30067
1009.21         91.8263
1009.59        91.42946
1009.97        91.16139
1010.35        90.93208
1010.73        90.71157
1011.11        90.44208
1011.49         90.0813
1011.86        89.73083
1012.24        89.09874
1012.62        87.91523
1013.00         86.1224
1013.38        83.73765
1013.76        81.14716
1014.14        79.27557
1014.52        78.49675
1014.90        78.63136
1015.28        79.15721
1015.66        79.10894
1016.04        78.26781
1016.41        77.10382
1016.79        75.89128
1017.17        75.27748
1017.55        75.52969
1017.93         76.2434
1018.31        77.53479
1018.69        79.88411
1019.06        83.66315
1019.44        89.21343
1019.82        96.34542
1020.20        101.8885
1020.58        102.9476
1020.95        99.82844
1021.33        95.12645
1021.71        91.50641
1022.09        89.19486
1022.46        87.41384
1022.84        85.66992
1023.22        82.75138
1023.60        79.14932
1023.97        76.23013
1024.35        74.85492
1024.73        75.48026
