SpectraSmart Spectrum 2.9.0.0
--------- Device Information -----------
Spectrum Name :  反射率_0
Saving Time :  2024/04/30 01:02:20
Spectro-Module Model Name : SE2030-DUVN
Spectro-Module Serial Number : OS361AC55029948
Wavelength Start : 200
Wavelength End : 1025
Wavelength Unit : Wavelength(nm)
Spectrum Unit : Reflectance(%)
-----------Spectrum Setting ------------
Integration Time : 20ms
Average : 10
Boxcar : 0
Background removal :  enabled
linearity correction :  enabled
SC :  disabled
Intensity correction :  disabled
DWT denoise :  enabled
savitzky-golay :  disabled
FFT :  disabled
Running average :  disabled
Kalman :  disabled
High pass :  disabled
---------------BEGIN--------------------
Wavelength(nm)             Reflectance(%)
200.29               0
200.75        58.01081
201.21        42.01974
201.67        23.96885
202.13        11.59794
202.58         8.40536
203.04        13.75721
203.50        25.22518
203.96        36.47777
204.42        43.57182
204.88        47.02907
205.34          47.672
205.80        47.40605
206.26         47.0013
206.72        46.16757
207.18        44.14211
207.64        40.00517
208.10        33.81235
208.55        25.68925
209.01        17.76704
209.47        15.85243
209.93        20.71492
210.39        29.09105
210.85        36.50962
211.31        39.42921
211.77         37.6551
212.23        31.18291
212.69        21.23077
213.14        16.19374
213.60        20.32949
214.06        29.32011
214.52        37.15754
214.98        39.88029
215.44        38.27911
215.90        34.08462
216.36        29.74507
216.81         29.8925
217.27        37.05462
217.73        51.22006
218.19         71.2254
218.65        86.64526
219.11        89.02672
219.57        81.70324
220.02        71.55204
220.48        63.55948
220.94        56.80847
221.40        48.72677
221.86        38.95369
222.32        31.20822
222.77        28.57181
223.23        30.20586
223.69        32.08409
224.15        31.09403
224.61        27.25209
225.06        21.04055
225.52        14.78837
225.98        13.68665
226.44        18.21057
226.90        24.80557
227.36        30.28158
227.81        32.70875
228.27        32.45111
228.73        30.40451
229.19        27.58364
229.65        26.13276
230.10        26.65828
230.56        28.05688
231.02        29.35984
231.48        29.76187
231.93        29.18494
232.39        28.05097
232.85        26.65627
233.31        25.55851
233.77        25.00982
234.22        24.94501
234.68        25.10394
235.14        25.02811
235.60        24.66989
236.05        24.22924
236.51        24.22462
236.97        25.35012
237.43        27.85009
237.88        31.91372
238.34        37.14378
238.80        41.75986
239.26        44.11605
239.71        44.35286
240.17        43.19207
240.63        42.30377
241.08        42.29225
241.54        42.75067
242.00        44.56026
242.46        49.61637
242.91        58.18209
243.37        68.26938
243.83        75.76594
244.28        78.28216
244.74        76.14803
245.20        68.93372
245.66        59.16062
246.11        53.77419
246.57        56.68707
247.03        67.53783
247.48        81.54224
247.94        86.24483
248.40        80.31651
248.85        70.14333
249.31        62.66721
249.77        61.04903
250.22        65.05693
250.68        75.05209
251.14        89.52386
251.59        93.56413
252.05        80.53012
252.51        63.64732
252.96        52.17237
253.42        48.25744
253.88          49.336
254.33        53.27009
254.79         58.3784
255.25        60.43474
255.70        58.70241
256.16         56.0186
256.62        53.62089
257.07        52.11971
257.53        51.62498
257.99        51.43644
258.44        51.29199
258.90        51.51349
259.35          51.618
259.81        51.83547
260.27         51.8007
260.72        51.21864
261.18        50.31901
261.63        49.01863
262.09        47.69584
262.55        46.56824
263.00        45.63043
263.46        44.94436
263.91        44.17946
264.37        43.18182
264.83         41.8787
265.28        40.32405
265.74        38.87614
266.19        37.87745
266.65        37.44695
267.11        37.40775
267.56        37.44324
268.02        37.09232
268.47        36.24378
268.93        35.04011
269.38        33.72609
269.84        32.83981
270.30        32.49369
270.75        32.50601
271.21        32.57194
271.66         32.2382
272.12        31.41575
272.57        30.24889
273.03        28.99599
273.48        27.98384
273.94        27.36272
274.39        26.98361
274.85        26.74221
275.31        26.43936
275.76        26.00485
276.22         25.5199
276.67        25.01944
277.13        24.61813
277.58        24.29426
278.04        24.03875
278.49        23.73591
278.95        23.30406
279.40        22.70964
279.86        22.06106
280.31        21.44164
280.77        21.07056
281.22        20.94592
281.68        21.01303
282.13        21.15565
282.59        21.24508
283.04         21.2288
283.50        21.13358
283.95        20.97863
284.41         20.7963
284.86        20.59764
285.32         20.4088
285.77        20.19138
286.22        19.95217
286.68        19.71421
287.13        19.45797
287.59         19.2756
288.04        19.25405
288.50        19.40315
288.95        19.65271
289.41        19.89733
289.86        19.95055
290.32        19.80759
290.77        19.54489
291.22        19.25727
291.68        19.09127
292.13        19.09342
292.59        19.23447
293.04        19.55713
293.50        20.14593
293.95        20.98192
294.40        22.03308
294.86        23.11738
295.31        23.95989
295.77        24.49165
296.22        24.77384
296.68        24.98415
297.13        25.39212
297.58        26.07092
298.04        26.90512
298.49        27.76092
298.95        28.42481
299.40        28.84087
299.85         29.0908
300.31        29.26235
300.76        29.42805
301.21        29.65023
301.67        29.91277
302.12        30.18568
302.58        30.56496
303.03        31.04309
303.48        31.46905
303.94        31.80121
304.39        32.68176
304.84        32.90177
305.30        33.41247
305.75        33.82615
306.20        34.16515
306.66         34.4272
307.11         34.6059
307.57        34.73409
308.02        34.78752
308.47        34.78826
308.93        34.75329
309.38        34.69441
309.83        34.67665
310.29        34.71237
310.74        34.78518
311.19        34.84574
311.65        34.80798
312.10        34.65236
312.55         34.4051
313.00        34.14248
313.46        33.98398
313.91        33.93836
314.36        33.96803
314.82        33.98423
315.27         33.8653
315.72        33.57401
316.18        33.16631
316.63        32.70127
317.08        32.28186
317.53        31.95104
317.99        31.69187
318.44        31.48793
318.89        31.31631
319.35        31.16067
319.80        31.02023
320.25        30.90327
320.70        30.82106
321.16        30.75357
321.61        30.70097
322.06        30.59332
322.51        30.33429
322.97        29.91414
323.42         29.3769
323.87        28.82007
324.32        28.39842
324.78        28.14037
325.23        28.01778
325.68        27.94875
326.13        27.79476
326.59        27.50965
327.04        27.14742
327.49        26.75464
327.94        26.41826
328.39        26.15664
328.85        25.91973
329.30        25.69587
329.75        25.43107
330.20        25.11866
330.66        24.79594
331.11        24.47022
331.56        24.12114
332.01        23.75545
332.46        23.36746
332.92        23.02852
333.37        22.89185
333.82        22.97131
334.27        23.21781
334.72        23.47606
335.17        23.48544
335.63        23.17702
336.08         22.6326
336.53         21.9844
336.98         21.4801
337.43        21.20668
337.88        21.09522
338.34        21.08618
338.79        21.09927
339.24        21.08838
339.69        21.09301
340.14        21.08248
340.59        21.00008
341.05        20.84038
341.50        20.59794
341.95        20.34409
342.40        20.20848
342.85        20.20887
343.30        20.30393
343.75        20.38826
344.20        20.29023
344.66        19.98864
345.11        19.54533
345.56        19.06817
346.01         18.7255
346.46         18.5704
346.91        18.54712
347.36         18.6118
347.81        18.69988
348.26        18.77558
348.72         18.8502
349.17        18.89066
349.62        18.84356
350.07        18.70238
350.52         18.4838
350.97         18.2291
351.42        18.00343
351.87        17.83464
352.32         17.7216
352.77        17.66558
353.22        17.66294
353.67        17.70424
354.13        17.77652
354.58        17.87709
355.03        18.00303
355.48        18.13453
355.93        18.25798
356.38        18.31292
356.83        18.21406
357.28        17.96067
357.73        17.59288
358.18        17.20247
358.63        16.93457
359.08        16.82274
359.53        16.81961
359.98        16.86993
360.43        16.87964
360.88        16.81715
361.33        16.71948
361.78        16.58112
362.23        16.39134
362.68        16.16472
363.13        15.90441
363.58        15.67369
364.03        15.57774
364.48        15.62906
364.93        15.78847
365.38        15.97747
365.83        16.06586
366.28        16.01628
366.73        15.86884
367.18        15.65873
367.63        15.44467
368.08        15.25348
368.53        15.06805
368.98        14.90993
369.43        14.81468
369.88        14.78568
370.33        14.81979
370.78        14.87178
371.23        14.86209
371.68        14.76766
372.13        14.60026
372.58        14.40467
373.03        14.25802
373.48        14.17771
373.93        14.14263
374.38        14.10244
374.83        13.97556
375.28         13.7548
375.72        13.47709
376.17        13.22135
376.62         13.0689
377.07        13.03316
377.52        13.07609
377.97        13.16309
378.42        13.23646
378.87        13.27267
379.32        13.29318
379.77        13.28216
380.22         13.2173
380.67        13.10137
381.11        12.93074
381.56        12.77011
382.01        12.72511
382.46        12.81472
382.91        13.01336
383.36        13.21747
383.81        13.26719
384.26        13.13484
384.71        12.86587
385.15        12.57757
385.60         12.4782
386.05        12.59571
386.50        12.86127
386.95        13.13897
387.40        13.21735
387.85         13.0596
388.29        12.74201
388.74        12.40986
389.19        12.21366
389.64        12.18778
390.09        12.27631
390.54        12.42099
390.98        12.52568
391.43         12.5595
391.88        12.55289
392.33        12.52343
392.78        12.50583
393.23        12.50813
393.67        12.48187
394.12        12.43417
394.57        12.46014
395.02        12.37732
395.47         12.3354
395.91        12.28006
396.36        12.20109
396.81        12.10774
397.26        12.00727
397.71        11.91792
398.15        11.85901
398.60        11.84916
399.05        11.85351
399.50        11.85288
399.95        11.87053
400.39        11.83965
400.84        11.76554
401.29        11.65419
401.74        11.59087
402.18        11.59126
402.63        11.60707
403.08        11.63836
403.53        11.69393
403.97        11.76645
404.42        11.85428
404.87        11.91841
405.32          11.896
405.76        11.77594
406.21        11.58165
406.66        11.38024
407.11        11.27985
407.55        11.30709
408.00        11.43366
408.45        11.58171
408.90        11.60845
409.34        11.47874
409.79        11.24093
410.24        10.99995
410.68        10.91244
411.13        11.01184
411.58        11.24727
412.03        11.51698
412.47        11.64787
412.92        11.58232
413.37        11.38617
413.81        11.14829
414.26        11.02071
414.71        11.02708
415.15        11.12265
415.60        11.24372
416.05        11.30216
416.49        11.27122
416.94        11.19126
417.39        11.08806
417.83        10.99673
418.28        10.93596
418.73        10.88083
419.17        10.85055
419.62        10.87876
420.07        10.96072
420.51        11.08668
420.96         11.1927
421.41        11.17118
421.85        11.00983
422.30        10.76473
422.74        10.51508
423.19        10.39476
423.64        10.42562
424.08        10.57216
424.53        10.77184
424.98        10.93473
425.42        11.02163
425.87        11.04287
426.31        11.00829
426.76        10.95584
427.21        10.86081
427.65        10.73543
428.10        10.58523
428.54         10.4063
428.99        10.22587
429.44        10.12686
429.88         10.0964
430.33        9.983606
430.77        9.854144
431.22        10.01605
431.66        10.42066
432.11        10.65158
432.56        10.63543
433.00        10.61256
433.45        10.58766
433.89        10.34192
434.34         10.0154
434.78        9.996883
435.23         10.2233
435.67        10.27512
436.12         10.1308
436.57        10.02786
437.01        10.00391
437.46        10.01597
437.90        10.06808
438.35        10.16334
438.79        10.26002
439.24        10.27343
439.68        10.20628
440.13        10.12471
440.57        10.04239
441.02        9.991146
441.46        9.984465
441.91        9.938998
442.35        9.876824
442.80        10.04681
443.24        10.34956
443.69        10.29597
444.13        9.938392
444.58        9.779285
445.02        9.827609
445.47         9.82504
445.91        9.757586
446.36        9.733801
446.80        9.748954
447.24        9.777019
447.69        9.817806
448.13        9.871619
448.58        9.933612
449.02        10.00383
449.47        10.06533
449.91        10.08663
450.36          10.065
450.80        10.00868
451.25        9.945505
451.69        9.921279
452.13        9.942451
452.58        9.999563
453.02        10.05981
453.47        10.07106
453.91         10.0197
454.36        9.955162
454.80        9.854155
455.24        9.792735
455.69        9.770753
456.13        9.771261
456.58        9.792161
457.02        9.820815
457.46        9.852064
457.91        9.887136
458.35        9.911127
458.79        9.901967
459.24          9.8671
459.68        9.819871
460.13        9.781856
460.57         9.74015
461.01        9.777938
461.46         9.78557
461.90        9.800911
462.34        9.935053
462.79        10.13744
463.23        10.19192
463.68         10.0942
464.12        10.03149
464.56        10.01147
465.01        9.938011
465.45        9.827649
465.89        9.747773
466.34        9.722178
466.78        9.779819
467.22        9.905647
467.67        9.911698
468.11        9.788813
468.55        9.609123
468.99        9.441765
469.44        9.366663
469.88         9.40491
470.32        9.535076
470.77        9.699143
471.21         9.81621
471.65        9.854442
472.10        9.842177
472.54        9.811168
472.98        9.824981
473.42        9.896512
473.87        9.999286
474.31        10.09902
474.75        10.14526
475.20          10.132
475.64          10.078
476.08        10.01363
476.52        9.981096
476.97        9.993059
477.41         10.0335
477.85        10.09525
478.29        10.16478
478.74        10.23677
479.18        10.30971
479.62        10.37018
480.06        10.42333
480.50        10.47302
480.95        10.42188
481.39         10.4474
481.83        10.48353
482.27        10.59216
482.72        10.67179
483.16        10.83716
483.60        10.91922
484.04        10.94342
484.48        10.92136
484.93        10.90981
485.37        10.99618
485.81        11.09163
486.25        11.36537
486.69        10.76251
487.14         10.9944
487.58        11.68987
488.02        11.63227
488.46        11.88896
488.90        12.19562
489.34        11.80439
489.79        11.83713
490.23        11.95315
490.67        12.18387
491.11        12.42504
491.55        12.43112
491.99        12.27717
492.43        12.34276
492.88        12.64694
493.32        12.93947
493.76        13.16314
494.20        13.36994
494.64        13.54765
495.08        13.67199
495.52         13.7531
495.96         13.8498
496.41        13.97861
496.85        14.04453
497.29        14.06119
497.73        14.30374
498.17        14.54494
498.61        14.57047
499.05        14.38085
499.49        14.35296
499.93        14.52471
500.37        14.74966
500.82        14.97183
501.26         15.1378
501.70        15.22594
502.14        15.27292
502.58        15.32166
503.02        15.42182
503.46        15.58695
503.90        15.80183
504.34        16.02205
504.78         16.1727
505.22        16.23401
505.66        16.22684
506.10        16.18794
506.54        16.19452
506.98        16.26885
507.42        16.35668
507.86        16.41957
508.30        16.58192
508.74        16.53039
509.18        16.52799
509.62         16.5157
510.06        16.54823
510.50        16.63496
510.94        16.76248
511.38        16.90432
511.82         17.0089
512.26         17.0608
512.70         17.0724
513.14        17.06702
513.58        17.08148
514.02        17.12562
514.46        17.18867
514.90        17.24925
515.34        17.27347
515.78        17.25479
516.22        17.20659
516.66        17.15587
517.10        17.14315
517.54        17.17599
517.98        17.23894
518.42        17.30522
518.86        17.33191
519.30        17.30789
519.74        17.24843
520.18        17.17179
520.62        17.10526
521.06        17.05914
521.50        17.02671
521.93        17.00631
522.37         16.9906
522.81        16.97792
523.25        16.96905
523.69        16.96286
524.13        16.95634
524.57        16.94617
525.01        16.92967
525.45         16.8995
525.89        16.84642
526.32        16.76854
526.76        16.67477
527.20        16.57588
527.64        16.48847
528.08        16.41794
528.52        16.36255
528.96        16.31589
529.40        16.26711
529.83         16.2116
530.27        16.15164
530.71        16.09295
531.15        16.04718
531.59        16.01327
532.03        15.98468
532.46        15.94324
532.90        15.86623
533.34        15.75241
533.78        15.61754
534.22         15.4821
534.66        15.37506
535.09        15.30445
535.53        15.26742
535.97        15.26056
536.41        15.28242
536.85        15.32574
537.28        15.38629
537.72        15.44763
538.16        15.48707
538.60        15.49916
539.04        15.49339
539.47         15.4715
539.91        15.45459
540.35        15.44776
540.79        15.45337
541.22         15.4876
541.66        15.57779
542.10        15.72349
542.54        15.91483
542.97        16.12645
543.41        16.31816
543.85        16.47832
544.29        16.61877
544.72        16.74095
545.16        16.86267
545.60        16.98949
546.04        17.11064
546.47        17.23985
546.91        17.42605
547.35        17.65889
547.79        17.87261
548.22         18.0507
548.66        18.26433
549.10        18.51688
549.53        18.71084
549.97        18.81544
550.41        19.16978
550.84        19.19869
551.28        19.33605
551.72        19.41931
552.15        19.63358
552.59        19.73813
553.03         19.9243
553.46        20.10589
553.90        20.25704
554.34        20.36829
554.77        20.47079
555.21        20.57669
555.65        20.64825
556.08        20.70808
556.52        20.84948
556.96        21.05065
557.39        21.22904
557.83        21.36899
558.27        21.46282
558.70         21.5359
559.14        21.65487
559.57        21.80597
560.01        21.95222
560.45        22.06501
560.88        22.03955
561.32        22.01622
561.75        22.01499
562.19        22.08571
562.63        22.15002
563.06        22.20747
563.50        22.31756
563.93        22.45946
564.37        22.58952
564.80        22.69327
565.24        22.79089
565.68        22.87857
566.11         22.9656
566.55        23.05745
566.98        23.11819
567.42        23.19825
567.85        23.33021
568.29        23.51886
568.72        23.82301
569.16        24.23857
569.60        24.23488
570.03        24.54472
570.47        24.71706
570.90        24.75808
571.34        24.91139
571.77        25.05342
572.21        25.20557
572.64        25.30296
573.08        25.46841
573.51        25.77593
573.95        25.63609
574.38        25.94981
574.82        26.19324
575.25        25.94294
575.69        25.81305
576.12        25.63234
576.56        25.98899
576.99        26.29374
577.42        25.97382
577.86        26.23931
578.29        26.03746
578.73        25.97385
579.16         26.0373
579.60        25.84036
580.03        25.67019
580.47        25.77839
580.90        25.79816
581.33         25.4101
581.77        25.50086
582.20        25.13326
582.64        24.98263
583.07        24.84124
583.51        24.68657
583.94        24.60239
584.37        24.40633
584.81         24.1818
585.24        24.18264
585.68        24.20502
586.11        24.30091
586.54        23.76725
586.98        23.80284
587.41        24.12468
587.85        23.89068
588.28        23.79842
588.71        23.71401
589.15        23.72256
589.58        23.67721
590.01         23.7396
590.45        23.64173
590.88        23.51153
591.31          23.524
591.75         23.6346
592.18        23.78471
592.61        23.96258
593.05         23.7224
593.48        23.73437
593.91        24.05267
594.35        23.63171
594.78         23.7554
595.21        24.05273
595.65        24.11219
596.08        23.95432
596.51        24.44851
596.94        24.82165
597.38        25.23981
597.81        25.41168
598.24        25.51789
598.68        25.87123
599.11        26.00533
599.54        26.42269
599.97        26.84293
600.41        26.91121
600.84        27.59807
601.27        27.80564
601.70        28.31974
602.14        28.81376
602.57        29.20784
603.00        29.49377
603.43        29.87674
603.87        30.31683
604.30        30.79697
604.73         31.3165
605.16        31.90275
605.60        32.50577
606.03        33.05325
606.46         33.4735
606.89        33.87703
607.32        34.30406
607.76        34.70758
608.19        35.09807
608.62        35.42591
609.05        35.97861
609.48        36.29732
609.92          36.451
610.35        36.94719
610.78        37.43173
611.21        37.47123
611.64        37.85603
612.07        38.16563
612.50        38.63682
612.94        38.99258
613.37        39.51461
613.80        39.60617
614.23        40.15082
614.66        40.40957
615.09        40.66264
615.52        40.79908
615.96        41.13731
616.39        41.35292
616.82        41.51635
617.25        41.66174
617.68        41.91443
618.11        42.26286
618.54        42.67539
618.97        42.92127
619.40         43.0378
619.84        43.22565
620.27        43.51527
620.70        43.84346
621.13        44.15477
621.56        43.97095
621.99        44.34914
622.42        43.79743
622.85         44.2105
623.28         44.1731
623.71        44.49591
624.14         43.8907
624.57         44.4078
625.00        44.33632
625.43        44.23462
625.86        44.09456
626.29        43.94027
626.72        43.76647
627.15        43.56129
627.58        43.38655
628.01        43.22195
628.44         42.9331
628.87         42.5649
629.30        42.36803
629.73          42.316
630.16        42.12925
630.59        41.76235
631.02         41.4614
631.45        41.06159
631.88        40.61264
632.31        40.04607
632.74        39.78633
633.17         39.1101
633.60        38.63836
634.03        38.16244
634.46        37.68961
634.89         37.2193
635.32        36.76719
635.75        36.33805
636.18         35.9191
636.61        35.49802
637.04        35.05516
637.47         34.5901
637.89        34.10603
638.32        33.61097
638.75        33.16565
639.18        32.78656
639.61        32.35749
640.04        32.07544
640.47        31.78473
640.90         31.5386
641.33         31.3409
641.76        31.16917
642.18         30.9859
642.61        30.77648
643.04        30.55432
643.47        30.37444
643.90          30.314
644.33        30.38315
644.76        30.59757
645.18        30.87067
645.61        30.97493
646.04        30.85506
646.47        30.90554
646.90        31.12957
647.33        31.32143
647.75        31.48469
648.18        31.77292
648.61        32.16595
649.04        32.55817
649.47        32.95016
649.89        33.37965
650.32         33.8504
650.75        34.43292
651.18        35.11331
651.61        35.71489
652.03        36.24028
652.46         37.0431
652.89        38.04261
653.32        38.49931
653.74        38.50366
654.17        39.39009
654.60        39.73052
655.03        40.96848
655.46         40.7669
655.88        41.91949
656.31        44.37851
656.74        44.68456
657.16        43.99236
657.59        43.47402
658.02        44.47985
658.45        45.15182
658.87        46.12834
659.30        46.41058
659.73        47.20775
660.15         47.8628
660.58        47.73886
661.01        47.92104
661.44        48.22142
661.86        48.37787
662.29        48.46192
662.72        48.98145
663.14        49.80613
663.57        49.98856
664.00        49.63514
664.42        49.67815
664.85        50.18289
665.27        50.61834
665.70         50.9101
666.13        51.20847
666.55        51.49933
666.98        51.74055
667.41        51.94008
667.83        52.10165
668.26        52.22548
668.69        52.32064
669.11        52.40995
669.54        52.53263
669.96        52.69766
670.39        52.89581
670.82        53.09431
671.24        53.24433
671.67        53.32392
672.09        53.34832
672.52         53.3711
672.94        53.52155
673.37        53.40223
673.80        53.94114
674.22        53.91556
674.65        54.18557
675.07        54.42052
675.50        54.63992
675.92        54.82853
676.35        54.95491
676.77        55.03191
677.20        55.05225
677.62        55.05338
678.05        55.09691
678.47        55.19438
678.90        55.33404
679.32        55.48329
679.75        55.59748
680.17        55.65813
680.60          55.688
681.02        55.70268
681.45        55.72668
681.87        55.77328
682.30         55.8352
682.72        55.92535
683.15        55.99267
683.57        56.07245
684.00        56.25712
684.42         56.5035
684.85         56.6987
685.27         56.8293
685.70        56.83466
686.12        56.78675
686.54        57.11402
686.97        57.68661
687.39        57.82971
687.82        57.51226
688.24        57.48439
688.66         57.4911
689.09        57.41834
689.51        57.21976
689.94        57.14892
690.36         57.2264
690.78        57.34328
691.21        57.48584
691.63        57.73654
692.06        58.02116
692.48        58.10724
692.90        58.01866
693.33        58.01254
693.75        58.10395
694.17        58.12518
694.60        58.10593
695.02        58.13228
695.44        58.19652
695.87        58.43086
696.29        58.73735
696.71        58.55029
697.14        58.03236
697.56        58.07572
697.98         58.6199
698.41        58.84632
698.83        58.71048
699.25        58.70911
699.68         58.8616
700.10        58.93604
700.52        58.89804
700.94        59.13181
701.37         59.0352
701.79        59.03316
702.21        58.95072
702.64        58.82563
703.06          58.708
703.48        58.70002
703.90         58.8281
704.33        59.06355
704.75        59.33147
705.17        59.56525
705.59        59.71128
706.01        59.79259
706.44         59.8228
706.86        59.82338
707.28         59.8063
707.70        59.79208
708.12        59.80454
708.55        59.81458
708.97        59.85416
709.39        60.03903
709.81        60.33069
710.23        60.55463
710.66        60.67262
711.08        60.77942
711.50        60.86668
711.92        60.92743
712.34        60.97984
712.76        60.99217
713.19         60.9537
713.61        60.99659
714.03        61.13606
714.45        60.94663
714.87        61.16126
715.29        61.18323
715.71        61.22474
716.13        61.26241
716.56        61.29062
716.98        61.36233
717.40        61.44616
717.82        61.54279
718.24        61.61381
718.66         61.6016
719.08        61.50106
719.50        61.33325
719.92        61.16006
720.34        61.07902
720.76        61.11381
721.19        61.23201
721.61        61.38767
722.03        61.47842
722.45        61.47701
722.87        61.41168
723.29        61.32892
723.71        61.30457
724.13        61.35696
724.55        61.45816
724.97        61.57276
725.39        61.63677
725.81        61.63654
726.23        61.62248
726.65        61.61274
727.07        61.58613
727.49        61.57237
727.91        61.65796
728.33         61.8339
728.75        61.97773
729.17        62.06977
729.59        62.20555
730.01         62.3243
730.43        62.25305
730.85        62.01109
731.27        61.73854
731.69         61.5501
732.10        61.54857
732.52         61.7672
732.94        62.20227
733.36        62.72415
733.78        63.08007
734.20        63.18968
734.62        63.09146
735.04        62.90295
735.46        62.86345
735.88        62.99876
736.30        63.13664
736.72        63.20115
737.13         63.2098
737.55        63.09818
737.97        62.82405
738.39        62.48178
738.81        62.32878
739.23        62.41782
739.65        62.75866
740.06        63.16088
740.48        63.32234
740.90        63.17758
741.32        62.84757
741.74        62.49714
742.16        62.38306
742.57        62.58143
742.99        62.97446
743.41        63.41845
743.83        63.71167
744.25        63.77636
744.67        63.61166
745.08        63.33006
745.50        63.17218
745.92        63.20295
746.34        63.30661
746.75        63.44872
747.17        63.60501
747.59        63.75311
748.01         63.9129
748.42        64.04092
748.84        64.06012
749.26        63.97773
749.68        63.73774
750.09        63.43703
750.51        63.44389
750.93        63.69227
751.35        63.73021
751.76        63.56448
752.18        63.55098
752.60        63.69044
753.01        63.77169
753.43        63.76085
753.85        63.74034
754.27         63.7266
754.68        63.72713
755.10        63.74721
755.52        63.79861
755.93        63.86124
756.35        63.89334
756.77        63.96146
757.18        64.14868
757.60        64.45418
758.02        65.01678
758.43        65.48622
758.85        65.42086
759.26        63.82352
759.68        63.46912
760.10        64.02062
760.51        64.32108
760.93        64.25438
761.34        64.21551
761.76        64.42217
762.18        64.37752
762.59        64.19699
763.01        63.94333
763.42        63.70882
763.84        63.62051
764.26        63.72912
764.67        63.79266
765.09        63.87573
765.50        64.45015
765.92        65.30553
766.33        65.45433
766.75        64.85133
767.16        64.60453
767.58        64.76408
768.00        64.55634
768.41        64.10664
768.83         64.2392
769.24        64.78458
769.66        64.94443
770.07        64.69907
770.49        64.38169
770.90        64.18382
771.32        64.56087
771.73        65.29581
772.15        65.50631
772.56        65.15165
772.97        64.65755
773.39        63.76948
773.80        64.44814
774.22        64.72461
774.63        65.19283
775.05        65.17585
775.46        65.26489
775.88         65.3958
776.29        65.22994
776.70        64.85861
777.12        64.62936
777.53        64.60779
777.95        64.66769
778.36         64.8055
778.77         64.9848
779.19        65.17197
779.60        65.49051
780.02        65.82509
780.43        65.86457
780.84         65.6602
781.26        65.56209
781.67        65.64391
782.09        65.85835
782.50        66.11739
782.91         66.1367
783.33        65.89688
783.74        65.70503
784.15        65.57467
784.57        65.30805
784.98        64.98656
785.39        64.86155
785.81        64.97639
786.22        65.25633
786.63        65.64329
787.04        66.04432
787.46        66.40546
787.87        66.71077
788.28        66.96676
788.70        67.13531
789.11        67.19816
789.52        67.31415
789.93         67.4142
790.35        67.06652
790.76         66.4389
791.17        66.30115
791.58        66.66454
792.00        66.82822
792.41        66.76778
792.82        67.01895
793.23        67.49699
793.65        67.50272
794.06        67.16126
794.47        67.31857
794.88        67.84856
795.29        67.92943
795.71        67.50629
796.12        67.11237
796.53        66.78933
796.94        66.68757
797.35        66.83694
797.76        67.21886
798.18        67.67839
798.59        68.00311
799.00        68.10558
799.41        68.04629
799.82        67.88293
800.23        67.72533
800.64        67.62145
801.06        67.51017
801.47        67.45306
801.88        67.48688
802.29        67.60488
802.70        67.78546
803.11        67.97561
803.52        68.07616
803.93        68.07576
804.34        68.01842
804.75         67.8977
805.17        67.80134
805.58         67.7994
805.99        67.56448
806.40        67.25101
806.81        67.80151
807.22        68.91116
807.63        68.92922
808.04        67.95885
808.45        67.63442
808.86        68.07161
809.27        68.31805
809.68        68.26503
810.09         68.2207
810.50        68.17448
810.91        68.03716
811.32        67.91217
811.73        67.96465
812.14        68.21822
812.55         68.6425
812.96        69.07737
813.37        69.21694
813.78        68.99395
814.19        68.52627
814.60        68.00666
815.01        67.70399
815.42        67.68393
815.83        67.86828
816.24          68.175
816.65        68.43794
817.05        68.57718
817.46        68.60162
817.87        68.55716
818.28        68.45811
818.69        68.32547
819.10        68.15775
819.51        67.97562
819.92        67.83469
820.33        67.75949
820.74        67.73177
821.14        67.78719
821.55        67.98047
821.96        68.29704
822.37        68.73045
822.78        69.13223
823.19        69.23558
823.60        68.97466
824.00         68.4183
824.41        67.78747
824.82        67.46423
825.23        67.53687
825.64         67.9194
826.04        68.41045
826.45        68.57507
826.86         68.3265
827.27        67.80363
827.68        67.24438
828.08        67.04402
828.49        67.25604
828.90        67.78008
829.31        68.44791
829.72        68.97245
830.12        69.27533
830.53        69.37044
830.94        69.36259
831.35        69.38622
831.75        69.50409
832.16        69.59072
832.57        69.63924
832.97        69.61216
833.38        69.50705
833.79        69.40364
834.20        69.27779
834.60        69.06026
835.01        68.78915
835.42        68.45496
835.82          68.251
836.23        68.43467
836.64        69.05948
837.04        70.06824
837.45         71.0535
837.86        71.47774
838.26        71.19517
838.67        70.37329
839.08        69.36234
839.48        68.69469
839.89        68.55337
840.29        68.77033
840.70        69.15993
841.11        69.43268
841.51        69.51475
841.92         69.4813
842.33        69.41037
842.73        69.40423
843.14         69.4529
843.54        69.53336
843.95        69.63921
844.35        69.83436
844.76        70.08811
845.17         70.3684
845.57        70.61905
845.98        70.71291
846.38        70.64034
846.79         70.4381
847.19        70.11777
847.60        69.66719
848.00        69.14553
848.41        68.58004
848.81        68.13598
849.22        68.04498
849.62        68.36842
850.03        69.00468
850.43        69.78707
850.84        70.21968
851.24        70.21544
851.65        69.80482
852.05        69.23989
852.46        68.89683
852.86        68.86775
853.27        69.09157
853.67        69.30682
854.07         69.3407
854.48        69.10984
854.88        68.68833
855.29        68.18752
855.69        68.02171
856.10        68.21261
856.50        68.73573
856.90        69.23213
857.31        69.19843
857.71         68.5953
858.12         67.5555
858.52          66.483
858.92        66.00449
859.33        66.27466
859.73        67.14177
860.13        68.26022
860.54        69.07016
860.94        69.42642
861.34        69.39591
861.75        69.09699
862.15        68.79604
862.55        68.56662
862.96        68.35958
863.36        68.05926
863.76        67.52158
864.17        66.77382
864.57        65.92979
864.97         65.2261
865.38        64.95752
865.78        65.20427
866.18        65.85681
866.58        66.71101
866.99         67.3253
867.39         67.5678
867.79         67.5284
868.19        67.28806
868.60        66.97816
869.00        66.67126
869.40        66.30553
869.80        66.06678
870.21         66.2673
870.61        66.97942
871.01        68.08085
871.41        69.16218
871.81        69.56879
872.22        69.14964
872.62        68.07162
873.02        66.76878
873.42        65.98035
873.82        65.92602
874.22        66.44183
874.63        67.11017
875.03        67.27777
875.43        66.80356
875.83        65.87836
876.23        65.00143
876.63        64.98973
877.03        65.99565
877.44        67.68636
877.84        69.44369
878.24        70.17086
878.64        69.63908
879.04         68.2755
879.44         66.6847
879.84        65.74342
880.24        65.67223
880.64        66.16488
881.04         67.0182
881.44        67.90146
881.84        68.65057
882.24        69.38915
882.65        69.92204
883.05         70.0307
883.45        69.64638
883.85        68.84943
884.25        67.98864
884.65        67.62365
885.05        67.86146
885.45        68.51982
885.85         69.3629
886.25        69.96189
886.65        70.14503
887.05        70.05405
887.45        69.66139
887.85        68.93758
888.25        68.00076
888.65        66.93372
889.04        66.00197
889.44        65.62189
889.84        65.80276
890.24        66.45761
890.64        67.38511
891.04        68.12123
891.44        68.45294
891.84        68.48308
892.24        68.33816
892.64        68.22041
893.04        68.19446
893.44        68.18926
893.83        68.22665
894.23        68.28558
894.63        68.39138
895.03        68.57355
895.43        68.79922
895.83        69.00654
896.23        69.16589
896.63        69.24201
897.02        69.27279
897.42        69.39192
897.82        69.58957
898.22          69.871
898.62        70.03027
899.01         69.7422
899.41         68.9738
899.81        67.85612
900.21        66.81372
900.61        66.49158
901.00        66.99545
901.40        68.12622
901.80        69.37815
902.20        69.90661
902.59        69.49886
902.99        68.42189
903.39        67.14182
903.79        66.36318
904.18        66.27077
904.58          66.672
904.98        67.27091
905.38        67.62274
905.77        67.57854
906.17        67.27926
906.57        66.94102
906.96        66.91847
907.36        67.25565
907.76        67.85284
908.15        68.41653
908.55        68.36117
908.95        67.64661
909.34        66.46892
909.74        65.36601
910.14        65.01835
910.53        65.60181
910.93        66.85265
911.33        68.40716
911.72        69.68768
912.12         70.4098
912.52        70.74047
912.91        70.82853
913.31         70.9296
913.70        71.13176
914.10        71.28206
914.49        71.28753
914.89        71.01537
915.29        70.47754
915.68        69.78625
916.08        69.10488
916.47        68.53364
916.87        68.16834
917.26         67.9366
917.66        67.87942
918.05         68.0747
918.45        68.45922
918.84        69.06559
919.24        69.61487
919.64         69.7728
920.03        69.46973
920.42        68.76744
920.82        68.00928
921.21        67.63808
921.61        67.77087
922.00        68.30967
922.40        68.97028
922.79        69.34396
923.19        69.28687
923.58        68.95338
923.98        68.58772
924.37        68.58161
924.77        69.00248
925.16        69.69865
925.55        70.42088
925.95        70.78116
926.34        70.68562
926.74        70.24645
927.13        69.63013
927.52        69.06245
927.92        68.65188
928.31        68.34233
928.70        68.11227
929.10        67.90952
929.49        67.71603
929.89        67.52905
930.28        67.42275
930.67        67.43623
931.07         67.5526
931.46        67.74898
931.85        67.87959
932.24        67.74339
932.64        67.33664
933.03        66.75143
933.42        66.17446
933.82         65.9153
934.21          66.075
934.60        66.50204
934.99        67.12044
935.39        67.77479
935.78        68.42117
936.17        69.08242
936.56        69.46968
936.96        69.14677
937.35        68.12202
937.74        66.60013
938.13        65.17881
938.53        64.63482
938.92        65.06376
939.31         66.3051
939.70        67.88348
940.09        68.84755
940.49        68.84867
940.88        68.15051
941.27        67.22684
941.66        66.79976
942.05        67.05165
942.44        67.81466
942.84        68.64643
943.23        68.84177
943.62         68.1795
944.01        66.89927
944.40        65.69016
944.79        65.54147
945.18        66.61982
945.57        68.64756
945.97        70.72549
946.36        71.52119
946.75        70.59099
947.14        68.39944
947.53        65.98007
947.92        64.89439
948.31         65.5166
948.70        67.40832
949.09        69.72535
949.48         70.9295
949.87        70.52891
950.26        69.02296
950.65        67.20839
951.04        66.17302
951.43        66.18538
951.82        66.94588
952.21        67.91453
952.60        68.15797
952.99        67.42181
953.38        66.03687
953.77        64.71386
954.16         64.3702
954.55        65.16982
954.94        66.93147
955.33        68.87779
955.72        69.37469
956.11        67.93859
956.50        65.16911
956.89        62.38137
957.28         61.2728
957.66        62.18282
958.05        64.58333
958.44        67.53899
958.83         69.1105
959.22        68.64355
959.61        66.84353
960.00        64.70566
960.39        63.49694
960.78        63.47285
961.16        64.22272
961.55        65.33443
961.94        66.06666
962.33        66.10205
962.72        65.79811
963.11        65.29717
963.49        64.73735
963.88        64.20884
964.27        63.60827
964.66        63.18937
965.04        63.48882
965.43        64.50487
965.82        66.10875
966.21        67.79015
966.60        68.58398
966.98        68.27166
967.37        67.25079
967.76        65.94825
968.15        64.93388
968.53        64.35684
968.92        63.95005
969.31        63.94321
969.69        64.77867
970.08        66.41239
970.47        68.85748
970.86        71.13188
971.24        71.52889
971.63        69.72775
972.02         66.3399
972.40        62.86324
972.79        61.59425
973.17        62.94656
973.56        66.10408
973.95        69.93325
974.33        72.27081
974.72        72.30684
975.11        70.78026
975.49        68.53146
975.88        67.14899
976.26        67.06512
976.65        67.70007
977.04        68.74948
977.42        69.70058
977.81        70.16693
978.19        70.48354
978.58        70.58886
978.96        70.21994
979.35        69.45866
979.74        68.34405
980.12        67.32885
980.51          67.201
980.89        68.17813
981.28        69.85269
981.66        71.89188
982.05        73.42036
982.43        74.22794
982.82        74.51377
983.20        74.10706
983.59        72.68428
983.97        70.43676
984.35        67.53175
984.74        65.08846
985.12        64.65176
985.51        66.34158
985.89        69.82463
986.28        73.63507
986.66        75.63151
987.04        75.03195
987.43        72.44531
987.81         69.0243
988.20        67.15974
988.58        67.50047
988.96        69.42268
989.35        71.60867
989.73        72.13268
990.12         70.4482
990.50        67.36072
990.88        63.93038
991.27        61.81561
991.65        61.46807
992.03        62.39654
992.42        64.05229
992.80         65.9378
993.18        67.67519
993.56        69.40546
993.95        70.92266
994.33        71.93437
994.71        72.25201
995.10        71.99689
995.48        71.26215
995.86         70.3217
996.24        69.33952
996.63        68.17005
997.01        67.40588
997.39        67.88211
997.77        69.66578
998.15        72.46597
998.54         75.1618
998.92        76.02895
999.30        74.66759
999.68        71.50471
1000.06        67.60122
1000.45         65.0396
1000.83        64.66873
1001.21        65.97377
1001.59        68.22601
1001.97        70.13206
1002.35        71.22208
1002.73        71.91324
1003.12        72.34912
1003.50        72.64259
1003.88        72.92933
1004.26        73.06683
1004.64        73.17757
1005.02        73.57098
1005.40        74.24783
1005.78        75.06364
1006.16        75.88085
1006.54        76.49397
1006.92        76.85278
1007.30        77.06493
1007.69        76.93262
1008.07        76.21603
1008.45        74.87746
1008.83        73.03852
1009.21        71.30294
1009.59        70.65724
1009.97        71.28616
1010.35        72.84657
1010.73        74.71676
1011.11        75.82666
1011.49        75.86446
1011.86        75.28715
1012.24        74.08857
1012.62        72.47744
1013.00        70.60032
1013.38        68.27567
1013.76        66.18197
1014.14        65.76923
1014.52        67.42705
1014.90        70.79435
1015.28        74.40488
1015.66        75.92445
1016.04        74.84193
1016.41        71.89132
1016.79        68.12868
1017.17        65.91212
1017.55        66.01168
1017.93        67.35156
1018.31        69.34182
1018.69        71.73698
1019.06        74.71201
1019.44        78.70873
1019.82        83.43354
1020.20        86.26556
1020.58        85.25855
1020.95        81.00408
1021.33        75.82831
1021.71        71.79319
1022.09        68.90366
1022.46        66.45915
1022.84        64.42686
1023.22        62.37351
1023.60        60.75701
1023.97        60.16086
1024.35        60.68271
1024.73        62.36299
