SpectraSmart Spectrum 2.9.0.0
--------- Device Information -----------
Spectrum Name :  反射率_0
Saving Time :  2024/04/30 00:47:03
Spectro-Module Model Name : SE2030-DUVN
Spectro-Module Serial Number : OS361AC55029948
Wavelength Start : 200
Wavelength End : 1025
Wavelength Unit : Wavelength(nm)
Spectrum Unit : Reflectance(%)
-----------Spectrum Setting ------------
Integration Time : 20ms
Average : 10
Boxcar : 0
Background removal :  enabled
linearity correction :  enabled
SC :  disabled
Intensity correction :  disabled
DWT denoise :  enabled
savitzky-golay :  disabled
FFT :  disabled
Running average :  disabled
Kalman :  disabled
High pass :  disabled
---------------BEGIN--------------------
Wavelength(nm)             Reflectance(%)
200.29               0
200.75        52.82178
201.21         43.6289
201.67         32.0231
202.13        20.73207
202.58        11.39602
203.04        3.573233
203.50      -0.8233245
203.96        2.359171
204.42        13.72546
204.88        31.23372
205.34        48.65042
205.80        56.36152
206.26        54.17816
206.72        47.67704
207.18        39.78382
207.64        31.74353
208.10        23.37991
208.55        13.40008
209.01        4.272369
209.47        2.838375
209.93        9.693089
210.39        21.15298
210.85        31.09478
211.31        34.46125
211.77        30.96796
212.23        20.21729
212.69        4.621505
213.14       -1.505239
213.60        8.330888
214.06        25.60171
214.52        39.62953
214.98        43.59877
215.44        38.90362
215.90        28.42528
216.36        16.12888
216.81        9.622307
217.27        12.93552
217.73        25.48679
218.19        46.11982
218.65         63.5146
219.11        68.06092
219.57        63.10015
220.02        55.48929
220.48        50.72128
220.94        48.58051
221.40        47.06784
221.86        44.99321
222.32        41.19415
222.77         36.7805
223.23        34.07612
223.69        32.68606
224.15        31.73361
224.61        30.91189
225.06        29.98623
225.52        29.73817
225.98        31.23989
226.44        34.03321
226.90         37.0433
227.36        39.22625
227.81        40.00399
228.27        39.64885
228.73        38.45174
229.19        37.06826
229.65        36.84238
230.10        37.92933
230.56         39.5507
231.02        40.95588
231.48        41.56936
231.93        41.34371
232.39        40.59808
232.85        39.49073
233.31        38.38547
233.77        37.45798
234.22        36.70677
234.68        35.98827
235.14        35.09968
235.60        34.14174
236.05        33.34586
236.51        33.08344
236.97        33.76057
237.43        35.49518
237.88        38.38262
238.34        42.24427
238.80        46.27049
239.26        49.29726
239.71        51.21056
240.17        51.61345
240.63        50.62018
241.08        48.26473
241.54        43.49767
242.00        36.60853
242.46        33.08139
242.91        39.15438
243.37        53.54534
243.83        68.77667
244.28        78.03757
244.74        80.91566
245.20        78.36395
245.66        71.05326
246.11        61.66543
246.57        52.68966
247.03        43.99029
247.48        37.09219
247.94        35.02346
248.40        37.71628
248.85        42.65573
249.31        48.20509
249.77        53.96727
250.22         61.0724
250.68         71.5051
251.14        85.18709
251.59        91.70738
252.05        84.52394
252.51        72.47264
252.96        62.99319
253.42        58.36603
253.88        56.71569
254.33         56.4193
254.79        57.28057
255.25        58.21062
255.70        58.47628
256.16        58.74516
256.62        58.68485
257.07        57.95423
257.53        56.99103
257.99        55.73926
258.44        54.30727
258.90        53.59135
259.35        53.26928
259.81        53.29441
260.27        53.32759
260.72        53.13059
261.18        52.83601
261.63         52.2934
262.09          51.595
262.55         50.5585
263.00        49.22787
263.46        47.90594
263.91        46.58125
264.37        45.48798
264.83         44.5567
265.28        43.67519
265.74        42.97306
266.19        42.43997
266.65        42.10937
267.11        41.90319
267.56        41.67474
268.02        41.20605
268.47         40.4332
268.93        39.43988
269.38        38.30174
269.84          37.281
270.30         36.4647
270.75        35.80265
271.21        35.27022
271.66        34.79142
272.12         34.3216
272.57        33.84827
273.03        33.36391
273.48        32.77094
273.94        32.11964
274.39        31.41096
274.85        30.71452
275.31        30.06114
275.76        29.44633
276.22        28.87561
276.67        28.35852
277.13        27.99188
277.58         27.7276
278.04        27.57516
278.49        27.37445
278.95        26.97936
279.40        26.34521
279.86        25.60324
280.31        24.87155
280.77        24.43844
281.22        24.30885
281.68        24.40129
282.13        24.57654
282.59        24.68512
283.04        24.65932
283.50        24.54138
283.95        24.33296
284.41        24.04302
284.86        23.69197
285.32        23.33352
285.77        22.96596
286.22        22.65507
286.68        22.43084
287.13         22.2404
287.59        22.16311
288.04        22.26095
288.50        22.52295
288.95        22.87565
289.41        23.16885
289.86        23.14584
290.32        22.80179
290.77        22.23637
291.22        21.62221
291.68        21.23475
292.13        21.15302
292.59        21.31514
293.04        21.69914
293.50        22.28992
293.95        23.04443
294.40        23.96685
294.86        24.91261
295.31        25.66654
295.77        26.17392
296.22        26.46399
296.68         26.6973
297.13        27.12053
297.58        27.79542
298.04        28.62049
298.49        29.44717
298.95         30.0351
299.40        30.33789
299.85        30.45914
300.31        30.53144
300.76        30.69563
301.21        31.02068
301.67        31.45091
302.12        31.92758
302.58        32.50512
303.03        33.14737
303.48        33.71503
303.94        34.12449
304.39        34.92872
304.84        34.96485
305.30        35.18449
305.75        35.30096
306.20        35.47635
306.66        35.74185
307.11        36.05162
307.57         36.3673
308.02        36.55304
308.47        36.60214
308.93        36.55959
309.38        36.47702
309.83        36.48459
310.29        36.60454
310.74        36.78892
311.19        36.94443
311.65        36.92111
312.10        36.69278
312.55        36.32309
313.00        35.93166
313.46        35.70202
313.91        35.66264
314.36        35.75115
314.82        35.87522
315.27        35.90685
315.72        35.79068
316.18        35.57751
316.63        35.27508
317.08        34.90668
317.53        34.50331
317.99        34.07221
318.44        33.66133
318.89         33.3541
319.35        33.16618
319.80        33.07491
320.25          33.049
320.70         33.0304
321.16        32.97845
321.61        32.91584
322.06        32.80271
322.51        32.59049
322.97        32.27861
323.42        31.88838
323.87        31.47953
324.32        31.15455
324.78        30.92946
325.23         30.7937
325.68        30.69741
326.13        30.55664
326.59        30.33971
327.04        30.08333
327.49        29.80753
327.94        29.55749
328.39        29.33979
328.85         29.1192
329.30         28.8966
329.75        28.63327
330.20         28.3295
330.66        28.01125
331.11        27.69744
331.56        27.38614
332.01        27.08559
332.46         26.7909
332.92        26.53738
333.37        26.41855
333.82        26.43495
334.27         26.5547
334.72        26.68175
335.17        26.65707
335.63        26.43543
336.08        26.07033
336.53        25.63176
336.98        25.26002
337.43        25.01143
337.88        24.85431
338.34        24.76714
338.79          24.732
339.24        24.72375
339.69        24.75446
340.14        24.79906
340.59        24.81143
341.05        24.77787
341.50        24.69482
341.95        24.58092
342.40        24.48047
342.85        24.40129
343.30        24.32704
343.75        24.23278
344.20        24.07999
344.66        23.87599
345.11        23.63956
345.56        23.39935
346.01        23.19402
346.46        23.04271
346.91        22.93409
347.36        22.87722
347.81        22.88581
348.26        22.94774
348.72        23.04708
349.17        23.13508
349.62        23.13223
350.07        23.01955
350.52        22.82366
350.97         22.5857
351.42        22.36789
351.87        22.19665
352.32        22.06648
352.77        21.97968
353.22        21.93646
353.67        21.93238
354.13        21.96193
354.58        22.02094
355.03        22.10307
355.48         22.1895
355.93        22.26268
356.38        22.28525
356.83         22.2062
357.28        22.02312
357.73        21.76403
358.18         21.4645
358.63        21.18199
359.08        20.93955
359.53        20.72184
359.98        20.54785
360.43        20.44312
360.88        20.40141
361.33        20.41675
361.78        20.42347
362.23        20.31431
362.68          20.075
363.13        19.74271
363.58            19.4
364.03        19.18141
364.48        19.11766
364.93        19.16059
365.38        19.25467
365.83        19.30933
366.28        19.29129
366.73        19.22993
367.18        19.12488
367.63        18.97481
368.08        18.78979
368.53        18.56685
368.98        18.34731
369.43        18.20264
369.88        18.14821
370.33         18.1695
370.78        18.21649
371.23        18.20142
371.68        18.10031
372.13        17.93495
372.58        17.74744
373.03         17.6088
373.48        17.53304
373.93        17.48955
374.38        17.44309
374.83        17.33907
375.28        17.16834
375.72        16.95774
376.17        16.74039
376.62        16.52442
377.07        16.31918
377.52        16.11553
377.97        15.95224
378.42        15.89462
378.87        15.94899
379.32        16.09543
379.77        16.25104
380.22        16.29251
380.67         16.1946
381.11        15.98268
381.56         15.7468
382.01        15.63736
382.46        15.68736
382.91        15.84947
383.36        16.01489
383.81        16.01867
384.26        15.83176
384.71         15.5128
385.15        15.16835
385.60        14.98705
386.05        14.99814
386.50        15.13743
386.95        15.30856
387.40        15.36189
387.85        15.26541
388.29        15.06944
388.74         14.8596
389.19         14.6988
389.64        14.60675
390.09        14.55098
390.54        14.53346
390.98        14.55893
391.43        14.62269
391.88        14.72349
392.33        14.81304
392.78        14.83645
393.23        14.79001
393.67        14.65261
394.12        14.49659
394.57        14.52409
395.02        14.53768
395.47        14.67941
395.91        14.81903
396.36        14.83285
396.81        14.70154
397.26        14.47266
397.71        14.23062
398.15        14.09062
398.60        14.09385
399.05        14.16568
399.50        14.24638
399.95        14.31368
400.39        14.27434
400.84        14.15307
401.29        13.97225
401.74        13.85897
402.18        13.84176
402.63        13.85289
403.08        13.88643
403.53        13.94554
403.97        14.01854
404.42        14.10901
404.87        14.17195
405.32        14.13303
405.76        13.98144
406.21        13.74586
406.66         13.5084
407.11        13.40061
407.55        13.45592
408.00        13.64143
408.45        13.86586
408.90        13.96059
409.34        13.87914
409.79        13.66991
410.24        13.45248
410.68        13.40884
411.13        13.57594
411.58        13.89538
412.03         14.2348
412.47        14.36961
412.92        14.23472
413.37        13.91997
413.81        13.56168
414.26        13.38147
414.71        13.41562
415.15        13.59855
415.60        13.83186
416.05        13.96809
416.49        13.96029
416.94        13.86571
417.39        13.72775
417.83        13.60957
418.28        13.54089
418.73        13.48803
419.17        13.46717
419.62        13.50953
420.07        13.60901
420.51        13.75831
420.96        13.89563
421.41        13.91309
421.85        13.79362
422.30        13.58971
422.74        13.37321
423.19        13.27327
423.64        13.31047
424.08        13.45528
424.53        13.64345
424.98        13.78539
425.42        13.84793
425.87         13.8436
426.31        13.79899
426.76        13.78014
427.21        13.75666
427.65        13.73526
428.10        13.69794
428.54        13.59932
428.99        13.45396
429.44         13.3732
429.88        13.34669
430.33        13.18435
430.77         12.9815
431.22        13.14971
431.66        13.61919
432.11        13.84382
432.56        13.73575
433.00        13.61647
433.45        13.51913
433.89        13.21544
434.34        12.88519
434.78         13.0041
435.23        13.45873
435.67         13.6423
436.12        13.50677
436.57         13.3839
437.01        13.33664
437.46        13.33038
437.90        13.38088
438.35        13.48327
438.79         13.5946
439.24        13.62523
439.68        13.57941
440.13        13.54276
440.57        13.50328
441.02        13.44732
441.46        13.38622
441.91        13.23083
442.35        13.05411
442.80        13.24084
443.24        13.66929
443.69        13.67677
444.13        13.29605
444.58        13.14628
445.02        13.22914
445.47        13.20937
445.91         13.0897
446.36        13.04711
446.80        13.08466
447.24        13.15939
447.69        13.25043
448.13        13.32588
448.58        13.37447
449.02        13.40351
449.47        13.42624
449.91        13.45473
450.36        13.49292
450.80        13.53424
451.25        13.56154
451.69        13.54809
452.13        13.48999
452.58         13.4059
453.02        13.31973
453.47         13.2673
453.91        13.25501
454.36        13.31226
454.80        13.35262
455.24        13.39055
455.69        13.39854
456.13        13.38041
456.58        13.36021
457.02        13.36186
457.46        13.39342
457.91        13.44572
458.35        13.48827
458.79        13.48176
459.24        13.43171
459.68        13.35891
460.13        13.30592
460.57        13.27609
461.01        13.38138
461.46        13.46754
461.90        13.54766
462.34        13.72006
462.79        13.90725
463.23         13.8314
463.68        13.55163
464.12        13.41365
464.56        13.44292
465.01        13.47674
465.45        13.48203
465.89        13.47184
466.34        13.46184
466.78        13.51661
467.22        13.64284
467.67        13.62863
468.11        13.47743
468.55        13.26933
468.99        13.08143
469.44        12.99955
469.88        13.04569
470.32        13.19932
470.77        13.39022
471.21        13.51544
471.65        13.53816
472.10        13.49473
472.54        13.42699
472.98        13.41669
473.42         13.4818
473.87        13.59013
474.31        13.70295
474.75        13.76513
475.20        13.76869
475.64        13.73347
476.08        13.68602
476.52        13.66186
476.97        13.67213
477.41        13.69932
477.85        13.74518
478.29        13.81147
478.74        13.89639
479.18        13.99231
479.62        14.06973
480.06        14.11576
480.50        14.13545
480.95        14.00997
481.39        13.99269
481.83        14.01116
482.27        14.14761
482.72        14.25504
483.16        14.48818
483.60        14.60286
484.04        14.62727
484.48        14.64832
484.93        14.69533
485.37        14.67313
485.81        14.54866
486.25        14.86073
486.69        14.33605
487.14        14.65863
487.58        15.35905
488.02        15.45029
488.46        15.70771
488.90        15.98535
489.34        15.31547
489.79        15.35498
490.23        15.68163
490.67        15.96762
491.11        16.10901
491.55        16.10265
491.99        16.02532
492.43        16.11874
492.88        16.39511
493.32        16.65269
493.76         16.8448
494.20        17.03011
494.64        17.20335
495.08        17.33913
495.52         17.4327
495.96        17.52954
496.41        17.64468
496.85        17.66401
497.29        17.63092
497.73        17.92979
498.17        18.28176
498.61        18.40396
499.05        18.25339
499.49        18.24316
499.93        18.40765
500.37        18.57677
500.82        18.72609
501.26        18.86234
501.70        18.97624
502.14        19.09319
502.58        19.21925
503.02        19.34015
503.46        19.45674
503.90        19.57576
504.34        19.69326
504.78        19.79975
505.22        19.89242
505.66        19.97021
506.10        20.03097
506.54          20.095
506.98        20.16968
507.42        20.21158
507.86        20.20678
508.30        20.36196
508.74        20.30623
509.18        20.34096
509.62        20.37199
510.06        20.43513
510.50         20.5312
510.94        20.65546
511.38        20.78189
511.82        20.85612
512.26        20.86704
512.70         20.8307
513.14        20.78079
513.58        20.76988
514.02        20.81253
514.46        20.89485
514.90        20.99179
515.34        21.06227
515.78        21.09267
516.22        21.09201
516.66        21.08159
517.10        21.09448
517.54        21.13586
517.98        21.19327
518.42        21.23604
518.86        21.21669
519.30        21.12935
519.74        20.99575
520.18        20.85699
520.62        20.77339
521.06        20.76168
521.50        20.80677
521.93         20.8822
522.37        20.93666
522.81         20.9544
523.25        20.94356
523.69        20.92244
524.13         20.9205
524.57        20.94099
525.01        20.97036
525.45        20.97891
525.89        20.92204
526.32         20.7929
526.76        20.61888
527.20         20.4391
527.64        20.31228
528.08        20.25194
528.52        20.23931
528.96         20.2501
529.40         20.2445
529.83        20.20784
530.27        20.15511
530.71        20.08853
531.15        20.01424
531.59        19.93616
532.03        19.84904
532.46         19.7611
532.90        19.69407
533.34        19.65048
533.78        19.62946
534.22        19.61395
534.66        19.57495
535.09        19.50668
535.53        19.42435
535.97        19.34935
536.41        19.32232
536.85        19.34964
537.28        19.41429
537.72        19.48934
538.16        19.53508
538.60        19.54036
539.04        19.52202
539.47        19.48515
539.91        19.45687
540.35        19.44242
540.79        19.44134
541.22        19.46581
541.66        19.53908
542.10        19.66028
542.54        19.82253
542.97        20.00565
543.41        20.17795
543.85        20.32978
544.29        20.47274
544.72        20.60164
545.16        20.72559
545.60        20.84742
546.04        20.95498
546.47        21.07169
546.91        21.26823
547.35        21.53282
547.79         21.7811
548.22         21.9787
548.66        22.19131
549.10        22.42029
549.53        22.55666
549.97        22.58449
550.41        22.94432
550.84        22.95679
551.28        23.13196
551.72        23.25944
552.15        23.53512
552.59        23.66221
553.03        23.87556
553.46        24.07837
553.90        24.25071
554.34        24.38262
554.77        24.50533
555.21        24.62498
555.65        24.68649
556.08        24.71561
556.52        24.82879
556.96        25.00903
557.39        25.16854
557.83        25.29117
558.27        25.37508
558.70        25.44711
559.14        25.55738
559.57        25.68299
560.01        25.87518
560.45        25.94954
560.88        25.92716
561.32         25.9249
561.75        25.96326
562.19        26.07813
562.63        26.14439
563.06         26.1592
563.50        26.20577
563.93        26.28505
564.37        26.38633
564.80        26.50095
565.24        26.63552
565.68        26.77175
566.11        26.89925
566.55        27.01415
566.98         27.0808
567.42        27.14683
567.85        27.23443
568.29        27.35317
568.72        27.57281
569.16        27.91246
569.60        27.82817
570.03        28.17649
570.47        28.35242
570.90        28.39505
571.34        28.63877
571.77        28.70547
572.21        28.79614
572.64        28.94277
573.08        29.04575
573.51        29.15266
573.95        29.38621
574.38        29.60277
574.82         29.5579
575.25        29.61058
575.69        29.50415
576.12        29.41562
576.56        29.47076
576.99        29.56835
577.42        29.62826
577.86        29.61727
578.29        29.43868
578.73        29.52933
579.16        29.24328
579.60         29.2639
580.03        29.24615
580.47        29.49032
580.90        29.41757
581.33         29.1116
581.77        28.93492
582.20        28.65719
582.64        28.67731
583.07        28.33677
583.51        28.24152
583.94        28.30656
584.37        28.10968
584.81        27.72217
585.24         27.7843
585.68        28.08921
586.11        27.93749
586.54        27.50892
586.98        27.60774
587.41        28.22138
587.85        27.78707
588.28        27.55234
588.71        27.74889
589.15        27.48139
589.58        27.48117
590.01        27.42464
590.45         27.3918
590.88        27.41592
591.31        27.48865
591.75         27.5507
592.18         27.6393
592.61            27.8
593.05        27.45178
593.48        27.65307
593.91        27.94636
594.35        27.49237
594.78        27.55191
595.21        27.79471
595.65        27.90375
596.08        27.69933
596.51        28.28206
596.94        28.66412
597.38        29.10442
597.81        29.28421
598.24        29.24841
598.68        29.37275
599.11         29.7123
599.54        30.21782
599.97        30.48502
600.41        30.49827
600.84        31.10557
601.27        31.30956
601.70        31.84216
602.14        32.33169
602.57        32.59675
603.00        32.69132
603.43        33.04954
603.87        33.56432
604.30        34.27298
604.73        34.51825
605.16        35.01029
605.60        35.52958
606.03        35.98214
606.46        36.31177
606.89        36.64853
607.32        37.02057
607.76        37.38776
608.19        37.76927
608.62        37.99924
609.05        38.44269
609.48         38.8461
609.92        39.20963
610.35        39.55336
610.78        39.62959
611.21        39.50422
611.64        40.03088
612.07        40.41751
612.50        40.89045
612.94        41.14249
613.37        41.84028
613.80         41.7939
614.23        42.43307
614.66        42.57529
615.09        42.63378
615.52        42.85316
615.96        43.22262
616.39         43.3718
616.82        43.29998
617.25        43.74408
617.68        43.86833
618.11        44.25949
618.54        44.58605
618.97        44.67085
619.40        44.59023
619.84        44.68936
620.27        45.02399
620.70        45.41529
621.13        45.74856
621.56        45.76618
621.99        45.66254
622.42        45.35064
622.85        45.93299
623.28        45.57158
623.71         46.1006
624.14        45.46175
624.57        45.94021
625.00        45.88568
625.43        45.85512
625.86        45.59682
626.29        45.40852
626.72         45.4459
627.15         45.1554
627.58        45.05449
628.01        44.94101
628.44        44.78859
628.87        44.59105
629.30        44.41831
629.73        44.27125
630.16        44.06152
630.59        43.77843
631.02        43.56068
631.45        43.21246
631.88        42.88102
632.31        42.51164
632.74        42.11656
633.17        41.69954
633.60        41.27229
634.03        40.84177
634.46        40.40145
634.89        39.96587
635.32         39.5612
635.75         39.1902
636.18        38.84136
636.61        38.48865
637.04        38.10266
637.47        37.68507
637.89        37.19599
638.32        36.71576
638.75        36.30814
639.18        36.02242
639.61        35.56735
640.04        35.41603
640.47        35.16197
640.90        34.93874
641.33        34.74857
641.76        34.58196
642.18        34.41709
642.61        34.23897
643.04        34.05886
643.47        33.91796
643.90        33.87105
644.33        33.92435
644.76        34.10655
645.18        34.34469
645.61        34.42348
646.04        34.29081
646.47        34.37236
646.90        34.64999
647.33        34.85827
647.75         34.9879
648.18        35.21897
648.61        35.54074
649.04        35.84448
649.47        36.12864
649.89        36.45665
650.32        36.82862
650.75        37.22389
651.18        37.66243
651.61        38.19723
652.03        38.79097
652.46        39.41771
652.89        40.03077
653.32        40.38649
653.74        40.55413
654.17        41.24865
654.60        41.50661
655.03        42.58109
655.46        42.27885
655.88         43.2336
656.31        45.17875
656.74        45.00446
657.16        44.53839
657.59        44.01112
658.02        44.45827
658.45        45.96251
658.87        46.72726
659.30        46.53011
659.73        47.27772
660.15         47.8148
660.58        48.23159
661.01        48.41402
661.44        48.34805
661.86        48.33224
662.29        48.45249
662.72        48.94342
663.14        49.64508
663.57        49.66941
664.00         49.1601
664.42        49.12329
664.85        49.62709
665.27        50.08316
665.70        50.38544
666.13        50.66415
666.55        50.89275
666.98        51.03054
667.41        51.10809
667.83        51.16844
668.26        51.21983
668.69        51.28011
669.11        51.36748
669.54        51.45174
669.96        51.52345
670.39        51.82878
670.82         51.9123
671.24        52.07928
671.67        52.18071
672.09        52.23679
672.52         52.2857
672.94        52.44238
673.37        52.31849
673.80        52.82232
674.22        52.76956
674.65        53.02423
675.07        53.26753
675.50        53.51141
675.92        53.72721
676.35        53.86213
676.77        53.92286
677.20         53.9094
677.62        53.87058
678.05        53.88377
678.47        53.96806
678.90         54.1128
679.32        54.27574
679.75        54.39551
680.17        54.44848
680.60        54.45958
681.02        54.46849
681.45         54.5201
681.87        54.62588
682.30        54.81904
682.72        55.06112
683.15        55.09077
683.57        54.98419
684.00        55.14593
684.42        55.51976
684.85        55.70412
685.27        55.68145
685.70        55.60309
686.12        55.55161
686.54         55.8223
686.97        56.35163
687.39        56.65033
687.82        56.58205
688.24        56.91953
688.66        56.72387
689.09        56.48346
689.51        56.18726
689.94        56.01556
690.36        56.05475
690.78        56.23172
691.21        56.48285
691.63        56.67717
692.06        56.77551
692.48         56.8345
692.90        56.86937
693.33        56.89515
693.75        56.92567
694.17        56.93694
694.60        56.96545
695.02        57.06401
695.44        57.22817
695.87        57.52507
696.29        57.86275
696.71        57.85732
697.14        57.58003
697.56         57.5349
697.98        57.74248
698.41        57.81734
698.83        57.77224
699.25        57.92099
699.68        58.19988
700.10        58.34998
700.52        58.32728
700.94        58.24342
701.37        58.13983
701.79        58.07654
702.21        58.07071
702.64        58.11005
703.06        58.18167
703.48        58.27759
703.90         58.3919
704.33        58.53876
704.75        58.67822
705.17        58.80378
705.59        58.88904
706.01        58.93647
706.44        58.96341
706.86        59.00554
707.28        59.06899
707.70        59.15033
708.12        59.24318
708.55        59.32189
708.97         59.3853
709.39         59.4418
709.81        59.51233
710.23         59.6404
710.66          59.821
711.08        60.04656
711.50        60.26003
711.92        60.40421
712.34        60.46576
712.76        60.46277
713.19        60.40868
713.61        60.36854
714.03        60.34791
714.45        60.33858
714.87        60.35374
715.29        60.40978
715.71        60.50425
716.13         60.6361
716.56        60.75886
716.98        60.85888
717.40        60.90074
717.82        60.90658
718.24        60.89258
718.66        60.87653
719.08        60.86805
719.50        60.86562
719.92        60.86572
720.34        60.85773
720.76         60.8406
721.19        60.81742
721.61         60.7981
722.03         60.7727
722.45        60.74143
722.87        60.70253
723.29        60.67232
723.71        60.67729
724.13         60.7214
724.55        60.80064
724.97        60.88451
725.39        60.91969
725.81        60.90151
726.23        60.85361
726.65        60.81811
727.07        60.86362
727.49        60.99875
727.91         61.1862
728.33        61.40142
728.75        61.58617
729.17        61.71191
729.59         61.8489
730.01        61.94707
730.43        61.80567
730.85        61.49167
731.27        61.30859
731.69        61.31126
732.10        61.36028
732.52        61.46592
732.94        61.74368
733.36        62.12299
733.78        62.39348
734.20        62.50124
734.62        62.50396
735.04        62.44847
735.46        62.41039
735.88        62.42674
736.30        62.46907
736.72        62.51048
737.13        62.58556
737.55        62.61041
737.97        62.42057
738.39        62.10205
738.81        61.94561
739.23        61.99441
739.65         62.1581
740.06        62.32573
740.48        62.38533
740.90        62.29467
741.32        62.11192
741.74        61.92667
742.16        61.87384
742.57        61.99738
742.99         62.2393
743.41         62.5224
743.83        62.71478
744.25        62.78153
744.67        62.75528
745.08        62.70265
745.50        62.72459
745.92         62.8506
746.34        63.02681
746.75        63.21254
747.17        63.33676
747.59        63.37541
748.01        63.40882
748.42        63.43173
748.84        63.28114
749.26        63.03859
749.68        63.00103
750.09         63.1404
750.51        63.19629
750.93        63.14707
751.35        63.15675
751.76        63.22827
752.18        63.27896
752.60        63.30258
753.01         63.3266
753.43         63.3343
753.85        63.32665
754.27        63.31973
754.68        63.34118
755.10        63.38163
755.52        63.42768
755.93        63.45145
756.35        63.42142
756.77        63.42883
757.18        63.52825
757.60        63.71657
758.02        64.27526
758.43        64.88666
758.85        64.48879
759.26         63.1074
759.68        62.79003
760.10        63.48871
760.51        63.89719
760.93        63.88394
761.34        64.02895
761.76        64.25969
762.18        64.24926
762.59        64.02342
763.01        63.65882
763.42        63.29664
763.84        63.10557
764.26        63.15483
764.67        63.29941
765.09         63.5126
765.50        63.89723
765.92        64.40464
766.33        64.41641
766.75        64.53986
767.16        64.47543
767.58        64.43257
768.00         63.9647
768.41        63.31035
768.83        63.59839
769.24        64.53369
769.66        64.49742
770.07        63.59592
770.49        63.25119
770.90         63.5658
771.32        63.91989
771.73        64.18349
772.15        64.28064
772.56        64.18343
772.97        64.11926
773.39        63.78057
773.80        63.99117
774.22        64.52029
774.63        64.90438
775.05        64.99318
775.46        64.96148
775.88        64.82633
776.29        64.69637
776.70         64.5908
777.12        64.43531
777.53        64.25762
777.95        64.14558
778.36        64.16065
778.77        64.27811
779.19        64.49566
779.60        64.94765
780.02        65.43483
780.43        65.55598
780.84        65.36571
781.26        65.07534
781.67        64.88193
782.09         65.4137
782.50        66.35966
782.91        66.20635
783.33        65.06548
783.74        64.53999
784.15        64.72523
784.57        64.68225
784.98        64.42202
785.39        64.41864
785.81        64.68346
786.22        65.07409
786.63        65.50973
787.04        65.86624
787.46        66.09385
787.87        66.20056
788.28        66.23869
788.70        66.25951
789.11        66.27474
789.52        66.36618
789.93        66.45569
790.35        66.25105
790.76        65.84471
791.17        65.63507
791.58        65.69425
792.00        65.85796
792.41        66.08387
792.82        66.32812
793.23        66.53014
793.65        66.60599
794.06        66.59531
794.47        66.67303
794.88        66.80532
795.29        66.75962
795.71        66.50698
796.12        66.28168
796.53        66.14777
796.94        66.04534
797.35        66.07303
797.76        66.47469
798.18        67.06119
798.59         67.6351
799.00        67.49685
799.41        67.38401
799.82        67.21449
800.23        67.08153
800.64        67.03526
801.06        67.02919
801.47        67.08431
801.88        67.14894
802.29        67.19781
802.70        67.23175
803.11         67.2406
803.52        67.20327
803.93        67.13765
804.34        67.06633
804.75        66.96634
805.17        66.91441
805.58        66.97046
805.99        66.75928
806.40        66.43436
806.81        67.06671
807.22        68.29046
807.63        68.15337
808.04        66.83276
808.45        66.37547
808.86        66.94294
809.27        67.36606
809.68        67.47168
810.09        67.54484
810.50        67.54256
810.91         67.3916
811.32        67.20393
811.73        67.15886
812.14        67.29511
812.55         67.5732
812.96        67.89388
813.37        68.05724
813.78        68.01089
814.19        67.84071
814.60        67.62156
815.01        67.45257
815.42        67.36501
815.83         67.3061
816.24        67.29102
816.65        67.38118
817.05        67.55744
817.46        67.71397
817.87        67.80493
818.28        67.76734
818.69        67.59017
819.10        67.26885
819.51        66.92403
819.92        66.80499
820.33        66.97275
820.74        67.33652
821.14        67.77376
821.55        68.10453
821.96        68.26244
822.37        68.30578
822.78        68.23753
823.19        68.07338
823.60          67.841
824.00        67.52763
824.41        67.21503
824.82         67.0647
825.23        67.10246
825.64        67.31127
826.04        67.56931
826.45        67.58022
826.86        67.30567
827.27        66.83371
827.68         66.3569
828.08        66.20377
828.49        66.40968
828.90        66.91015
829.31        67.55351
829.72        68.07378
830.12        68.40089
830.53        68.52675
830.94        68.57263
831.35        68.70866
831.75        68.99136
832.16        69.28179
832.57        69.49387
832.97        69.45723
833.38        69.15318
833.79        68.72118
834.20         68.2444
834.60         67.8093
835.01        67.49284
835.42        67.24146
835.82        67.20368
836.23        67.55909
836.64         68.3244
837.04        69.46016
837.45        70.54856
837.86        71.03183
838.26        70.76186
838.67        69.90584
839.08        68.83364
839.48        68.11507
839.89        67.95275
840.29        68.18265
840.70        68.62557
841.11        68.99887
841.51        69.22063
841.92         69.3465
842.33        69.44865
842.73        69.61747
843.14        69.82417
843.54        70.04485
843.95        70.20454
844.35        70.26723
844.76        70.19699
845.17         69.9946
845.57        69.74955
845.98        69.56683
846.38         69.4963
846.79        69.53246
847.19         69.5285
847.60        69.19264
848.00        68.51722
848.41        67.61377
848.81        66.82936
849.22        66.67622
849.62        67.27598
850.03        68.43938
850.43        69.81709
850.84        70.58758
851.24        70.55025
851.65        69.82287
852.05        68.81909
852.46        68.19308
852.86        68.11909
853.27        68.44299
853.67        68.79478
854.07        68.85358
854.48        68.50967
854.88        67.90089
855.29        67.19893
855.69        66.92995
856.10        67.16323
856.50        67.81443
856.90         68.5023
857.31        68.70087
857.71        68.34129
858.12        67.55824
858.52        66.66762
858.92        66.14806
859.33        66.13199
859.73        66.51382
860.13        67.08856
860.54        67.53365
860.94        67.77866
861.34        67.84821
861.75        67.76535
862.15        67.61209
862.55        67.39968
862.96        67.12743
863.36        66.74808
863.76        66.22271
864.17        65.59868
864.57        64.94409
864.97        64.42179
865.38        64.22758
865.78        64.42001
866.18        64.91526
866.58        65.58875
866.99        66.15422
867.39        66.52099
867.79        66.72433
868.19         66.7366
868.60        66.52639
869.00        66.13774
869.40        65.57715
869.80        65.09612
870.21        65.12171
870.61        65.76788
871.01        66.85908
871.41         68.0115
871.81        68.60938
872.22         68.4905
872.62        67.83002
873.02        66.90863
873.42        66.21096
873.82        65.91824
874.22        65.93029
874.63        66.09254
875.03        66.16734
875.43        66.09082
875.83        65.93819
876.23        65.89776
876.63        66.25685
877.03        67.03549
877.44        68.06496
877.84        69.04472
878.24         69.4062
878.64        69.04575
879.04        68.18467
879.44        67.18053
879.84        66.55807
880.24         66.4434
880.64        66.66082
881.04        67.08759
881.44        67.51074
881.84        67.83362
882.24        68.14571
882.65        68.31135
883.05        68.22716
883.45        67.85071
883.85        67.24232
884.25        66.66946
884.65        66.55363
885.05        66.96083
885.45        67.73647
885.85        68.65112
886.25        69.29734
886.65        69.51563
887.05          69.429
887.45        69.03751
887.85        68.36734
888.25        67.53529
888.65        66.59585
889.04        65.77187
889.44        65.42065
889.84        65.53792
890.24        66.05542
890.64        66.77696
891.04        67.26244
891.44        67.34693
891.84        67.16576
892.24        66.87678
892.64        66.71108
893.04        66.72999
893.44        66.83793
893.83        67.06507
894.23        67.39725
894.63        67.82207
895.03        68.34081
895.43        68.81144
895.83        69.01302
896.23        68.90608
896.63        68.52267
897.02        68.03738
897.42        67.81724
897.82        67.92167
898.22        68.28087
898.62        68.64685
899.01        68.60908
899.41        68.08141
899.81        67.22928
900.21        66.37597
900.61        66.00741
901.00        66.22489
901.40        66.87032
901.80        67.64067
902.20        68.04371
902.59        67.93324
902.99        67.44776
903.39         66.8267
903.79        66.42201
904.18        66.32983
904.58        66.47581
904.98        66.67271
905.38        66.65375
905.77          66.341
906.17        65.81423
906.57        65.31371
906.96        65.23423
907.36        65.62014
907.76         66.3946
908.15        67.17165
908.55        67.18916
908.95        66.37447
909.34        64.96706
909.74        63.65775
910.14        63.37452
910.53        64.33453
910.93        66.18422
911.33        68.38174
911.72        70.06986
912.12        70.87349
912.52        71.01517
912.91        70.77821
913.31        70.65256
913.70        70.81019
914.10         71.0624
914.49        71.17005
914.89        70.77361
915.29        69.86198
915.68        68.63045
916.08        67.49472
916.47        66.93778
916.87         67.1093
917.26        67.80183
917.66        68.71118
918.05        69.35271
918.45        69.51223
918.84        69.37054
919.24        68.97688
919.64        68.57734
920.03         68.2812
920.42        67.98463
920.82        67.75967
921.21        67.63497
921.61         67.6222
922.00        67.75964
922.40        67.96346
922.79        68.14562
923.19        68.24946
923.58        68.31132
923.98        68.37531
924.37        68.54302
924.77        68.80968
925.16        69.11039
925.55        69.38219
925.95        69.53234
926.34        69.54563
926.74        69.45636
927.13        69.23013
927.52        68.77419
927.92        68.12874
928.31        67.33412
928.70        66.61407
929.10        66.30756
929.49        66.48044
929.89        67.00969
930.28        67.68726
930.67        68.06415
931.07        68.00584
931.46        67.67233
931.85        67.19073
932.24         66.7675
932.64        66.49422
933.03        66.30328
933.42        66.26477
933.82        66.49062
934.21        66.98007
934.60        67.65141
934.99         68.3476
935.39        68.77221
935.78        68.89282
936.17        68.77419
936.56        68.36532
936.96        67.65862
937.35        66.75565
937.74        65.70657
938.13        64.87826
938.53        64.72781
938.92        65.27197
939.31        66.45214
939.70        67.81321
940.09        68.45628
940.49        68.09954
940.88        66.99518
941.27        65.72816
941.66        65.18584
942.05        65.55784
942.44        66.63033
942.84        67.83767
943.23        68.21436
943.62        67.46118
944.01        65.92286
944.40        64.34977
944.79        63.81866
945.18        64.55191
945.57        66.23813
945.97        68.11597
946.36        69.09697
946.75        68.73919
947.14        67.38149
947.53        65.78669
947.92        65.10426
948.31         65.6182
948.70        67.03198
949.09        68.61299
949.48        69.06699
949.87         68.0645
950.26        66.06133
950.65        64.01233
951.04        63.22141
951.43        63.94986
951.82        65.85589
952.21        68.06682
952.60        68.97878
952.99        68.13428
953.38        66.05463
953.77        63.84204
954.16        62.96555
954.55        63.71629
954.94        65.77772
955.33        68.19642
955.72        68.94758
956.11        67.40189
956.50        64.32547
956.89        61.21679
957.28        59.99522
957.66        61.04475
958.05          63.741
958.44        67.06149
958.83        68.90587
959.22         68.5289
959.61        66.67927
960.00        64.38264
960.39        62.93267
960.78        62.59854
961.16        62.96066
961.55        63.62714
961.94        63.93517
962.33        63.63777
962.72        63.10473
963.11        62.50907
963.49        62.00774
963.88        61.67048
964.27         61.3857
964.66        61.31782
965.04        61.83836
965.43         62.9008
965.82        64.41158
966.21        65.93955
966.60        66.68449
966.98        66.46407
967.37        65.58398
967.76        64.44717
968.15        63.59781
968.53        63.16968
968.92        62.94491
969.31        63.03883
969.69        63.66854
970.08        64.77431
970.47        66.44627
970.86        68.02558
971.24         68.3644
971.63        67.23828
972.02        65.01408
972.40         62.8146
972.79          62.422
973.17        64.13078
973.56        67.29635
973.95        70.84756
974.33        72.74438
974.72        72.27379
975.11        70.12181
975.49        67.32515
975.88        65.79539
976.26        66.01287
976.65        67.35799
977.04        69.19633
977.42        70.37535
977.81         70.3312
978.19        69.58305
978.58         68.4573
978.96        67.31347
979.35        66.40507
979.74        65.59657
980.12        65.10133
980.51        65.29127
980.89        66.24162
981.28        67.68483
981.66        69.42184
982.05        70.80469
982.43        71.68346
982.82        72.13728
983.20        71.93211
983.59        70.65501
983.97        68.46886
984.35        65.64496
984.74        63.22576
985.12        62.62923
985.51        63.99408
985.89        66.99305
986.28        70.47244
986.66         72.8228
987.04        73.33235
987.43        72.44076
987.81        70.74142
988.20        69.62664
988.58         69.4598
988.96        69.89428
989.35         70.1749
989.73        69.35128
990.12        67.20815
990.50        64.28427
990.88        61.40724
991.27        59.82813
991.65        59.82162
992.03        61.04374
992.42        62.89984
992.80        64.78662
993.18        66.32986
993.56        67.65105
993.95        68.67043
994.33        69.39828
994.71         69.7355
995.10        69.69495
995.48        69.26519
995.86        68.55348
996.24        67.64999
996.63        66.46651
997.01        65.50159
997.39        65.42747
997.77        66.36002
998.15        68.14404
998.54        69.91437
998.92        70.32035
999.30        69.07128
999.68        66.50809
1000.06        63.65941
1000.45        62.47111
1000.83        63.60712
1001.21        66.48174
1001.59        70.04927
1001.97        72.58283
1002.35        73.50383
1002.73        73.28081
1003.12        72.38953
1003.50        71.49966
1003.88        70.94616
1004.26          70.562
1004.64        70.27567
1005.02        70.03902
1005.40        69.84399
1005.78        69.72496
1006.16        69.90156
1006.54         70.6531
1006.92        71.98543
1007.30         73.8596
1007.69        75.64571
1008.07        76.13721
1008.45        74.89001
1008.83        72.26406
1009.21        69.30773
1009.59        67.81734
1009.97        68.30715
1010.35        70.22067
1010.73        72.90386
1011.11        75.22526
1011.49        76.69813
1011.86        77.69299
1012.24        77.93867
1012.62        77.23707
1013.00        75.59153
1013.38        72.85039
1013.76         69.6094
1014.14        67.30528
1014.52        66.53889
1014.90        67.22433
1015.28        68.35281
1015.66        68.11531
1016.04        66.09502
1016.41        62.79501
1016.79        59.52865
1017.17        58.82691
1017.55        60.99696
1017.93        64.61899
1018.31        68.13929
1018.69        70.39925
1019.06        71.53493
1019.44        71.78873
1019.82        71.69465
1020.20        72.46455
1020.58         74.3681
1020.95          76.427
1021.33        77.61629
1021.71        77.00513
1022.09         74.4242
1022.46        69.78085
1022.84        63.59546
1023.22        57.99009
1023.60        55.19866
1023.97        55.01443
1024.35         56.3956
1024.73        58.14128
