SpectraSmart Spectrum 2.9.0.0
--------- Device Information -----------
Spectrum Name :  反射率_0
Saving Time :  2024/04/30 00:43:39
Spectro-Module Model Name : SE2030-DUVN
Spectro-Module Serial Number : OS361AC55029948
Wavelength Start : 200
Wavelength End : 1025
Wavelength Unit : Wavelength(nm)
Spectrum Unit : Reflectance(%)
-----------Spectrum Setting ------------
Integration Time : 20ms
Average : 10
Boxcar : 0
Background removal :  enabled
linearity correction :  enabled
SC :  disabled
Intensity correction :  disabled
DWT denoise :  enabled
savitzky-golay :  disabled
FFT :  disabled
Running average :  disabled
Kalman :  disabled
High pass :  disabled
---------------BEGIN--------------------
Wavelength(nm)             Reflectance(%)
200.29               0
200.75        22.48008
201.21        12.34663
201.67        1.021682
202.13       -7.584806
202.58       -11.71067
203.04       -11.28312
203.50       -6.240711
203.96        2.703882
204.42        13.93958
204.88        26.39824
205.34        36.03633
205.80         37.6781
206.26        32.93602
206.72        26.06669
207.18        19.62271
207.64        14.94294
208.10        11.65973
208.55        8.565114
209.01        7.089012
209.47        10.46993
209.93        17.84173
210.39        26.96422
210.85        33.85209
211.31         35.2434
211.77        31.03464
212.23        20.59076
212.69        5.850288
213.14      -0.4423582
213.60        7.720832
214.06          22.748
214.52        35.77219
214.98         41.3182
215.44        40.52417
215.90        35.96663
216.36        29.67029
216.81        25.29441
217.27        24.98137
217.73        27.69402
218.19        34.22428
218.65        43.71802
219.11         52.2152
219.57        57.77348
220.02        59.59995
220.48        58.50684
220.94        54.61701
221.40        47.14038
221.86        35.60309
222.32        24.26877
222.77        18.36414
223.23        17.60036
223.69        18.67089
224.15        18.93753
224.61        18.15435
225.06         16.6451
225.52        16.15491
225.98        19.21127
226.44         24.9498
226.90        31.01405
227.36        35.14211
227.81        36.03365
228.27        34.16734
228.73        30.12293
229.19        25.52549
229.65        23.90088
230.10        25.90582
230.56        29.62736
231.02        32.99947
231.48        34.27191
231.93         33.4353
232.39        31.22716
232.85        28.47545
233.31        26.73568
233.77        26.54156
234.22        27.50197
234.68        28.75258
235.14        28.73871
235.60        27.15883
236.05        24.74997
236.51        22.59882
236.97        21.99233
237.43        23.27369
237.88        26.32125
238.34        30.89037
238.80        35.68515
239.26         39.1737
239.71        41.31806
240.17         41.9991
240.63        41.83898
241.08        41.14617
241.54        39.19159
242.00         36.2552
242.46        35.49566
242.91        40.20602
243.37        49.65124
243.83        59.22273
244.28        64.83994
244.74        66.33147
245.20         63.9431
245.66        59.18243
246.11        56.13313
246.57        56.98677
247.03          61.345
247.48        65.76639
247.94        62.88929
248.40        54.23971
248.85        45.11552
249.31          39.349
249.77        38.10831
250.22        40.97725
250.68        48.08317
251.14        60.19426
251.59        70.32973
252.05        70.45177
252.51        65.11815
252.96        59.20304
253.42        54.77263
253.88        50.93123
254.33        46.51609
254.79        42.48456
255.25        40.75299
255.70         41.3877
256.16        43.37624
256.62        45.17653
257.07        45.72962
257.53        45.49512
257.99        44.77517
258.44        43.90909
258.90        43.91679
259.35         44.4099
259.81        45.12928
260.27         45.6108
260.72        45.53961
261.18        45.09677
261.63        44.27124
262.09        43.32907
262.55        42.34623
263.00        41.35871
263.46        40.51034
263.91         39.6272
264.37        38.70851
264.83        37.69968
265.28        36.58996
265.74        35.64579
266.19        35.07875
266.65        34.95535
267.11        35.12858
267.56        35.32898
268.02        35.16499
268.47        34.54369
268.93        33.58537
269.38        32.47692
269.84        31.65998
270.30        31.23922
270.75        31.08813
271.21        30.99796
271.66         30.6511
272.12        29.97843
272.57        29.06994
273.03        28.12227
273.48        27.36008
273.94        26.89653
274.39        26.62344
274.85        26.42768
275.31        26.09853
275.76        25.58695
276.22        24.98141
276.67        24.39405
277.13         24.0542
277.58        23.94039
278.04        23.98722
278.49        23.98358
278.95        23.70896
279.40        23.10602
279.86        22.34023
280.31        21.54464
280.77          21.014
281.22         20.7777
281.68        20.75839
282.13         20.8529
282.59        20.95355
283.04        20.99614
283.50        20.99246
283.95        20.92067
284.41        20.74455
284.86        20.46711
285.32        20.14971
285.77        19.77521
286.22        19.38125
286.68        19.00783
287.13        18.62502
287.59        18.36825
288.04        18.39008
288.50        18.69814
288.95        19.19907
289.41        19.69273
289.86        19.85401
290.32        19.65314
290.77        19.19948
291.22        18.68627
291.68        18.42451
292.13         18.4896
292.59        18.78999
293.04         19.2596
293.50        19.82059
293.95        20.42647
294.40        21.11144
294.86        21.78018
295.31        22.29414
295.77        22.62684
296.22        22.79419
296.68        22.94172
297.13        23.28901
297.58        23.88536
298.04        24.63516
298.49        25.38918
298.95        25.90176
299.40        26.12183
299.85        26.14329
300.31        26.08966
300.76        26.09675
301.21         26.2363
301.67        26.46284
302.12        26.72751
302.58        27.09588
303.03        27.54468
303.48         27.9186
303.94        28.14721
304.39         28.8741
304.84        28.82578
305.30        29.02502
305.75          29.118
306.20        29.20958
306.66        29.31815
307.11        29.42456
307.57        29.52361
308.02        29.53803
308.47        29.47116
308.93        29.35283
309.38        29.21759
309.83        29.16158
310.29        29.20071
310.74        29.30533
311.19         29.3977
311.65        29.35183
312.10        29.14511
312.55        28.81986
313.00        28.48314
313.46        28.30148
313.91        28.29532
314.36        28.41007
314.82        28.53562
315.27         28.5141
315.72        28.29458
316.18        27.94102
316.63        27.51459
317.08        27.12349
317.53        26.81243
317.99        26.55799
318.44        26.35029
318.89         26.1777
319.35        26.02852
319.80        25.90674
320.25        25.80977
320.70        25.72822
321.16        25.64307
321.61        25.56017
322.06        25.44227
322.51        25.24438
322.97        24.96509
323.42        24.62936
323.87        24.28915
324.32        24.02905
324.78        23.86168
325.23        23.77449
325.68        23.72358
326.13        23.63575
326.59        23.48266
327.04        23.29517
327.49        23.08671
327.94        22.89038
328.39        22.71166
328.85        22.52187
329.30        22.33034
329.75          22.125
330.20         21.9091
330.66        21.69856
331.11        21.48907
331.56        21.24705
332.01        20.97262
332.46        20.67203
332.92        20.39789
333.37        20.26373
333.82         20.2849
334.27        20.42603
334.72        20.59186
335.17        20.62311
335.63        20.47437
336.08        20.19496
336.53        19.85096
336.98        19.57202
337.43          19.406
337.88        19.31603
338.34        19.27674
338.79        19.26729
339.24         19.2648
339.69        19.28779
340.14        19.31231
340.59        19.29405
341.05        19.22528
341.50        19.10456
341.95        18.97457
342.40        18.91374
342.85        18.93321
343.30        19.00703
343.75        19.06746
344.20          19.007
344.66         18.8161
345.11        18.52904
345.56        18.22163
346.01         18.0107
346.46        17.93143
346.91        17.94666
347.36        18.01433
347.81        18.07239
348.26        18.09473
348.72        18.09312
349.17        18.06668
349.62        18.01696
350.07        17.94772
350.52        17.86036
350.97        17.75259
351.42        17.62146
351.87        17.47868
352.32        17.34031
352.77        17.23998
353.22        17.22825
353.67        17.30976
354.13        17.45426
354.58        17.63189
355.03        17.79646
355.48        17.92024
355.93        18.00965
356.38         18.0302
356.83        17.93414
357.28        17.72849
357.73        17.43615
358.18        17.13495
358.63        16.94924
359.08        16.90347
359.53        16.95738
359.98        17.04701
360.43        17.06527
360.88        16.98056
361.33        16.83066
361.78        16.63601
362.23        16.42743
362.68        16.22891
363.13        16.03794
363.58        15.88201
364.03        15.80721
364.48        15.81584
364.93        15.88543
365.38        15.98936
365.83        16.08081
366.28        16.13656
366.73         16.1664
367.18        16.14017
367.63        16.01542
368.08        15.79601
368.53        15.49687
368.98        15.19639
369.43        15.02305
369.88        15.00683
370.33        15.11668
370.78         15.2691
371.23        15.32086
371.68        15.23153
372.13        15.03861
372.58        14.81028
373.03        14.65889
373.48        14.61163
373.93        14.62764
374.38        14.64971
374.83        14.58861
375.28        14.42594
375.72        14.19813
376.17        13.96621
376.62        13.78236
377.07        13.66169
377.52         13.5822
377.97        13.53677
378.42        13.51599
378.87         13.5121
379.32        13.52976
379.77        13.54798
380.22        13.53529
380.67        13.48291
381.11        13.38769
381.56        13.28203
382.01         13.2185
382.46          13.211
382.91        13.25461
383.36        13.29382
383.81        13.24275
384.26        13.09187
384.71        12.86558
385.15        12.65328
385.60        12.61737
386.05        12.76872
386.50        13.05004
386.95        13.33125
387.40        13.40868
387.85         13.2506
388.29        12.93129
388.74        12.59228
389.19        12.38207
389.64        12.33386
390.09        12.38736
390.54        12.50346
390.98        12.61495
391.43        12.69296
391.88        12.76205
392.33        12.79107
392.78        12.74668
393.23        12.63506
393.67        12.43211
394.12        12.21911
394.57        12.19644
395.02        12.20274
395.47         12.3547
395.91        12.51515
396.36        12.52873
396.81        12.37034
397.26        12.09593
397.71        11.81703
398.15        11.69036
398.60        11.75594
399.05        11.92348
399.50        12.09948
399.95        12.20585
400.39        12.15076
400.84        11.97449
401.29        11.72299
401.74        11.55246
402.18         11.5066
402.63        11.51588
403.08        11.56316
403.53         11.6314
403.97        11.70336
404.42        11.78835
404.87        11.85075
405.32        11.82922
405.76        11.71314
406.21         11.5224
406.66        11.32049
407.11        11.21251
407.55        11.22558
408.00        11.33366
408.45        11.46655
408.90        11.49417
409.34        11.38358
409.79        11.17741
410.24        10.97141
410.68        10.90915
411.13         11.0193
411.58        11.25308
412.03        11.50933
412.47        11.61707
412.92        11.52218
413.37        11.29289
413.81        11.02089
414.26        10.86099
414.71        10.83844
415.15        10.90843
415.60        11.01194
416.05        11.06843
416.49        11.04995
416.94        10.99126
417.39        10.90775
417.83         10.8177
418.28        10.73709
418.73        10.65073
419.17        10.58205
419.62        10.57104
420.07        10.62008
420.51        10.71883
420.96        10.82058
421.41        10.84425
421.85        10.77431
422.30        10.64956
422.74        10.51741
423.19        10.46734
423.64         10.5106
424.08        10.62301
424.53        10.75628
424.98        10.84813
425.42        10.87465
425.87        10.84533
426.31        10.77129
426.76        10.68964
427.21        10.57688
427.65        10.44676
428.10        10.31299
428.54        10.18076
428.99         10.0716
429.44        10.05832
429.88        10.10288
430.33        10.01764
430.77        9.864259
431.22        9.963357
431.66        10.29105
432.11        10.48062
432.56        10.47622
433.00        10.50523
433.45        10.54853
433.89        10.34116
434.34        10.00757
434.78        9.949968
435.23        10.13067
435.67        10.17245
436.12        10.06246
436.57         10.0245
437.01        10.06426
437.46        10.08631
437.90        10.08478
438.35        10.08062
438.79        10.07885
439.24        10.06748
439.68        10.06202
440.13        10.10294
440.57        10.15343
441.02        10.16039
441.46        10.11782
441.91        9.975399
442.35        9.801273
442.80        9.898522
443.24        10.17969
443.69        10.14598
444.13        9.830236
444.58        9.701466
445.02        9.760601
445.47        9.760677
445.91        9.693412
446.36        9.672852
446.80        9.697577
447.24        9.740245
447.69        9.794662
448.13        9.854445
448.58        9.913454
449.02        9.970582
449.47        10.02479
449.91        10.06928
450.36        10.10196
450.80        10.12264
451.25        10.12497
451.69        10.10082
452.13        10.04983
452.58        9.983336
453.02         9.91272
453.47        9.856125
453.91        9.816532
454.36         9.81931
454.80        9.809308
455.24        9.809371
455.69        9.802238
456.13        9.787742
456.58        9.774328
457.02        9.764664
457.46        9.762906
457.91        9.767047
458.35         9.76696
458.79        9.750106
459.24        9.723829
459.68        9.696361
460.13        9.688963
460.57        9.686216
461.01        9.767362
461.46        9.825154
461.90        9.878556
462.34        10.01137
462.79        10.17001
463.23        10.14505
463.68        9.974369
464.12        9.906282
464.56        9.955904
465.01        10.00517
465.45        10.02277
465.89        10.00923
466.34        9.977588
466.78        9.979485
467.22        10.03282
467.67        10.00587
468.11        9.907303
468.55        9.788314
468.99        9.693673
469.44        9.666039
469.88        9.715046
470.32        9.833224
470.77        9.970216
471.21        10.05613
471.65        10.06585
472.10        10.02424
472.54        9.968589
472.98        9.972323
473.42        10.04923
473.87        10.17091
474.31        10.29521
474.75         10.3578
475.20        10.34899
475.64        10.29096
476.08        10.21768
476.52        10.17798
476.97        10.18619
477.41        10.22278
477.85        10.28091
478.29        10.34798
478.74        10.41857
479.18        10.49256
479.62        10.55165
480.06        10.59335
480.50        10.62114
480.95        10.53846
481.39        10.53551
481.83        10.56133
482.27        10.68126
482.72        10.78871
483.16        10.98464
483.60        11.07607
484.04        11.08861
484.48        11.03055
484.93        10.97043
485.37        11.05535
485.81         11.2175
486.25        11.44094
486.69        10.89764
487.14        11.15517
487.58        11.93177
488.02        11.66222
488.46        11.93891
488.90        12.11232
489.34        11.68409
489.79        11.71976
490.23        11.89282
490.67        12.15538
491.11        12.38791
491.55        12.38218
491.99        12.21388
492.43         12.2531
492.88        12.52076
493.32        12.76921
493.76        12.94496
494.20        13.10597
494.64        13.24268
495.08        13.33092
495.52        13.38439
495.96        13.46531
496.41        13.58895
496.85        13.66036
497.29        13.68398
497.73        13.91345
498.17        14.12494
498.61        14.11604
499.05         13.8951
499.49        13.83901
499.93        13.98759
500.37        14.19343
500.82        14.40645
501.26         14.5813
501.70        14.69431
502.14        14.77868
502.58        14.85611
503.02        14.94259
503.46        15.04714
503.90        15.16591
504.34        15.28328
504.78        15.37362
505.22        15.43018
505.66        15.45807
506.10        15.47248
506.54        15.51431
506.98        15.59334
507.42        15.66805
507.86        15.70429
508.30        15.82472
508.74        15.73573
509.18        15.68826
509.62         15.6363
510.06         15.6496
510.50        15.74007
510.94        15.88925
511.38        16.06432
511.82        16.20121
512.26        16.27807
512.70        16.31012
513.14          16.314
513.58        16.31701
514.02        16.33035
514.46        16.34683
514.90        16.36153
515.34        16.36907
515.78        16.36809
516.22          16.361
516.66        16.35946
517.10        16.37867
517.54        16.41851
517.98        16.47338
518.42         16.5164
518.86        16.50498
519.30        16.43369
519.74        16.31873
520.18        16.19786
520.62        16.12897
521.06        16.12618
521.50        16.17347
521.93        16.24292
522.37        16.28209
522.81         16.2767
523.25        16.24023
523.69        16.19142
524.13        16.15953
524.57        16.15023
525.01        16.14984
525.45        16.14289
525.89        16.10707
526.32        16.03648
526.76        15.94744
527.20        15.85088
527.64        15.76218
528.08        15.68788
528.52        15.62457
528.96        15.57498
529.40        15.54315
529.83        15.52683
530.27        15.52596
530.71        15.52898
531.15        15.51958
531.59        15.49202
532.03         15.4471
532.46        15.39116
532.90        15.34062
533.34        15.29915
533.78        15.26578
534.22        15.23089
534.66        15.17855
535.09        15.10704
535.53        15.02902
535.97        14.96231
536.41        14.93951
536.85        14.96507
537.28        15.02532
537.72        15.09635
538.16        15.14355
538.60        15.15676
539.04        15.15018
539.47        15.12677
539.91        15.10744
540.35        15.09741
540.79        15.09758
541.22         15.1216
541.66        15.19466
542.10        15.31582
542.54         15.4746
542.97        15.65189
543.41        15.81645
543.85        15.95834
544.29        16.08894
544.72        16.19777
545.16        16.28318
545.60        16.34867
546.04        16.38955
546.47        16.44096
546.91        16.58522
547.35        16.81747
547.79        17.06115
548.22        17.27262
548.66        17.47733
549.10        17.66978
549.53        17.77258
549.97        17.77714
550.41        18.03619
550.84        18.02064
551.28        18.12976
551.72        18.20858
552.15        18.42728
552.59        18.55405
553.03         18.7674
553.46        18.97596
553.90        19.13836
554.34        19.24163
554.77        19.31906
555.21        19.38727
555.65        19.42093
556.08        19.44746
556.52        19.55416
556.96        19.72547
557.39          19.891
557.83        20.03625
558.27        20.15141
558.70        20.25301
559.14        20.39102
559.57        20.54728
560.01        20.68797
560.45        20.78722
560.88         20.7492
561.32        20.70806
561.75        20.68295
562.19        20.72248
562.63        20.75561
563.06        20.78505
563.50        20.86889
563.93        20.98966
564.37        21.10927
564.80        21.21238
565.24        21.31214
565.68        21.40413
566.11        21.49586
566.55        21.59006
566.98        21.65454
567.42        21.72154
567.85        21.80202
568.29        21.90484
568.72         22.0808
569.16        22.35121
569.60        22.32103
570.03        22.68124
570.47        22.83558
570.90        22.93687
571.34        23.20826
571.77        23.23561
572.21        23.30411
572.64        23.28515
573.08        23.42225
573.51        23.76101
573.95        23.52097
574.38        23.78621
574.82        23.90111
575.25        23.84071
575.69        23.88971
576.12        23.95149
576.56         24.1263
576.99        24.14907
577.42        24.04902
577.86          24.185
578.29        23.92613
578.73        23.86389
579.16        23.82959
579.60        23.92941
580.03        23.79922
580.47        23.81517
580.90        23.66843
581.33        23.46371
581.77        23.52738
582.20        23.32853
582.64        23.14523
583.07        22.89166
583.51        22.76213
583.94        22.85405
584.37        22.71311
584.81        22.39277
585.24         22.4141
585.68        22.61333
586.11         22.5538
586.54        22.24523
586.98        22.26851
587.41        22.60256
587.85        22.16979
588.28        22.04513
588.71        22.18539
589.15        22.03456
589.58        21.88157
590.01        22.05297
590.45        21.98706
590.88        21.90129
591.31        21.99134
591.75        22.21014
592.18        22.33699
592.61        22.33901
593.05        22.17913
593.48        22.13207
593.91         22.2483
594.35        22.15009
594.78         22.2541
595.21         22.4245
595.65        22.46585
596.08        22.40205
596.51        22.80428
596.94        23.06778
597.38        23.39692
597.81        23.58566
598.24         23.6413
598.68        23.83976
599.11        24.15869
599.54        24.47693
599.97        24.75517
600.41        24.84817
600.84        25.29702
601.27         25.5896
601.70        26.06604
602.14        26.53012
602.57        26.86334
603.00        27.06063
603.43        27.35464
603.87        27.71356
604.30        28.11056
604.73        28.54803
605.16        29.05109
605.60        29.57869
606.03        30.09445
606.46        30.51465
606.89        30.88051
607.32        31.22498
607.76        31.57054
608.19        31.94983
608.62        32.28028
609.05        32.56286
609.48        33.09201
609.92        33.55273
610.35        33.56853
610.78        34.14821
611.21          34.109
611.64        34.54515
612.07        34.99458
612.50        35.18206
612.94        35.58255
613.37        36.07145
613.80        36.31596
614.23         36.8221
614.66        37.11166
615.09        37.34984
615.52        37.52608
615.96        37.66963
616.39        37.84731
616.82        38.07954
617.25        38.26661
617.68        38.53739
618.11        38.83232
618.54        39.15153
618.97         39.3691
619.40        39.51315
619.84        39.70927
620.27        39.99221
620.70        40.30715
621.13        40.53803
621.56        40.65324
621.99        40.63063
622.42        40.29808
622.85        40.62504
623.28        41.02719
623.71        41.46574
624.14        40.60358
624.57        41.00842
625.00        40.81603
625.43        40.81998
625.86        40.58459
626.29        40.53019
626.72        40.38325
627.15        40.23807
627.58        40.14573
628.01        40.07178
628.44        39.82533
628.87        39.45249
629.30        39.27674
629.73        39.27391
630.16        39.11155
630.59        38.76537
631.02        38.51042
631.45        38.17618
631.88         37.8252
632.31         37.4082
632.74        36.95193
633.17        36.47508
633.60        36.01294
634.03        35.57756
634.46        35.15784
634.89        34.74165
635.32         34.3115
635.75        33.86322
636.18        33.40256
636.61         32.9449
637.04        32.51902
637.47        32.13745
637.89        31.76988
638.32        31.39028
638.75        31.05188
639.18        30.76791
639.61        30.23411
640.04        30.01175
640.47        29.67793
640.90        29.39992
641.33        29.16215
641.76        28.96693
642.18        28.81096
642.61        28.67953
643.04         28.5821
643.47        28.51848
643.90        28.47786
644.33        28.45418
644.76        28.48357
645.18        28.55083
645.61        28.55507
646.04        28.47278
646.47        28.63689
646.90         28.9828
647.33        29.20773
647.75        29.28367
648.18           29.38
648.61        29.54719
649.04        29.80469
649.47        30.16963
649.89        30.62662
650.32         31.1193
650.75         31.6114
651.18        32.08626
651.61        32.47571
652.03         32.8492
652.46        33.50967
652.89        34.35485
653.32        34.87244
653.74        35.10893
654.17         35.4743
654.60        35.69971
655.03        36.94631
655.46        36.50514
655.88        37.80721
656.31        39.34599
656.74        39.57495
657.16          39.321
657.59        38.61612
658.02        39.63343
658.45        40.29445
658.87        41.24011
659.30        41.27859
659.73        41.91056
660.15        42.49347
660.58        42.86155
661.01        43.19995
661.44        43.39574
661.86        43.45073
662.29        43.46885
662.72        43.80732
663.14        44.41328
663.57        44.66771
664.00        44.60677
664.42        44.76373
664.85        45.17328
665.27        45.53566
665.70        45.80746
666.13        45.99448
666.55        46.24982
666.98        46.42006
667.41         46.5719
667.83        46.72791
668.26        46.89172
668.69        47.06145
669.11        47.23329
669.54        47.40522
669.96        47.57328
670.39        47.74576
670.82        47.90754
671.24        48.01551
671.67        48.07051
672.09        48.13585
672.52        48.23355
672.94        48.39182
673.37        48.24475
673.80         48.6768
674.22        48.61972
674.65        48.87922
675.07        49.15075
675.50        49.49802
675.92        49.88864
676.35        50.06904
676.77        49.99344
677.20        50.45729
677.62        50.16237
678.05        50.30057
678.47        50.47845
678.90        50.72808
679.32        50.98878
679.75        51.10877
680.17        51.06053
680.60        51.23677
681.02        51.05867
681.45        51.09394
681.87        51.18386
682.30        51.30408
682.72        51.46798
683.15        51.67868
683.57        51.94866
684.00        52.27259
684.42        52.58086
684.85        52.79685
685.27        52.90976
685.70        52.82055
686.12        52.63721
686.54        52.94194
686.97        53.64453
687.39         53.8879
687.82        53.55466
688.24         54.0639
688.66        53.84026
689.09        53.83503
689.51        53.63473
689.94        53.55704
690.36        53.63118
690.78        53.74657
691.21        53.91742
691.63        54.20487
692.06        54.53766
692.48         54.6748
692.90        54.65198
693.33        54.74334
693.75         54.9661
694.17        55.15386
694.60        55.27563
695.02        55.35273
695.44        55.37453
695.87        55.39994
696.29        55.45497
696.71        55.41026
697.14        55.34119
697.56        55.57957
697.98        55.97018
698.41        56.23932
698.83        56.32553
699.25        56.43403
699.68        56.55759
700.10        56.63581
700.52        56.66259
700.94        56.66776
701.37        56.65705
701.79        56.65518
702.21        56.66495
702.64        56.69373
703.06        56.75431
703.48        56.87135
703.90        57.04819
704.33        57.28848
704.75        57.52975
705.17        57.72694
705.59        57.84155
706.01        57.88627
706.44        57.90257
706.86        57.95576
707.28        58.05753
707.70        58.21867
708.12        58.40456
708.55        58.48394
708.97        58.47823
709.39        58.55761
709.81        58.73224
710.23        58.88812
710.66        59.01342
711.08        59.19278
711.50        59.39053
711.92          59.541
712.34        59.63638
712.76        59.69643
713.19        59.72103
713.61        59.74876
714.03        59.77704
714.45        59.80515
714.87        59.84867
715.29        59.93165
715.71        60.05509
716.13        60.20778
716.56         60.3556
716.98         60.5132
717.40        60.64188
717.82        60.74238
718.24         60.8007
718.66        60.79885
719.08        60.74197
719.50        60.64143
719.92        60.53393
720.34          60.478
720.76        60.48949
721.19        60.54718
721.61         60.6403
722.03        60.72343
722.45        60.77918
722.87        60.81636
723.29        60.83517
723.71        60.83625
724.13        60.82521
724.55        60.80566
724.97        60.78648
725.39        60.78245
725.81        60.80289
726.23        60.84842
726.65        60.92616
727.07         61.0486
727.49        61.20601
727.91         61.3752
728.33        61.53736
728.75        61.65892
729.17        61.72757
729.59        61.77237
730.01        61.75859
730.43        61.61867
730.85        61.37583
731.27        61.08916
731.69        60.88455
732.10        60.93708
732.52        61.28831
732.94        61.86451
733.36        62.48082
733.78        62.93538
734.20        63.16763
734.62        62.70767
735.04        62.60263
735.46        62.56334
735.88        62.87075
736.30         63.0928
736.72        63.16613
737.13        63.39033
737.55        63.59797
737.97        63.32353
738.39        62.71864
738.81          62.318
739.23        62.27557
739.65        62.66715
740.06        63.26168
740.48         63.5273
740.90        63.38171
741.32        63.11401
741.74        62.86563
742.16        62.77827
742.57         62.9235
742.99        63.16267
743.41        63.42695
743.83        63.76286
744.25        64.05443
744.67         63.9669
745.08        63.59549
745.50        63.42617
745.92         63.5226
746.34        63.61498
746.75        63.68354
747.17         63.7943
747.59        63.93232
748.01        64.13101
748.42          64.346
748.84        64.38393
749.26        64.29019
749.68        64.27439
750.09         64.3498
750.51        64.46616
750.93        64.56084
751.35        64.55581
751.76        64.48629
752.18        64.43839
752.60        64.40165
753.01        64.66602
753.43        64.52843
753.85        64.57703
754.27        64.62382
754.68        64.70557
755.10        64.80111
755.52        64.89255
755.93        64.94816
756.35        64.92394
756.77        64.93691
757.18        65.03622
757.60        65.21706
758.02         65.8799
758.43        66.65335
758.85        66.03857
759.26        64.45313
759.68        64.06767
760.10        64.90792
760.51        65.51047
760.93        65.66167
761.34         65.4376
761.76        65.51136
762.18        65.27162
762.59        65.04189
763.01        64.94449
763.42        64.99944
763.84        65.02217
764.26        65.01788
764.67        65.01036
765.09        65.06848
765.50        65.40459
765.92        65.90659
766.33        66.03042
766.75        65.70277
767.16        65.58047
767.58        65.68816
768.00        65.49557
768.41        65.12535
768.83        65.41335
769.24        66.12534
769.66         66.0916
770.07        65.41006
770.49        65.10971
770.90        65.30075
771.32        65.65486
771.73        66.04462
772.15        66.18208
772.56        66.02525
772.97        65.98855
773.39        65.72423
773.80        65.79028
774.22        66.05625
774.63        66.52718
775.05        67.00481
775.46        67.25401
775.88        67.18657
776.29         66.9151
776.70         66.5573
777.12        66.32925
777.53        66.29321
777.95        66.35421
778.36        66.49474
778.77        66.63326
779.19        66.73792
779.60        67.00827
780.02        67.29957
780.43        67.19122
780.84        66.81244
781.26        66.61531
781.67        66.73064
782.09        67.36832
782.50        68.23368
782.91        68.22924
783.33        67.41482
783.74        67.00374
784.15        67.06699
784.57        66.85706
784.98        66.44709
785.39        66.34048
785.81        66.57962
786.22        67.01855
786.63        67.55163
787.04        68.01109
787.46        68.32796
787.87        68.51557
788.28        68.63086
788.70        68.72344
789.11        68.79827
789.52        68.95547
789.93        69.09357
790.35        68.81096
790.76        68.22092
791.17        67.92505
791.58        68.00275
792.00        68.03312
792.41        68.02789
792.82        68.37098
793.23        68.93274
793.65        69.03409
794.06        68.75877
794.47        68.86456
794.88        69.28117
795.29        69.35389
795.71        69.04848
796.12        68.77605
796.53        68.60877
796.94        68.57978
797.35        68.76675
797.76        69.04156
798.18        69.20983
798.59        70.09837
799.00         69.7339
799.41         69.7505
799.82        69.64042
800.23        69.53331
800.64         69.4585
801.06        69.38242
801.47        69.37541
801.88        69.42754
802.29        69.53008
802.70        69.66843
803.11        69.79994
803.52        69.84692
803.93        69.80734
804.34        69.72272
804.75        69.59265
805.17        69.49992
805.58        69.55681
805.99         69.3704
806.40        69.08871
806.81        69.71166
807.22        70.89046
807.63        70.77998
808.04        69.56669
808.45        69.21745
808.86        69.88748
809.27        70.45927
809.68        70.72336
810.09        70.87559
810.50          70.853
810.91        70.59726
811.32        70.27397
811.73        70.15079
812.14        70.29041
812.55         70.6396
812.96        71.03276
813.37        71.15301
813.78        70.92764
814.19        70.48641
814.60        70.01506
815.01        69.76668
815.42        69.79934
815.83        70.02838
816.24        70.36505
816.65         70.6346
817.05        70.75736
817.46        70.75313
817.87        70.66805
818.28        70.51482
818.69        70.31928
819.10        70.07679
819.51         69.8534
819.92        69.78088
820.33        69.89165
820.74        70.14107
821.14         70.4655
821.55        70.76962
821.96        71.00535
822.37        71.19571
822.78         71.2961
823.19        71.23837
823.60        71.01762
824.00        70.64864
824.41        70.23279
824.82        69.96263
825.23        69.88014
825.64        69.95699
826.04        70.09949
826.45        70.05791
826.86        69.80649
827.27         69.4291
827.68        69.06913
828.08        68.97031
828.49        69.14853
828.90        69.56023
829.31        70.10915
829.72        70.62847
830.12        71.07414
830.53        71.40138
830.94        71.67329
831.35        71.96156
831.75        72.29012
832.16        72.54306
832.57        72.66717
832.97        72.54972
833.38        72.19527
833.79        71.72643
834.20        71.21985
834.60         70.7525
835.01        70.39798
835.42        70.11064
835.82        70.03954
836.23        70.35631
836.64        71.08142
837.04        72.18468
837.45        73.24942
837.86        73.72526
838.26        73.46868
838.67        72.64024
839.08        71.62644
839.48        71.02404
839.89        71.03008
840.29        71.46183
840.70         72.0891
841.11        72.55056
841.51        72.74425
841.92        72.74368
842.33        72.66536
842.73        72.67839
843.14         72.7849
843.54        72.95437
843.95        73.09133
844.35        73.12134
844.76        73.00169
845.17        72.75112
845.57        72.48829
845.98        72.36235
846.38        72.42199
846.79        72.62438
847.19        72.77976
847.60         72.5246
848.00        71.83024
848.41        70.84166
848.81        69.90672
849.22         69.5358
849.62        69.86887
850.03        70.71787
850.43        71.82648
850.84        72.53299
851.24        72.67611
851.65        72.32548
852.05         71.7595
852.46        71.39215
852.86        71.33516
853.27        71.51981
853.67        71.66827
854.07        71.59649
854.48        71.22365
854.88        70.63743
855.29         70.0087
855.69        69.87141
856.10        70.27371
856.50        71.14947
856.90        72.03239
857.31        72.26473
857.71        71.76435
858.12        70.69162
858.52        69.50829
858.92        68.94431
859.33        69.19157
859.73        70.07664
860.13        71.21353
860.54        71.97723
860.94        72.20853
861.34          71.994
861.75        71.51677
862.15        71.14825
862.55        70.98231
862.96        70.93994
863.36        70.79945
863.76        70.25354
864.17        69.30488
864.57        68.12225
864.97        67.06828
865.38        66.62578
865.78          66.919
866.18        67.78991
866.58         68.9302
866.99        69.68658
867.39        69.85616
867.79        69.59547
868.19        69.09415
868.60        68.64196
869.00        68.35444
869.40        68.12027
869.80         68.0695
870.21        68.42426
870.61        69.22099
871.01        70.35906
871.41        71.46127
871.81        71.92038
872.22        71.59586
872.62        70.63908
873.02        69.43599
873.42        68.65256
873.82        68.50331
874.22        68.85965
874.63        69.38785
875.03        69.55777
875.43        69.25616
875.83        68.63742
876.23        68.11935
876.63        68.38255
877.03         69.5267
877.44         71.2357
877.84        72.94731
878.24        73.65953
878.64        73.16823
879.04        71.87818
879.44        70.31889
879.84        69.25782
880.24        68.90953
880.64        69.01222
881.04        69.49416
881.44        70.23337
881.84        71.11602
882.24        72.21287
882.65        73.17036
883.05        73.49009
883.45        73.01965
883.85        71.91965
884.25        70.69971
884.65        70.16232
885.05        70.46613
885.45        71.34981
885.85        72.45472
886.25        73.14462
886.65        73.19592
887.05        72.83777
887.45        72.14426
887.85        71.25185
888.25        70.32379
888.65        69.35986
889.04        68.58723
889.44        68.39262
889.84        68.75727
890.24        69.61142
890.64        70.66888
891.04        71.29675
891.44        71.27331
891.84        70.79758
892.24        70.15981
892.64        69.76935
893.04        69.72584
893.44        69.88892
893.83        70.23681
894.23        70.65712
894.63        71.10526
895.03        71.61564
895.43        72.08006
895.83        72.32429
896.23        72.31954
896.63        72.07723
897.02        71.73746
897.42        71.61472
897.82         71.7584
898.22        72.11652
898.62        72.47868
899.01        72.49883
899.41        72.09388
899.81         71.3854
900.21        70.66126
900.61        70.35636
901.00        70.55616
901.40        71.13409
901.80        71.75951
902.20        71.89527
902.59        71.42007
902.99        70.50849
903.39        69.53178
903.79        69.03806
904.18        69.14771
904.58        69.71781
904.98        70.41564
905.38        70.73419
905.77        70.53081
906.17        69.95866
906.57        69.33306
906.96        69.18087
907.36         69.5835
907.76        70.39616
908.15        71.24193
908.55         71.3756
908.95        70.70853
909.34        69.49295
909.74        68.30054
910.14        67.86451
910.53        68.38612
910.93        69.57222
911.33        71.09617
911.72        72.45084
912.12        73.34805
912.52        73.93082
912.91        74.25301
913.31        74.39594
913.70        74.41533
914.10        74.23048
914.49        73.84277
914.89        73.26653
915.29        72.56493
915.68        71.80721
916.08        71.17123
916.47        70.77378
916.87        70.69321
917.26        70.85549
917.66        71.19805
918.05         71.6281
918.45        72.03433
918.84        72.47183
919.24        72.78404
919.64        72.86631
920.03        72.70764
920.42        72.30838
920.82        71.85532
921.21        71.55063
921.61        71.46165
922.00        71.55719
922.40        71.72967
922.79        71.87094
923.19        71.90735
923.58        71.90112
923.98        71.87949
924.37        71.89446
924.77        71.95077
925.16        72.02407
925.55        72.09135
925.95        72.12566
926.34        72.13893
926.74         72.1336
927.13        72.10852
927.52        72.02518
927.92        71.89149
928.31        71.69444
928.70        71.50301
929.10         71.4165
929.49        71.44571
929.89        71.52995
930.28        71.58784
930.67        71.40559
931.07        70.95477
931.46        70.35783
931.85        69.73464
932.24        69.25353
932.64        68.99292
933.03        68.93594
933.42        69.10683
933.82        69.52061
934.21        70.15215
934.60         70.8964
934.99        71.70464
935.39        72.48696
935.78        73.22003
936.17        73.87086
936.56        74.12605
936.96        73.54533
937.35        72.16819
937.74         70.2654
938.13        68.49155
938.53        67.65885
938.92        67.87544
939.31        68.98619
939.70        70.53442
940.09        71.59756
940.49        71.81467
940.88        71.40235
941.27         70.7907
941.66        70.66386
942.05         71.1787
942.44        72.15657
942.84        73.08719
943.23         73.1665
943.62        72.16856
944.01        70.40274
944.40        68.67104
944.79        68.11421
945.18        68.94376
945.57        70.84634
945.97        72.92941
946.36        73.86216
946.75        73.16238
947.14        71.27182
947.53        69.11689
947.92        68.09768
948.31         68.5616
948.70        70.11987
949.09        72.01412
949.48        72.88387
949.87        72.32259
950.26        70.79021
950.65        69.08595
951.04        68.30124
951.43        68.67377
951.82        69.88628
952.21        71.30214
952.60        71.78873
952.99        71.03018
953.38         69.4313
953.77        67.77108
954.16         67.0555
954.55        67.48571
954.94        68.85145
955.33        70.49704
955.72        71.03291
956.11        70.03148
956.50        68.00909
956.89        66.02052
957.28        65.43576
957.66        66.54661
958.05        68.88119
958.44        71.65518
958.83        73.24228
959.22        73.05122
959.61        71.63943
960.00        69.82425
960.39        68.64124
960.78        68.31242
961.16        68.54234
961.55        68.98096
961.94         69.0664
962.33        68.61865
962.72        67.95322
963.11        67.31115
963.49         66.9629
963.88        66.96182
964.27        67.15253
964.66        67.50523
965.04        68.04232
965.43        68.61854
965.82        69.25489
966.21        69.72903
966.60        69.64466
966.98        68.99419
967.37        67.99742
967.76        66.98417
968.15        66.38261
968.53        66.26863
968.92        66.45663
969.31        66.99188
969.69        67.94392
970.08         69.1785
970.47        70.77756
970.86        72.13799
971.24        72.25288
971.63        70.96097
972.02        68.62666
972.40        66.33846
972.79        65.82063
973.17        67.35587
973.56        70.31109
973.95        73.70198
974.33        75.63475
974.72        75.40469
975.11        73.63642
975.49        71.17977
975.88        69.64557
976.26        69.45867
976.65        70.09694
977.04        71.12422
977.42        71.76426
977.81        71.59443
978.19        71.02107
978.58        70.29997
978.96        69.66777
979.35        69.30107
979.74         69.1115
980.12        69.16488
980.51        69.56535
980.89        70.34509
981.28        71.28132
981.66        72.45568
982.05        73.71022
982.43        75.04936
982.82        76.45291
983.20        77.39299
983.59        76.90018
983.97        74.93001
984.35        71.83913
984.74         68.9652
985.12        68.16296
985.51        69.64613
985.89        72.96472
986.28        76.59812
986.66        78.33081
987.04        77.37243
987.43        74.42566
987.81        70.65648
988.20        68.44732
988.58         68.4636
988.96        70.04253
989.35        72.00758
989.73        72.66693
990.12         71.4789
990.50        69.17917
990.88        66.45419
991.27        64.35847
991.65         63.2547
992.03        62.86496
992.42        63.14531
992.80        64.37985
993.18        66.39563
993.56        69.14889
993.95        72.05942
994.33        74.07919
994.71        74.71145
995.10         74.2562
995.48         73.1103
995.86         72.0219
996.24          71.273
996.63        70.55627
997.01        70.21968
997.39        70.68053
997.77        71.91464
998.15        73.83433
998.54         75.6338
998.92        76.03131
999.30        74.74963
999.68        72.09937
1000.06        68.96923
1000.45        67.08652
1000.83        67.14021
1001.21         68.6974
1001.59        71.06479
1001.97        73.03419
1002.35        74.15841
1002.73        74.75387
1003.12        75.01394
1003.50        75.16396
1003.88        75.34313
1004.26        75.41451
1004.64        75.33357
1005.02         75.1177
1005.40        74.80006
1005.78        74.43754
1006.16        74.18362
1006.54        74.20058
1006.92        74.51088
1007.30        75.12033
1007.69        75.75601
1008.07        75.95391
1008.45        75.51188
1008.83        74.56053
1009.21        73.55928
1009.59        73.31018
1009.97        73.97683
1010.35        75.22285
1010.73        76.61452
1011.11        77.44539
1011.49        77.48968
1011.86        77.08878
1012.24        76.12902
1012.62         74.6264
1013.00        72.65272
1013.38        70.11225
1013.76        67.59066
1014.14        66.37228
1014.52        66.89952
1014.90         68.9423
1015.28        71.39095
1015.66        72.41936
1016.04        71.59711
1016.41        69.45891
1016.79        66.89362
1017.17        65.77979
1017.55        66.58819
1017.93          68.396
1018.31        70.52243
1018.69        72.60545
1019.06        74.87136
1019.44        77.68839
1019.82        81.21819
1020.20        84.39533
1020.58        85.93211
1020.95        85.52087
1021.33        84.11821
1021.71        82.93675
1022.09        82.09676
1022.46        81.12019
1022.84        79.77748
1023.22        77.28362
1023.60         74.1435
1023.97        71.48899
1024.35        69.69855
1024.73        68.59444
