SpectraSmart Spectrum 2.9.0.0
--------- Device Information -----------
Spectrum Name :  反射率_0
Saving Time :  2024/04/30 01:20:12
Spectro-Module Model Name : SE2030-DUVN
Spectro-Module Serial Number : OS361AC55029948
Wavelength Start : 200
Wavelength End : 1025
Wavelength Unit : Wavelength(nm)
Spectrum Unit : Reflectance(%)
-----------Spectrum Setting ------------
Integration Time : 20ms
Average : 10
Boxcar : 0
Background removal :  enabled
linearity correction :  enabled
SC :  disabled
Intensity correction :  disabled
DWT denoise :  enabled
savitzky-golay :  disabled
FFT :  disabled
Running average :  disabled
Kalman :  disabled
High pass :  disabled
---------------BEGIN--------------------
Wavelength(nm)             Reflectance(%)
200.29               0
200.75        33.30709
201.21        23.77456
201.67        14.10301
202.13        10.05399
202.58        14.04566
203.04        26.55942
203.50        43.42521
203.96        54.95724
204.42        56.17935
204.88        47.69433
205.34        36.59264
205.80        34.17577
206.26        40.23986
206.72        49.28149
207.18        55.04184
207.64        52.82584
208.10        43.32595
208.55        27.97813
209.01        11.68711
209.47        6.654355
209.93        15.02853
210.39        30.36475
210.85        43.82785
211.31        48.16009
211.77        42.84313
212.23        27.84201
212.69        6.286468
213.14       -2.984985
213.60        9.252214
214.06        31.45511
214.52        50.18622
214.98        57.17308
215.44        54.10098
215.90        44.70275
216.36        32.87791
216.81         25.8867
217.27        27.62789
217.73        37.14913
218.19        54.23574
218.65         71.3034
219.11        79.78411
219.57        80.37734
220.02        77.16728
220.48        74.54066
220.94        72.58865
221.40        69.93238
221.86        64.76691
222.32        56.04777
222.77        47.06532
223.23        41.20108
223.69        38.37152
224.15        37.58038
224.61        38.09541
225.06        39.55384
225.52        42.24473
225.98         45.5779
226.44        48.46751
226.90          50.661
227.36         51.6843
227.81        51.30876
228.27          49.809
228.73        47.12875
229.19        44.35837
229.65        43.83475
230.10        45.76236
230.56        48.93333
231.02        51.55914
231.48         52.0807
231.93        50.53914
232.39          47.583
232.85         44.2766
233.31        42.68719
233.77        43.47585
234.22        46.17442
234.68        49.45527
235.14        50.86753
235.60        49.76272
236.05        47.00211
236.51        44.18245
236.97        43.34113
237.43        45.01387
237.88        49.05233
238.34        54.68696
238.80        59.35607
239.26        60.94051
239.71        59.96307
240.17        57.44894
240.63        55.20179
241.08        53.67224
241.54        51.88337
242.00         49.9695
242.46        49.59666
242.91        52.48418
243.37        58.36674
243.83        63.84006
244.28        65.24477
244.74        62.10346
245.20        54.59807
245.66        44.56657
246.11        37.45748
246.57        36.76147
247.03        41.47012
247.48        49.92143
247.94        56.21124
248.40        58.09927
248.85        57.69434
249.31         57.4763
249.77        58.85572
250.22         62.4028
250.68         68.4265
251.14        77.50901
251.59        84.53005
252.05        83.86284
252.51        79.25255
252.96         74.3119
253.42         70.6064
253.88        67.27154
254.33        63.49586
254.79        60.03867
255.25        58.34344
255.70        58.41122
256.16        59.53437
256.62         60.6153
257.07        60.88298
257.53        60.74658
257.99        60.33949
258.44        59.47981
258.90        58.64324
259.35        57.64848
259.81        56.80654
260.27        56.15905
260.72         55.7979
261.18        55.78115
261.63        55.73856
262.09         55.5551
262.55        54.76737
263.00        53.39465
263.46        51.89374
263.91        50.35112
264.37        49.13183
264.83        48.17708
265.28        47.32195
265.74        46.67681
266.19        46.19452
266.65        45.90411
267.11        45.74561
267.56        45.56609
268.02         45.1451
268.47        44.41136
268.93        43.43129
269.38        42.30088
269.84        41.31854
270.30        40.57142
270.75        40.00385
271.21        39.52057
271.66        38.93454
272.12          38.204
272.57        37.35711
273.03        36.52103
273.48        35.80602
273.94        35.29331
274.39        34.89203
274.85        34.52845
275.31        34.02425
275.76        33.33838
276.22         32.5631
276.67        31.78697
277.13         31.2323
277.58         30.8772
278.04        30.68412
278.49        30.47326
278.95        30.08478
279.40        29.45541
279.86        28.73189
280.31        27.99564
280.77        27.48202
281.22        27.19722
281.68        27.09197
282.13        27.08081
282.59        27.09875
283.04        27.08647
283.50        27.05481
283.95        26.96436
284.41          26.768
284.86        26.45766
285.32         26.0967
285.77        25.68377
286.22        25.29138
286.68        24.95639
287.13        24.62992
287.59        24.39152
288.04        24.30159
288.50        24.36627
288.95        24.52581
289.41        24.66806
289.86        24.58452
290.32        24.27144
290.77        23.80056
291.22        23.30295
291.68        22.98732
292.13         22.9069
292.59        23.01637
293.04        23.29456
293.50        23.73384
293.95        24.29956
294.40        24.99531
294.86        25.70922
295.31        26.27914
295.77        26.66675
296.22        26.90015
296.68        27.10532
297.13        27.46617
297.58        28.03524
298.04        28.73111
298.49        29.45298
298.95         30.0372
299.40        30.43923
299.85        30.71529
300.31        30.94013
300.76        31.16906
301.21        31.45264
301.67        31.77784
302.12        32.09675
302.58        32.47953
303.03        32.91441
303.48        33.26045
303.94        33.50135
304.39        34.30148
304.84        34.48827
305.30        34.97768
305.75        35.36824
306.20         35.6468
306.66         35.8098
307.11        35.87314
307.57        35.88722
308.02         35.8477
308.47        35.78662
308.93        35.71332
309.38        35.65137
309.83        35.68637
310.29        35.82411
310.74        36.03204
311.19        36.22519
311.65         36.2627
312.10        36.11338
312.55        35.82399
313.00        35.49203
313.46        35.27202
313.91         35.1899
314.36        35.20155
314.82        35.23247
315.27         35.1826
315.72         35.0119
316.18        34.76543
316.63        34.46844
317.08        34.16993
317.53        33.89472
317.99        33.63405
318.44        33.38889
318.89        33.16789
319.35        32.96966
319.80        32.79451
320.25         32.6449
320.70        32.52081
321.16        32.40525
321.61        32.30782
322.06        32.19175
322.51        32.01121
322.97         31.7591
323.42        31.45492
323.87        31.13737
324.32        30.87312
324.78        30.66885
325.23        30.52149
325.68        30.38909
326.13        30.20588
326.59        29.95113
327.04        29.65864
327.49        29.36068
327.94        29.12168
328.39        28.94976
328.85        28.80442
329.30        28.66755
329.75        28.46382
330.20        28.18101
330.66        27.85537
331.11        27.51154
331.56        27.16035
332.01        26.81703
332.46        26.46996
332.92        26.17422
333.37        26.05658
333.82        26.12488
334.27        26.34635
334.72        26.58423
335.17        26.60629
335.63        26.35374
336.08        25.90076
336.53        25.37781
336.98        25.03032
337.43        24.93404
337.88        25.01168
338.34        25.17844
338.79        25.31861
339.24        25.37717
339.69        25.40065
340.14        25.37664
340.59        25.28071
341.05        25.12381
341.50        24.90228
341.95        24.68126
342.40        24.57908
342.85        24.61034
343.30        24.73135
343.75        24.85792
344.20        24.85127
344.66        24.68628
345.11        24.40872
345.56        24.06507
346.01        23.72724
346.46        23.44022
346.91        23.19383
347.36        23.02533
347.81           22.99
348.26        23.08201
348.72        23.27466
349.17        23.49987
349.62        23.63718
350.07        23.64519
350.52        23.55359
350.97          23.388
351.42        23.19272
351.87        22.99656
352.32        22.79822
352.77        22.63047
353.22        22.54716
353.67        22.55566
354.13        22.63482
354.58        22.75727
355.03        22.87398
355.48        22.95652
355.93        23.00984
356.38        22.99976
356.83        22.87947
357.28        22.65371
357.73        22.34365
358.18         22.0201
358.63        21.79606
359.08        21.69794
359.53        21.69479
359.98        21.73304
360.43        21.72277
360.88         21.6352
361.33        21.49503
361.78        21.32559
362.23        21.16326
362.68        21.02302
363.13        20.89638
363.58        20.77275
364.03        20.63831
364.48        20.49141
364.93        20.33666
365.38        20.20239
365.83        20.13155
366.28         20.1267
366.73        20.17052
367.18        20.20797
367.63        20.15304
368.08           19.99
368.53        19.74808
368.98        19.48692
369.43        19.30385
369.88        19.22793
370.33        19.23209
370.78        19.27576
371.23        19.29264
371.68        19.25576
372.13        19.17535
372.58        19.07139
373.03         18.9761
373.48         18.8947
373.93        18.81601
374.38        18.70497
374.83        18.50934
375.28        18.23614
375.72        17.91748
376.17         17.6364
376.62        17.47194
377.07        17.43612
377.52        17.49105
377.97        17.60066
378.42        17.70452
378.87        17.76961
379.32        17.80569
379.77        17.78833
380.22        17.68397
380.67        17.49482
381.11        17.23048
381.56        16.94747
382.01        16.74142
382.46        16.64396
382.91        16.63964
383.36        16.68176
383.81        16.69205
384.26        16.64927
384.71        16.57044
385.15        16.48748
385.60        16.47623
386.05        16.53353
386.50         16.6271
386.95        16.69766
387.40        16.65911
387.85        16.50216
388.29        16.25607
388.74        16.00701
389.19        15.81482
389.64        15.69702
390.09        15.63225
390.54        15.60768
390.98        15.59989
391.43        15.60272
391.88        15.61972
392.33        15.63682
392.78        15.64947
393.23        15.65415
393.67        15.60701
394.12         15.5307
394.57        15.56206
395.02        15.47699
395.47         15.4544
395.91        15.41167
396.36         15.3158
396.81        15.17474
397.26        15.00767
397.71         14.8581
398.15        14.77976
398.60        14.79787
399.05        14.85607
399.50         14.9117
399.95        14.96878
400.39        14.93657
400.84        14.82864
401.29        14.65755
401.74        14.54084
402.18        14.50387
402.63        14.48373
403.08        14.48328
403.53        14.51754
403.97        14.57694
404.42        14.66009
404.87        14.71664
405.32        14.66357
405.76        14.48832
406.21        14.22499
406.66        13.95529
407.11        13.80985
407.55        13.82249
408.00        13.95714
408.45        14.13391
408.90        14.20485
409.34        14.12661
409.79        13.94281
410.24        13.74718
410.68        13.68096
411.13        13.77446
411.58        13.98125
412.03        14.20272
412.47        14.27521
412.92        14.14945
413.37        13.89384
413.81        13.61024
414.26        13.46949
414.71         13.4952
415.15        13.63795
415.60        13.81381
416.05        13.90098
416.49         13.8614
416.94        13.73999
417.39        13.58006
417.83        13.44568
418.28        13.36503
418.73         13.3103
419.17        13.28238
419.62        13.28595
420.07        13.31367
420.51        13.36597
420.96        13.41561
421.41        13.40942
421.85        13.33732
422.30        13.23099
422.74        13.11737
423.19        13.06019
423.64        13.06646
424.08        13.12356
424.53        13.20388
424.98        13.28402
425.42        13.34985
425.87        13.39319
426.31        13.40405
426.76        13.38998
427.21        13.30833
427.65        13.18832
428.10        13.04239
428.54        12.87297
428.99         12.7084
429.44        12.63738
429.88        12.63677
430.33        12.50829
430.77        12.33349
431.22        12.50808
431.66        12.96477
432.11        13.17906
432.56        13.06575
433.00        12.92823
433.45        12.80107
433.89        12.47753
434.34        12.13558
434.78        12.22557
435.23          12.636
435.67        12.78979
436.12         12.6417
436.57        12.50417
437.01        12.44663
437.46        12.45402
437.90        12.54214
438.35        12.69869
438.79        12.86008
439.24        12.90694
439.68        12.83512
440.13        12.73219
440.57        12.61195
441.02        12.50623
441.46        12.43648
441.91        12.30775
442.35        12.15826
442.80        12.30362
443.24        12.62274
443.69        12.52009
444.13        12.06741
444.58        11.88101
445.02        11.96967
445.47        12.01152
445.91        11.98221
446.36        12.00278
446.80        12.06294
447.24        12.13484
447.69        12.20621
448.13        12.25924
448.58        12.28963
449.02        12.30073
449.47        12.30803
449.91        12.32995
450.36        12.37064
450.80        12.42174
451.25        12.46542
451.69        12.47273
452.13        12.43652
452.58        12.37455
453.02        12.29993
453.47          12.233
453.91        12.17877
454.36        12.16827
454.80        12.14001
455.24        12.13431
455.69        12.13412
456.13        12.13974
456.58        12.15444
457.02        12.17016
457.46        12.18801
457.91        12.20527
458.35        12.21995
458.79        12.23471
459.24        12.25762
459.68        12.29258
460.13         12.3387
460.57        12.33636
461.01        12.37928
461.46         12.3458
461.90        12.29653
462.34        12.39394
462.79        12.58534
463.23        12.59698
463.68         12.4401
464.12          12.366
464.56        12.38351
465.01        12.36743
465.45        12.31168
465.89        12.26085
466.34         12.2387
466.78        12.29244
467.22         12.4239
467.67        12.43489
468.11         12.3236
468.55        12.16471
468.99        12.02623
469.44        11.98085
469.88        12.04685
470.32        12.20608
470.77        12.39118
471.21        12.50606
471.65        12.51749
472.10        12.45948
472.54        12.38024
472.98        12.37055
473.42        12.44882
473.87        12.58092
474.31        12.71602
474.75        12.77883
475.20        12.75777
475.64        12.67907
476.08        12.58461
476.52        12.53371
476.97        12.54353
477.41        12.59142
477.85        12.66458
478.29        12.74079
478.74        12.81316
479.18        12.88247
479.62        12.93668
480.06         12.9881
480.50        13.04329
480.95        12.97937
481.39        13.01526
481.83        13.06132
482.27        13.19176
482.72        13.28275
483.16        13.47786
483.60         13.5632
484.04        13.57441
484.48        13.53221
484.93        13.50244
485.37        13.56106
485.81        13.65698
486.25        13.90768
486.69         13.4981
487.14        13.69462
487.58        14.38864
488.02        14.24785
488.46        14.42179
488.90        14.72099
489.34        14.34994
489.79        14.44961
490.23        14.57928
490.67        14.81523
491.11         15.0361
491.55         15.0228
491.99         14.8534
492.43         14.8879
492.88          15.149
493.32        15.40567
493.76        15.60693
494.20        15.80258
494.64        15.98255
495.08        16.12628
495.52        16.23441
495.96        16.35375
496.41        16.49655
496.85        16.55206
497.29         16.5448
497.73        16.81248
498.17         17.0896
498.61        17.11987
499.05        16.88894
499.49        16.81734
499.93        16.94663
500.37        17.11318
500.82        17.27754
501.26        17.41683
501.70        17.51445
502.14        17.60157
502.58        17.69977
503.02        17.82114
503.46        17.97024
503.90        18.14247
504.34        18.31161
504.78        18.43368
505.22        18.49707
505.66        18.51124
506.10        18.49723
506.54        18.51043
506.98        18.56757
507.42        18.61913
507.86        18.63444
508.30        18.77456
508.74        18.69128
509.18        18.67485
509.62        18.65583
510.06        18.69238
510.50        18.79256
510.94        18.94419
511.38        19.11124
511.82        19.22433
512.26        19.26469
512.70        19.24825
513.14        19.21342
513.58        19.22173
514.02        19.28692
514.46        19.38963
514.90        19.49062
515.34        19.52655
515.78        19.48411
516.22        19.38765
516.66        19.27958
517.10        19.22439
517.54        19.23694
517.98        19.29425
518.42        19.36503
518.86        19.39862
519.30         19.3809
519.74        19.33217
520.18        19.26697
520.62        19.20565
521.06        19.15851
521.50        19.11895
521.93        19.09667
522.37        19.10327
522.81        19.13891
523.25        19.19593
523.69         19.2549
524.13        19.28554
524.57        19.27829
525.01        19.23851
525.45        19.17267
525.89        19.09453
526.32        19.01002
526.76        18.92353
527.20        18.83791
527.64        18.75804
528.08        18.68587
528.52        18.62277
528.96        18.57142
529.40        18.53337
529.83         18.5069
530.27        18.49362
530.71        18.48205
531.15        18.45779
531.59        18.41605
532.03        18.35575
532.46        18.28992
532.90        18.24614
533.34        18.22788
533.78        18.23168
534.22        18.23046
534.66        18.18138
535.09        18.07944
535.53        17.94668
535.97        17.82551
536.41        17.78915
536.85        17.85003
537.28        17.98003
537.72        18.12977
538.16        18.22316
538.60        18.23959
539.04        18.20777
539.47        18.14603
539.91        18.10152
540.35        18.08597
540.79         18.0903
541.22        18.12603
541.66        18.21591
542.10        18.35663
542.54        18.54302
542.97        18.74523
543.41        18.91497
543.85        19.04114
544.29         19.1398
544.72        19.22223
545.16        19.32346
545.60        19.45151
546.04        19.58673
546.47          19.735
546.91         19.9367
547.35        20.17359
547.79         20.3739
548.22        20.51762
548.66        20.68397
549.10        20.87779
549.53        20.99087
549.97         20.9994
550.41        21.29871
550.84        21.25583
551.28        21.35228
551.72        21.40306
552.15        21.60199
552.59        21.68084
553.03        21.85209
553.46        22.02326
553.90         22.1701
554.34         22.2806
554.77        22.38362
555.21        22.48591
555.65         22.5383
556.08        22.56444
556.52        22.67072
556.96        22.83642
557.39        22.97548
557.83        23.07487
558.27        23.12803
558.70        23.16924
559.14        23.28106
559.57        23.44882
560.01        23.62621
560.45        23.77353
560.88        23.76504
561.32        23.74596
561.75        23.73929
562.19        23.79503
562.63        23.82383
563.06        23.82846
563.50        23.87861
563.93        23.96148
564.37        24.04561
564.80        24.12005
565.24        24.20131
565.68        24.28584
566.11        24.38314
566.55        24.49419
566.98        24.57827
567.42        24.67201
567.85        24.78683
568.29        24.92806
568.72        25.15629
569.16        25.47986
569.60         25.4139
570.03        25.74438
570.47        25.84599
570.90         25.8616
571.34        26.12242
571.77        26.13632
572.21        26.27722
572.64        26.38348
573.08        26.51027
573.51         26.6936
573.95        26.72871
574.38        27.00819
574.82        27.09237
575.25        26.86197
575.69        26.84877
576.12        26.96454
576.56        27.11195
576.99        26.81874
577.42        26.92941
577.86        27.08517
578.29        27.06637
578.73        26.87063
579.16        26.95853
579.60        26.99127
580.03        26.81921
580.47        26.77963
580.90        26.71501
581.33        26.72135
581.77        26.58164
582.20        26.32442
582.64        26.14799
583.07        26.07889
583.51        25.96743
583.94        25.89292
584.37        25.71473
584.81        25.51765
585.24        25.55991
585.68         25.6225
586.11        25.78809
586.54        25.26272
586.98        25.30136
587.41        25.62094
587.85        25.35109
588.28        25.12191
588.71        25.48796
589.15          24.919
589.58        25.17966
590.01        24.95593
590.45        24.99213
590.88        25.05636
591.31        25.17167
591.75        25.27284
592.18        25.37111
592.61        25.51368
593.05        25.10628
593.48        25.37569
593.91        25.48128
594.35        25.27205
594.78        25.34712
595.21        25.55223
595.65        25.53483
596.08        25.35957
596.51        25.70936
596.94        26.15491
597.38        26.52939
597.81        26.65528
598.24        26.70112
598.68        27.00292
599.11        27.16373
599.54        27.49645
599.97        27.82364
600.41        28.04107
600.84        28.27922
601.27        28.63959
601.70        28.99149
602.14        29.34051
602.57        29.59308
603.00         29.7728
603.43        30.07944
603.87        30.41459
604.30        30.92541
604.73        31.17492
605.16        31.53111
605.60        31.88033
606.03        32.33611
606.46        32.78352
606.89        33.24292
607.32        33.41308
607.76         33.7159
608.19        34.05964
608.62        34.35055
609.05        34.63984
609.48        35.00304
609.92        35.26067
610.35         35.8768
610.78         35.8409
611.21        35.80673
611.64        36.30117
612.07        36.55008
612.50        36.78656
612.94        37.00429
613.37        37.35674
613.80        37.64554
614.23        37.97269
614.66        38.20792
615.09        38.37186
615.52        38.62884
615.96        38.94582
616.39         38.9897
616.82        38.80631
617.25        39.15369
617.68        39.30428
618.11        39.69146
618.54         40.0186
618.97        40.22702
619.40        40.34911
619.84        40.50371
620.27        40.71014
620.70         41.0034
621.13        41.27581
621.56        41.03376
621.99        41.36345
622.42        41.16359
622.85        41.15963
623.28        41.36226
623.71        41.67294
624.14        41.10959
624.57        41.51328
625.00        41.43519
625.43        41.42694
625.86         41.3198
626.29        41.14863
626.72        41.08841
627.15        40.97411
627.58        40.95115
628.01        40.92606
628.44        40.72968
628.87        40.40101
629.30        40.22701
629.73        40.20336
630.16        40.05828
630.59        39.77511
631.02        39.59952
631.45         39.3494
631.88        39.08965
632.31        38.76461
632.74        38.40514
633.17        38.01635
633.60        37.61245
634.03        37.20309
634.46        36.77787
634.89        36.35963
635.32        35.98953
635.75        35.67254
636.18        35.39677
636.61        35.12075
637.04        34.78766
637.47        34.39436
637.89        33.91947
638.32        33.39919
638.75        33.04327
639.18           32.87
639.61        32.41124
640.04          32.248
640.47        31.98915
640.90        31.80274
641.33        31.62914
641.76        31.45745
642.18        31.29009
642.61        31.11241
643.04        30.92795
643.47         30.7779
643.90        30.71894
644.33        30.75696
644.76        30.91755
645.18        31.12609
645.61        31.17145
646.04        31.00641
646.47        31.02497
646.90        31.22104
647.33        31.37424
647.75        31.47847
648.18        31.68392
648.61        31.98119
649.04        32.26227
649.47        32.52114
649.89        32.85307
650.32        33.22551
650.75        33.49924
651.18        33.72756
651.61         34.1081
652.03         34.6395
652.46        35.23806
652.89        35.78066
653.32        36.02551
653.74        36.10982
654.17        36.24662
654.60        36.62493
655.03        37.72816
655.46        37.26232
655.88        38.37117
656.31        40.23378
656.74        40.39679
657.16        39.62968
657.59        38.95737
658.02        39.35884
658.45        40.53745
658.87        40.77095
659.30        41.10661
659.73        41.63035
660.15         42.0363
660.58        42.35963
661.01        42.49604
661.44        42.52783
661.86        42.44791
662.29        42.38586
662.72        42.82245
663.14        43.59751
663.57        43.65808
664.00        43.13651
664.42        43.12558
664.85        43.68746
665.27        44.19365
665.70        44.53028
666.13        44.83106
666.55        45.06719
666.98        45.19573
667.41        45.25992
667.83        45.32888
668.26        45.42099
668.69        45.52797
669.11        45.64376
669.54        45.75874
669.96        45.87085
670.39        45.99081
670.82        46.11049
671.24        46.21745
671.67        46.30119
672.09        46.36193
672.52        46.43394
672.94        46.61258
673.37        46.54481
673.80        47.04359
674.22        47.04409
674.65         47.2967
675.07        47.51471
675.50        47.71463
675.92        47.88403
676.35        47.99743
676.77        48.06814
677.20        48.08971
677.62        48.10114
678.05        48.16351
678.47        48.28692
678.90        48.46054
679.32        48.64297
679.75        48.76965
680.17        48.81921
680.60        48.83235
681.02        48.83976
681.45         48.8506
681.87        48.89391
682.30         49.0483
682.72         49.2907
683.15        49.39131
683.57        49.39199
684.00        49.57753
684.42        49.89175
684.85        50.04543
685.27         50.0236
685.70        49.90882
686.12        49.80328
686.54        50.00988
686.97        50.46212
687.39        50.76918
687.82        50.83726
688.24        50.91439
688.66        50.98688
689.09        50.80742
689.51        50.58619
689.94        50.47106
690.36         50.5376
690.78        50.69616
691.21        50.88925
691.63        51.06653
692.06        51.17757
692.48        51.17533
692.90        51.10294
693.33        51.10174
693.75        51.19148
694.17        51.29654
694.60        51.42114
695.02        51.55688
695.44        51.68064
695.87        51.99784
696.29        52.22093
696.71        52.22313
697.14        52.01657
697.56        52.05679
697.98        52.33406
698.41        52.47511
698.83        52.46795
699.25        52.54614
699.68        52.68464
700.10        52.76277
700.52        52.76024
700.94        52.72402
701.37        52.66945
701.79          52.637
702.21        52.63413
702.64        52.65699
703.06        52.71214
703.48        52.81868
703.90        52.97665
704.33        53.18901
704.75        53.40005
705.17        53.57249
705.59        53.66947
706.01        53.70138
706.44        53.69847
706.86        53.70201
707.28        53.72358
707.70        53.80484
708.12        53.92641
708.55          53.939
708.97        53.88859
709.39        54.02778
709.81        54.34319
710.23        54.59333
710.66        54.74414
711.08        54.93789
711.50        55.14072
711.92        55.26477
712.34        55.30501
712.76        55.28682
713.19        55.21866
713.61        55.15414
714.03        55.10128
714.45        55.05952
714.87         55.0492
715.29        55.09735
715.71        55.20593
716.13        55.36659
716.56        55.53485
716.98         55.7086
717.40        55.84754
717.82        55.92558
718.24        55.95158
718.66        56.01027
719.08        56.07947
719.50        56.01236
719.92        55.84331
720.34        55.75407
720.76        55.76374
721.19        55.77914
721.61        55.79198
722.03        55.80073
722.45        55.79578
722.87        55.77993
723.29        55.76918
723.71        55.76074
724.13        55.75306
724.55        55.79589
724.97        55.89558
725.39        55.78395
725.81        55.88664
726.23        55.89373
726.65        55.94034
727.07        55.97567
727.49        56.02673
727.91         56.1948
728.33        56.44413
728.75        56.61255
729.17        56.67585
729.59        56.72881
730.01        56.75459
730.43        56.68977
730.85        56.55044
731.27        56.36609
731.69        56.22793
732.10        56.28568
732.52        56.55646
732.94        56.98076
733.36        57.45404
733.78        57.79445
734.20        57.90289
734.62        57.90135
735.04         57.8213
735.46        57.68246
735.88        57.57131
736.30        57.54858
736.72        57.61751
737.13        57.88849
737.55        58.17152
737.97        57.96545
738.39        57.40621
738.81        57.10592
739.23        57.19441
739.65        57.60353
740.06        58.11173
740.48        58.32024
740.90        58.15292
741.32        57.82708
741.74        57.50972
742.16        57.37253
742.57         57.4848
742.99        57.82348
743.41        58.24308
743.83        58.38941
744.25        58.25666
744.67        58.17377
745.08        58.19987
745.50        58.18989
745.92        58.17222
746.34        58.23446
746.75        58.37665
747.17        58.54023
747.59        58.71637
748.01        58.93141
748.42        59.11392
748.84        59.16226
749.26         59.0758
749.68        58.75875
750.09        58.35333
750.51        58.39879
750.93         58.7973
751.35        58.85447
751.76        58.57039
752.18        58.52275
752.60        58.72555
753.01        58.74908
753.43        58.61219
753.85        58.75671
754.27        59.10704
754.68        59.14554
755.10        58.90305
755.52         58.8493
755.93        58.98423
756.35        59.01891
756.77        59.01443
757.18        59.10939
757.60        59.30619
758.02        59.80223
758.43        60.33619
758.85        60.05553
759.26        59.18595
759.68        58.83196
760.10        59.05439
760.51           59.73
760.93        59.61839
761.34        59.94341
761.76        60.23584
762.18        60.08073
762.59        59.57516
763.01         59.2431
763.42        59.21441
763.84         59.1637
764.26        59.14306
764.67          59.318
765.09        59.60776
765.50        59.90393
765.92        60.20311
766.33        59.78791
766.75        59.93373
767.16        59.81994
767.58        59.84089
768.00        59.73911
768.41         59.5948
768.83         59.8468
769.24         60.3032
769.66         60.2971
770.07        59.86444
770.49        59.48244
770.90        59.31245
771.32        59.56138
771.73        60.10011
772.15        60.26939
772.56        60.01559
772.97        59.90178
773.39         59.6292
773.80        59.71655
774.22        60.00645
774.63        60.31841
775.05        60.51707
775.46        60.65633
775.88        60.67766
776.29        60.53489
776.70        60.28849
777.12        60.12002
777.53        60.07516
777.95        60.08426
778.36        60.14511
778.77        60.23503
779.19        60.34356
779.60        60.54743
780.02        60.75981
780.43        60.87632
780.84        60.93021
781.26        60.83266
781.67        60.69438
782.09        61.18718
782.50        62.11373
782.91        61.77628
783.33        61.20314
783.74        60.77277
784.15        60.84225
784.57        60.73161
784.98        60.47311
785.39        60.41726
785.81        60.57542
786.22        60.85889
786.63        61.21331
787.04        61.54926
787.46        61.82284
787.87        62.03017
788.28        62.18827
788.70         62.2799
789.11        62.29599
789.52        62.37032
789.93         62.4501
790.35        62.17567
790.76        61.69062
791.17        61.64447
791.58        62.02425
792.00        62.21627
792.41        62.19489
792.82        62.36347
793.23        62.67947
793.65        62.72805
794.06        62.57165
794.47        62.64305
794.88        62.86785
795.29        62.83067
795.71        62.49691
796.12        62.11646
796.53        61.82535
796.94         61.7803
797.35        62.03668
797.76        62.54593
798.18        63.11412
798.59        63.46507
799.00        63.50018
799.41        63.29844
799.82        62.97964
800.23        62.75571
800.64        62.70236
801.06        62.73682
801.47        62.85071
801.88         62.9656
802.29        63.03833
802.70        63.07352
803.11        63.08807
803.52        63.08688
803.93        63.08839
804.34        63.15258
804.75         63.1872
805.17         63.0393
805.58        62.80013
805.99        62.41037
806.40        62.08491
806.81        62.68326
807.22        63.90091
807.63        64.11454
808.04        63.37239
808.45        63.21309
808.86        63.71628
809.27        63.92621
809.68        63.77412
810.09        63.66071
810.50        63.60236
810.91        63.48528
811.32        63.37201
811.73        63.36453
812.14        63.47548
812.55        63.69946
812.96        63.94486
813.37        64.02264
813.78        63.89238
814.19        63.62809
814.60        63.33368
815.01        63.15399
815.42        63.12547
815.83        63.20042
816.24        63.35074
816.65        63.51795
817.05        63.66455
817.46        63.77169
817.87        63.83503
818.28        63.79919
818.69        63.66674
819.10        63.45587
819.51        63.22876
819.92         63.1088
820.33        63.13623
820.74        63.26945
821.14        63.47807
821.55        63.72051
821.96        63.96172
822.37        64.21561
822.78        64.41216
823.19        64.43073
823.60        64.24239
824.00        63.86835
824.41        63.42628
824.82        63.13344
825.23         63.0428
825.64         63.1281
826.04         63.2693
826.45        63.18646
826.86        62.84653
827.27        62.33801
827.68        61.87656
828.08        61.81748
828.49        62.19256
828.90         62.9263
829.31        63.78899
829.72         64.3836
830.12        64.60835
830.53        64.48942
830.94        64.25667
831.35        64.27305
831.75        64.64845
832.16        65.19794
832.57        65.72711
832.97        65.87789
833.38        65.57149
833.79        65.00021
834.20        64.33028
834.60        63.76954
835.01        63.42646
835.42        63.21699
835.82        63.22679
836.23        63.53926
836.64        64.14979
837.04         65.0502
837.45        65.92417
837.86        66.37248
838.26        66.28072
838.67        65.76144
839.08        65.04586
839.48        64.49675
839.89         64.2661
840.29        64.24286
840.70        64.37167
841.11        64.57159
841.51        64.81584
841.92        65.11334
842.33        65.41541
842.73        65.60827
843.14        65.61915
843.54        65.49277
843.95        65.30969
844.35        65.27219
844.76        65.39746
845.17        65.60594
845.57        65.82159
845.98        65.88939
846.38        65.78313
846.79         65.5659
847.19        65.22749
847.60        64.71295
848.00        64.08398
848.41        63.38718
848.81        62.83672
849.22        62.74339
849.62        63.18182
850.03        64.02233
850.43        65.06062
850.84        65.74484
851.24        65.93684
851.65        65.66687
852.05        65.14038
852.46        64.67624
852.86        64.38303
853.27        64.24236
853.67        64.07507
854.07        63.78039
854.48        63.29812
854.88        62.69078
855.29        62.08308
855.69        61.88727
856.10        62.13551
856.50        62.78385
856.90        63.47811
857.31        63.71741
857.71        63.44654
858.12        62.78888
858.52        62.04876
858.92        61.70119
859.33        61.87186
859.73        62.44238
860.13         63.2278
860.54        63.93991
860.94        64.49929
861.34        64.91061
861.75        65.11234
862.15        65.04606
862.55        64.69552
862.96         64.1065
863.36        63.34206
863.76        62.53665
864.17        61.78609
864.57        61.12001
864.97        60.63184
865.38         60.4049
865.78        60.46466
866.18        60.76305
866.58        61.22409
866.99        61.65862
867.39        62.00889
867.79        62.28131
868.19        62.40307
868.60        62.28173
869.00        61.93952
869.40        61.39408
869.80        60.91155
870.21        60.94269
870.61        61.60592
871.01        62.71817
871.41        63.87165
871.81        64.41864
872.22        64.19263
872.62        63.37679
873.02        62.30212
873.42        61.53041
873.82        61.26331
874.22        61.39193
874.63        61.68638
875.03         61.7914
875.43        61.62338
875.83        61.28611
876.23        61.08198
876.63        61.49184
877.03        62.56621
877.44        64.06131
877.84        65.51209
878.24         66.0836
878.64        65.61729
879.04        64.44505
879.44        63.05443
879.84        62.16008
880.24        61.94232
880.64        62.15275
881.04        62.66819
881.44        63.27663
881.84        63.85578
882.24        64.50833
882.65        64.97444
883.05        64.91962
883.45        64.26654
883.85        63.14825
884.25        62.03207
884.65        61.64275
885.05        62.10549
885.45        63.17272
885.85        64.46814
886.25        65.32713
886.65        65.50405
887.05        65.20471
887.45         64.5056
887.85        63.56179
888.25        62.55768
888.65         61.5245
889.04        60.68057
889.44        60.36761
889.84         60.5846
890.24        61.27488
890.64        62.26295
891.04        63.11451
891.44        63.61004
891.84        63.81671
892.24        63.82368
892.64        63.79869
893.04        63.80446
893.44        63.78358
893.83        63.76651
894.23        63.75805
894.63         63.7883
895.03        63.86987
895.43        63.99112
895.83        64.11629
896.23        64.22282
896.63        64.29588
897.02        64.30126
897.42        64.25534
897.82        64.13552
898.22        63.96851
898.62        63.73293
899.01        63.40442
899.41        62.99905
899.81        62.55893
900.21        62.21505
900.61        62.15916
901.00        62.41476
901.40        62.92094
901.80        63.49543
902.20        63.83673
902.59        63.85714
902.99        63.62362
903.39         63.2835
903.79        63.06609
904.18        63.02528
904.58        63.10738
904.98        63.20468
905.38        63.16506
905.77        62.94004
906.17        62.60108
906.57        62.24413
906.96        62.03805
907.36        61.99758
907.76         62.0987
908.15        62.24653
908.55        62.17105
908.95        61.88692
909.34          61.473
909.74        61.17975
910.14        61.25693
910.53        61.78014
910.93        62.59912
911.33         63.5983
911.72        64.61394
912.12        65.46893
912.52        66.19882
912.91        66.73415
913.31        66.96165
913.70        66.87471
914.10        66.48093
914.49        65.87395
914.89        65.18449
915.29        64.50761
915.68        63.86306
916.08        63.36657
916.47        63.05394
916.87        62.97808
917.26        63.08926
917.66        63.36288
918.05        63.76056
918.45        64.18823
918.84        64.66927
919.24        65.01797
919.64        65.07382
920.03        64.81244
920.42        64.26493
920.82        63.64051
921.21        63.17345
921.61        62.94886
922.00        62.93457
922.40        63.03971
922.79        63.17328
923.19        63.26605
923.58        63.36883
923.98        63.49377
924.37        63.67428
924.77         63.8943
925.16        64.11472
925.55        64.28818
925.95        64.35494
926.34        64.32033
926.74        64.20707
927.13        64.02465
927.52        63.75399
927.92        63.42719
928.31        63.04039
928.70         62.7149
929.10        62.62674
929.49        62.79666
929.89        63.15044
930.28        63.52698
930.67        63.58466
931.07        63.23969
931.46        62.62213
931.85        61.90981
932.24        61.36932
932.64        61.09975
933.03        61.05777
933.42         61.1872
933.82        61.37213
934.21        61.57145
934.60        61.75613
934.99        62.02689
935.39         62.5269
935.78        63.29513
936.17        64.24318
936.56        64.95557
936.96        64.79235
937.35        63.70536
937.74        61.99223
938.13        60.32798
938.53        59.57816
938.92        59.86234
939.31        60.97326
939.70          62.439
940.09        63.32555
940.49         63.2874
940.88        62.60725
941.27        61.69954
941.66        61.18878
942.05        61.23645
942.44        61.67461
942.84        62.18265
943.23        62.26874
943.62        61.77263
944.01        60.88271
944.40        60.06415
944.79        59.97096
945.18        60.71329
945.57        62.09694
945.97        63.50965
946.36        64.11856
946.75        63.59658
947.14        62.22961
947.53        60.68799
947.92        59.98555
948.31        60.37191
948.70        61.58075
949.09        63.03375
949.48        63.68574
949.87        63.22467
950.26         61.9887
950.65         60.6123
951.04         59.9641
951.43        60.23343
951.82        61.18834
952.21        62.28765
952.60        62.57052
952.99        61.78818
953.38        60.27876
953.77        58.76934
954.16        58.20889
954.55         58.7723
954.94        60.26377
955.33        62.00306
955.72        62.53929
956.11        61.43037
956.50         59.2221
956.89        56.99762
957.28        56.15578
957.66        56.99392
958.05        59.03954
958.44        61.57863
958.83        63.12263
959.22        63.10294
959.61        62.01629
960.00        60.54241
960.39        59.54147
960.78        59.20779
961.16         59.2824
961.55        59.49921
961.94        59.44433
962.33        58.99926
962.72        58.41911
963.11        57.92015
963.49        57.73975
963.88        57.91954
964.27        58.35668
964.66        58.96764
965.04        59.65913
965.43        60.28491
965.82        60.87622
966.21        61.37552
966.60        61.67698
966.98        61.77528
967.37        61.70516
967.76        61.54233
968.15        61.39615
968.53        61.29079
968.92        61.15958
969.31         61.1282
969.69        61.42817
970.08        62.05103
970.47        63.04816
970.86        63.95795
971.24        63.99466
971.63        63.01695
972.02        61.31587
972.40        59.72548
972.79        59.58516
973.17        61.10342
973.56        63.74262
973.95        66.66751
974.33        68.26957
974.72        67.95792
975.11        66.27523
975.49        63.99673
975.88        62.62215
976.26        62.52326
976.65        63.21754
977.04        64.29237
977.42        64.99984
977.81        64.92406
978.19        64.44357
978.58        63.73158
978.96        62.90475
979.35        62.12996
979.74        61.35681
980.12        60.80286
980.51        60.84076
980.89        61.57643
981.28        62.74772
981.66        64.24398
982.05        65.59766
982.43         66.6912
982.82        67.54568
983.20        67.84113
983.59        67.00924
983.97        65.10624
984.35        62.41431
984.74        59.90519
985.12        58.90483
985.51        59.58017
985.89        61.67815
986.28        64.19602
986.66        65.77634
987.04         65.8158
987.43        64.72236
987.81        63.08554
988.20        62.28399
988.58        62.60681
988.96        63.66549
989.35        64.56183
989.73        64.11211
990.12        62.03151
990.50        58.91851
990.88        55.62181
991.27        53.45431
991.65        52.79206
992.03        53.33541
992.42        54.70975
992.80        56.64313
993.18         58.8146
993.56        61.25872
993.95        63.67112
994.33        65.54313
994.71         66.5469
995.10        66.79713
995.48        66.34826
995.86        65.45753
996.24        64.30369
996.63        62.73133
997.01        61.41223
997.39        61.36333
997.77        62.75337
998.15        65.33311
998.54        67.91679
998.92        68.62445
999.30        67.04184
999.68        63.65611
1000.06        59.71428
1000.45        57.62802
1000.83        58.26598
1001.21        60.92181
1001.59        64.54198
1001.97        67.35422
1002.35        68.71797
1002.73        69.15192
1003.12        68.89491
1003.50        68.23396
1003.88        67.42847
1004.26        66.34747
1004.64        65.28012
1005.02        64.82569
1005.40        65.08861
1005.78         65.8851
1006.16        66.92433
1006.54        67.75958
1006.92        68.24012
1007.30        68.47162
1007.69        68.29391
1008.07        67.49759
1008.45        66.10503
1008.83        64.31086
1009.21        62.54568
1009.59        61.52209
1009.97        61.42783
1010.35        61.95473
1010.73         63.1268
1011.11        64.91869
1011.49        67.04588
1011.86        69.48389
1012.24        71.10762
1012.62         70.4066
1013.00        67.11491
1013.38        61.49482
1013.76        55.00856
1014.14        50.92047
1014.52         50.6207
1014.90        53.52342
1015.28        57.87986
1015.66        60.74673
1016.04        61.25039
1016.41        60.18932
1016.79        58.46269
1017.17        57.80981
1017.55        58.70761
1017.93        60.29412
1018.31        61.93892
1018.69        63.31921
1019.06        64.58948
1019.44          65.909
1019.82        67.77224
1020.20        70.48635
1020.58        73.45602
1020.95        75.87134
1021.33        76.97253
1021.71         76.3086
1022.09         73.8435
1022.46        69.12991
1022.84           62.91
1023.22        57.89814
1023.60        56.27552
1023.97        57.60488
1024.35        59.87055
1024.73         60.7284
