SpectraSmart Spectrum 2.9.0.0
--------- Device Information -----------
Spectrum Name :  反射率_0
Saving Time :  2024/04/30 01:10:26
Spectro-Module Model Name : SE2030-DUVN
Spectro-Module Serial Number : OS361AC55029948
Wavelength Start : 200
Wavelength End : 1025
Wavelength Unit : Wavelength(nm)
Spectrum Unit : Reflectance(%)
-----------Spectrum Setting ------------
Integration Time : 20ms
Average : 10
Boxcar : 0
Background removal :  enabled
linearity correction :  enabled
SC :  disabled
Intensity correction :  disabled
DWT denoise :  enabled
savitzky-golay :  disabled
FFT :  disabled
Running average :  disabled
Kalman :  disabled
High pass :  disabled
---------------BEGIN--------------------
Wavelength(nm)             Reflectance(%)
200.29               0
200.75        45.97341
201.21        30.57039
201.67        11.97138
202.13       -4.277937
202.58        -15.3599
203.04       -21.39056
203.50       -22.37224
203.96       -19.05488
204.42       -12.38078
204.88        -2.65595
205.34        9.075128
205.80         19.8999
206.26        27.52276
206.72        32.14313
207.18        32.97773
207.64         29.4431
208.10        22.25919
208.55        11.57622
209.01        0.699128
209.47       -1.896577
209.93        5.000779
210.39        16.88604
210.85        27.46481
211.31        31.67942
211.77        29.35175
212.23        20.64904
212.69        7.514346
213.14        1.779085
213.60        9.057686
214.06        22.40713
214.52        33.62808
214.98         37.5691
215.44        35.36562
215.90        29.52307
216.36         22.6515
216.81        19.62577
217.27        23.18969
217.73        32.61977
218.19        48.15392
218.65        64.15012
219.11        73.06984
219.57        74.74194
220.02        71.52758
220.48        66.23538
220.94        58.67044
221.40        46.96617
221.86        31.39888
222.32        19.58533
222.77        17.08194
223.23        20.92369
223.69        25.49937
224.15        27.06811
224.61        25.81091
225.06        22.68628
225.52        19.63253
225.98        20.22852
226.44        24.50936
226.90        29.82075
227.36        33.95416
227.81        35.68653
228.27        35.40932
228.73        33.80063
229.19        31.82882
229.65        31.39967
230.10        32.80623
230.56        34.92533
231.02        36.80185
231.48        37.71122
231.93        37.63151
232.39        36.99779
232.85         36.0039
233.31        35.03444
233.77        34.29606
234.22        33.76685
234.68        33.39613
235.14        33.13492
235.60        33.03465
236.05        33.16758
236.51        33.74006
236.97        35.00397
237.43        37.07523
237.88         40.1568
238.34        43.93613
238.80        47.34241
239.26        49.23194
239.71        49.63702
240.17        48.76097
240.63        47.40453
241.08         45.7192
241.54        42.88403
242.00        39.10188
242.46         37.3898
242.91        41.14706
243.37        49.84865
243.83         58.3443
244.28        61.43578
244.74        58.48562
245.20        49.80573
245.66        37.57058
246.11         28.2115
246.57        25.82777
247.03        29.18455
247.48        35.99215
247.94        39.70453
248.40        38.82993
248.85        36.52697
249.31        35.13348
249.77        35.76992
250.22        38.74419
250.68        44.36327
251.14         53.6827
251.59        62.68036
252.05        65.20972
252.51         63.5326
252.96        60.87885
253.42        59.36389
253.88         58.6385
254.33        57.78649
254.79        57.51174
255.25        58.38079
255.70         59.7028
256.16        61.24716
256.62        62.08376
257.07        61.48897
257.53        60.09821
257.99        58.19321
258.44        56.11828
258.90        55.10641
259.35        54.84982
259.81        55.07703
260.27        55.41008
260.72        55.60585
261.18        55.76742
261.63        55.73463
262.09         55.4392
262.55        54.46252
263.00        52.88903
263.46        51.17149
263.91        49.52277
264.37        48.46535
264.83        47.91843
265.28        47.64065
265.74        47.57441
266.19        47.40493
266.65          47.114
267.11        46.73983
267.56        46.26564
268.02        45.66635
268.47        44.91511
268.93        44.01179
269.38        42.99442
269.84        42.06834
270.30        41.28411
270.75         40.6223
271.21        40.01249
271.66        39.28714
272.12        38.42484
272.57        37.46996
273.03        36.54523
273.48        35.75606
273.94        35.19809
274.39        34.78277
274.85        34.50288
275.31        34.27386
275.76        34.03242
276.22         33.8029
276.67        33.53384
277.13        33.25648
277.58        32.91515
278.04         32.5448
278.49        32.06975
278.95        31.48483
279.40        30.76879
279.86        30.03423
280.31        29.31639
280.77        28.78483
281.22        28.43188
281.68        28.23699
282.13        28.15819
282.59        28.18936
283.04        28.27005
283.50        28.38303
283.95        28.42378
284.41        28.25143
284.86        27.84812
285.32        27.32424
285.77        26.74549
286.22        26.28209
286.68        25.99071
287.13        25.78384
287.59        25.71117
288.04         25.7848
288.50        25.98897
288.95        26.27519
289.41        26.51997
289.86        26.49383
290.32        26.19982
290.77        25.71873
291.22        25.21155
291.68        24.93764
292.13        24.96018
292.59        25.21693
293.04        25.67335
293.50         26.3035
293.95        27.06481
294.40        27.97355
294.86         28.8953
295.31        29.63171
295.77        30.13826
296.22        30.44091
296.68        30.71941
297.13        31.24447
297.58        32.07849
298.04        33.11432
298.49        34.15457
298.95        34.88972
299.40        35.25305
299.85        35.35548
300.31        35.39223
300.76        35.59726
301.21        36.05515
301.67        36.68896
302.12        37.34485
302.58         37.9351
303.03          38.408
303.48        38.69529
303.94        38.84867
304.39        39.57032
304.84        39.81004
305.30        40.37502
305.75        40.86627
306.20        41.23807
306.66        41.47726
307.11         41.6095
307.57        41.68368
308.02        41.68192
308.47        41.63778
308.93        41.55587
309.38        41.47623
309.83        41.51778
310.29        41.69312
310.74        41.96547
311.19        42.21524
311.65        42.24451
312.10        42.01746
312.55        41.60563
313.00        41.16972
313.46         40.9632
313.91        41.02661
314.36        41.27658
314.82        41.56986
315.27        41.69636
315.72        41.58172
316.18        41.30426
316.63        40.92249
317.08        40.54036
317.53        40.20921
317.99        39.90966
318.44        39.65033
318.89         39.4539
319.35        39.31882
319.80        39.24387
320.25        39.22168
320.70        39.23091
321.16        39.24177
321.61        39.26665
322.06        39.25073
322.51        39.12465
322.97        38.87669
323.42        38.53014
323.87        38.15414
324.32        37.86683
324.78        37.68734
325.23        37.60933
325.68        37.55711
326.13        37.40476
326.59        37.11594
327.04        36.74353
327.49        36.36721
327.94        36.13044
328.39        36.05984
328.85        36.09187
329.30        36.15099
329.75        36.04679
330.20         35.7358
330.66        35.28418
331.11        34.79701
331.56        34.41073
332.01        34.17333
332.46        34.03827
332.92        33.98131
333.37         34.0031
333.82        34.06695
334.27        34.17665
334.72        34.26755
335.17        34.22913
335.63        34.03515
336.08         33.7263
336.53        33.36631
336.98        33.09388
337.43        32.95511
337.88        32.91128
338.34        32.93088
338.79        32.97947
339.24        33.02506
339.69        33.08609
340.14        33.12056
340.59        33.05684
341.05         32.8912
341.50        32.64103
341.95        32.38174
342.40        32.24532
342.85        32.25412
343.30        32.35769
343.75        32.48222
344.20        32.50725
344.66        32.40947
345.11        32.23147
345.56        31.99624
346.01        31.73655
346.46        31.48717
346.91        31.24453
347.36        31.07442
347.81        31.07718
348.26        31.25552
348.72        31.56937
349.17        31.91512
349.62        32.10774
350.07        32.09096
350.52        31.91393
350.97        31.65244
351.42        31.42678
351.87        31.27977
352.32        31.18586
352.77        31.12665
353.22        31.07276
353.67        31.01387
354.13        30.95949
354.58        30.92985
355.03        30.95208
355.48        31.01596
355.93        31.09373
356.38        31.12416
356.83        31.02075
357.28        30.77247
357.73        30.41693
358.18        30.01465
358.63        29.66019
359.08        29.38776
359.53        29.17775
359.98        29.01904
360.43        28.89039
360.88        28.77746
361.33        28.68392
361.78        28.59819
362.23        28.49717
362.68        28.37651
363.13        28.24493
363.58        28.09632
364.03        27.92643
364.48        27.73897
364.93        27.52813
365.38        27.34002
365.83        27.24992
366.28         27.2633
366.73        27.35571
367.18        27.43282
367.63        27.34552
368.08        27.06505
368.53        26.63622
368.98        26.16876
369.43        25.84163
369.88        25.70633
370.33        25.72034
370.78        25.78819
371.23        25.75144
371.68        25.56569
372.13        25.27179
372.58        24.96558
373.03        24.79902
373.48        24.79961
373.93        24.91163
374.38        25.01368
374.83        24.91269
375.28         24.5789
375.72        24.09092
376.17        23.60182
376.62        23.28314
377.07         23.1719
377.52         23.1982
377.97        23.30701
378.42        23.40775
378.87        23.45794
379.32        23.48756
379.77        23.46532
380.22        23.34341
380.67        23.12154
381.11        22.80082
381.56        22.46698
382.01        22.26811
382.46        22.24082
382.91        22.35611
383.36         22.4987
383.81        22.48628
384.26        22.28447
384.71        21.94358
385.15        21.59172
385.60        21.45876
386.05        21.56852
386.50        21.83692
386.95        22.10241
387.40         22.1166
387.85        21.84147
388.29        21.37201
388.74        20.88267
389.19        20.54009
389.64        20.38418
390.09         20.3466
390.54        20.39098
390.98        20.45587
391.43        20.51506
391.88        20.58676
392.33        20.62679
392.78        20.58935
393.23         20.4783
393.67        20.25764
394.12        20.01285
394.57        20.00518
395.02        19.95956
395.47        20.07549
395.91        20.20263
396.36        20.21944
396.81        20.10509
397.26        19.91007
397.71        19.69571
398.15        19.54152
398.60        19.49417
399.05        19.47897
399.50          19.476
399.95        19.54565
400.39         19.5746
400.84        19.56386
401.29          19.485
401.74        19.40727
402.18        19.33888
402.63        19.22637
403.08        19.10501
403.53        19.04463
403.97        19.05211
404.42        19.10967
404.87        19.16548
405.32        19.13419
405.76        18.99514
406.21        18.78392
406.66        18.56153
407.11        18.42562
407.55        18.40463
408.00        18.46809
408.45        18.55685
408.90        18.56227
409.34        18.45533
409.79        18.27024
410.24        18.08894
410.68        18.03284
411.13        18.12493
411.58        18.32417
412.03          18.536
412.47        18.60286
412.92        18.47634
413.37        18.22361
413.81        17.93823
414.26        17.78504
414.71        17.78537
415.15        17.89164
415.60        18.03413
416.05         18.1168
416.49        18.10674
416.94        18.04167
417.39        17.93803
417.83        17.81648
418.28        17.69612
418.73        17.56076
419.17        17.44657
419.62        17.41513
420.07        17.47062
420.51          17.596
420.96        17.72563
421.41        17.74372
421.85        17.62742
422.30        17.43429
422.74        17.22869
423.19         17.1347
423.64        17.16841
424.08        17.29826
424.53         17.4628
424.98        17.58353
425.42        17.63231
425.87        17.62123
426.31        17.56306
426.76        17.50615
427.21        17.40604
427.65        17.28035
428.10          17.147
428.54        17.01341
428.99        16.90237
429.44        16.92964
429.88        17.02019
430.33        16.83585
430.77        16.48922
431.22        16.53895
431.66        16.94912
432.11        17.15074
432.56         17.0689
433.00        17.04306
433.45        17.06313
433.89        16.81109
434.34        16.44289
434.78        16.45998
435.23        16.78105
435.67        16.86218
436.12        16.67766
436.57        16.53053
437.01        16.47695
437.46        16.47753
437.90        16.54292
438.35        16.67546
438.79        16.82204
439.24        16.86924
439.68        16.81853
440.13        16.76836
440.57        16.71756
441.02        16.65569
441.46        16.59379
441.91         16.4649
442.35        16.31676
442.80        16.46683
443.24        16.80557
443.69         16.7773
444.13        16.41404
444.58        16.24673
445.02        16.27543
445.47         16.2193
445.91         16.0861
446.36         16.0339
446.80         16.0642
447.24        16.13906
447.69        16.23327
448.13        16.30585
448.58        16.34555
449.02        16.36269
449.47        16.37317
449.91        16.39258
450.36         16.4276
450.80        16.46809
451.25        16.50467
451.69        16.52143
452.13        16.51338
452.58        16.49451
453.02        16.46844
453.47        16.43911
453.91        16.40432
454.36        16.40842
454.80        16.37198
455.24        16.35711
455.69        16.34319
456.13        16.32881
456.58        16.31392
457.02        16.28247
457.46        16.23769
457.91        16.18231
458.35        16.12591
458.79        16.09088
459.24         16.0895
459.68        16.12167
460.13        16.17204
460.57        16.14218
461.01        16.15004
461.46        16.04773
461.90        15.92293
462.34        16.00235
462.79        16.22231
463.23        16.22205
463.68        16.02107
464.12        15.94761
464.56        16.01017
465.01        16.04561
465.45         16.0239
465.89        15.97162
466.34        15.91585
466.78        15.92272
467.22        16.02465
467.67        16.02046
468.11        15.92051
468.55        15.80456
468.99         15.7125
469.44        15.66349
469.88        15.66671
470.32        15.72133
470.77        15.79462
471.21          15.847
471.65        15.85974
472.10        15.85137
472.54        15.83626
472.98        15.85414
473.42        15.91174
473.87        15.99179
474.31        16.07178
474.75        16.12228
475.20         16.1405
475.64        16.13256
476.08        16.11195
476.52        16.09533
476.97         16.0896
477.41        16.08634
477.85        16.09359
478.29        16.12253
478.74        16.17739
479.18        16.24497
479.62        16.30243
480.06        16.35264
480.50        16.40035
480.95        16.30181
481.39         16.3295
481.83        16.35825
482.27        16.48211
482.72        16.55251
483.16        16.76461
483.60        16.87235
484.04        16.92593
484.48        16.93822
484.93        16.96914
485.37        17.03815
485.81        17.11496
486.25        17.25805
486.69        17.17133
487.14        17.09616
487.58        17.56193
488.02        17.50686
488.46        17.61111
488.90        18.01187
489.34        17.32173
489.79        17.40102
490.23        17.72935
490.67        17.99376
491.11        18.10122
491.55        18.04541
491.99        17.92117
492.43        17.98224
492.88        18.25037
493.32         18.5378
493.76        18.78675
494.20        19.02101
494.64        19.22423
495.08        19.38135
495.52         19.4807
495.96         19.5482
496.41        19.59815
496.85        19.54359
497.29        19.43673
497.73        19.63163
498.17        19.85863
498.61        19.98172
499.05        19.92888
499.49        19.95117
499.93        20.07078
500.37        20.20747
500.82        20.34699
501.26        20.46917
501.70        20.56726
502.14        20.67396
502.58        20.79041
503.02        20.89409
503.46        20.98543
503.90        21.07493
504.34        21.16482
504.78         21.2557
505.22        21.34761
505.66        21.43497
506.10        21.51054
506.54        21.58973
506.98         21.6745
507.42        21.71424
507.86        21.69347
508.30        21.83328
508.74        21.73766
509.18        21.73727
509.62        21.72214
510.06         21.7152
510.50        21.72089
510.94        21.74021
511.38         21.7867
511.82         21.8697
512.26        21.98506
512.70        22.12277
513.14        22.25367
513.58        22.33411
514.02        22.35515
514.46        22.32929
514.90        22.27755
515.34        22.23808
515.78        22.22416
516.22        22.22453
516.66         22.2364
517.10        22.25375
517.54        22.27132
517.98        22.29277
518.42        22.30433
518.86        22.28243
519.30         22.2239
519.74         22.1346
520.18        22.03701
520.62        21.96627
521.06          21.932
521.50        21.92896
521.93        21.93811
522.37        21.91998
522.81         21.8693
523.25         21.7964
523.69        21.72927
524.13        21.71078
524.57        21.74509
525.01        21.81284
525.45        21.87625
525.89        21.87591
526.32         21.7953
526.76        21.66163
527.20        21.50512
527.64        21.37288
528.08         21.2804
528.52        21.21599
528.96        21.17101
529.40        21.13125
529.83        21.08982
530.27        21.05466
530.71        21.02424
531.15        20.99723
531.59        20.97054
532.03        20.93844
532.46        20.89547
532.90        20.84292
533.34        20.78039
533.78        20.71325
534.22        20.64084
534.66        20.56047
535.09        20.47392
535.53        20.39107
535.97        20.32531
536.41        20.30322
536.85        20.32705
537.28        20.38458
537.72        20.45388
538.16        20.50204
538.60        20.51878
539.04        20.51672
539.47        20.49508
539.91        20.47388
540.35        20.45687
540.79        20.44687
541.22        20.46012
541.66        20.52677
542.10        20.64709
542.54        20.81011
542.97         20.9947
543.41        21.16802
543.85        21.31897
544.29        21.46132
544.72         21.5823
545.16        21.67946
545.60        21.75531
546.04         21.8006
546.47        21.85637
546.91        22.02302
547.35        22.29275
547.79        22.56913
548.22        22.79488
548.66        23.00483
549.10        23.19297
549.53        23.25713
549.97        23.19993
550.41        23.50442
550.84        23.48413
551.28        23.65369
551.72        23.78599
552.15        24.06319
552.59        24.17609
553.03        24.36948
553.46        24.55281
553.90        24.71778
554.34        24.85583
554.77        24.99422
555.21        25.12609
555.65         25.1752
556.08         25.1664
556.52        25.22722
556.96        25.35802
557.39        25.49863
557.83        25.63906
558.27         25.7575
558.70        25.86514
559.14        26.01025
559.57        26.16744
560.01         26.3051
560.45        26.39699
560.88        26.32957
561.32        26.27499
561.75        26.25028
562.19         26.3192
562.63        26.39726
563.06        26.48287
563.50        26.64444
563.93        26.84074
564.37        26.99394
564.80        27.08211
565.24        27.13649
565.68        27.17205
566.11        27.23133
566.55        27.32679
566.98        27.40468
567.42        27.50554
567.85        27.64021
568.29        27.80953
568.72        28.08673
569.16        28.49299
569.60        28.41663
570.03        28.72058
570.47        28.84848
570.90        29.07483
571.34        28.91711
571.77        29.25886
572.21        29.36895
572.64        29.47672
573.08         29.6529
573.51        29.92442
573.95        29.97079
574.38        30.04254
574.82        30.26533
575.25         30.1832
575.69        30.12329
576.12        29.99119
576.56        30.08655
576.99        30.26515
577.42        30.34369
577.86        30.22875
578.29        30.23703
578.73        30.39056
579.16        30.02294
579.60        29.96981
580.03        29.72764
580.47        30.02696
580.90        29.93962
581.33        29.63493
581.77        29.71272
582.20        29.57358
582.64        29.55972
583.07        29.29837
583.51        28.98632
583.94        28.71097
584.37        28.56138
584.81        28.61278
585.24        28.75496
585.68        28.68707
586.11        28.90173
586.54        28.16825
586.98        28.03551
587.41        28.57207
587.85        28.40033
588.28        28.02343
588.71        28.28443
589.15        27.98737
589.58        27.97059
590.01        27.91093
590.45        27.78547
590.88        27.66172
591.31        27.67744
591.75        27.79819
592.18        27.82625
592.61        27.81404
593.05        27.66503
593.48        28.20599
593.91        28.20723
594.35        27.94755
594.78        27.94788
595.21        28.18364
595.65        28.50085
596.08        28.38785
596.51        28.57911
596.94         28.8701
597.38        29.13419
597.81        29.32909
598.24        29.46149
598.68        29.85905
599.11        29.90031
599.54        30.33593
599.97        30.52644
600.41        30.68424
600.84        31.17472
601.27        31.40806
601.70        31.91811
602.14        32.44387
602.57        32.75335
603.00        32.89814
603.43        33.27621
603.87        33.74404
604.30        34.53047
604.73        34.65052
605.16        35.01331
605.60        35.36106
606.03        35.86707
606.46        36.41732
606.89        36.82047
607.32        37.10086
607.76        37.41703
608.19        37.78618
608.62        38.05346
609.05        38.28361
609.48        38.67581
609.92        39.16467
610.35        39.51371
610.78        39.82861
611.21        39.70667
611.64        40.13103
612.07        40.40211
612.50        40.72706
612.94        41.07949
613.37        41.49621
613.80        41.71388
614.23        42.21088
614.66        42.48057
615.09        42.66909
615.52        42.76762
615.96        42.81233
616.39        43.04118
616.82        43.10951
617.25        43.46302
617.68        43.58802
618.11         43.9129
618.54        44.22655
618.97        44.36832
619.40        44.37108
619.84        44.48228
620.27        44.75403
620.70        45.02687
621.13        45.21302
621.56        45.37768
621.99        45.36438
622.42        45.13896
622.85        45.46331
623.28        45.43942
623.71         45.6853
624.14        45.03555
624.57        45.41946
625.00        45.29016
625.43        45.17954
625.86        45.05764
626.29        44.93727
626.72        44.85605
627.15        44.72338
627.58        44.63355
628.01        44.52471
628.44        44.35399
628.87        43.98052
629.30         43.7774
629.73        43.69249
630.16        43.51078
630.59        43.21574
631.02        43.03412
631.45        42.75842
631.88        42.45901
632.31        42.07166
632.74        41.62651
633.17        41.14455
633.60        40.66628
634.03        40.20898
634.46        39.76063
634.89        39.32112
635.32         38.8929
635.75        38.47496
636.18        38.06757
636.61        37.67183
637.04        37.29223
637.47        36.93608
637.89        36.57819
638.32        36.19648
638.75        35.86666
639.18        35.60851
639.61         35.0609
640.04         34.8779
640.47        34.57666
640.90        34.35022
641.33        34.18023
641.76        34.04798
642.18        33.91338
642.61        33.75123
643.04        33.58105
643.47        33.43724
643.90        33.36251
644.33        33.36354
644.76        33.47227
645.18         33.6319
645.61        33.65659
646.04        33.50555
646.47        33.59352
646.90        33.89354
647.33        34.12909
647.75        34.28265
648.18        34.52945
648.61        34.87286
649.04        35.22326
649.47          35.583
649.89        36.02451
650.32        36.50475
650.75        36.91933
651.18        37.29133
651.61        37.70354
652.03        38.19793
652.46        38.86683
652.89        39.57694
653.32        40.00902
653.74        40.34386
654.17        40.54563
654.60        40.83721
655.03        42.63279
655.46        41.99699
655.88        43.37099
656.31        46.83376
656.74        47.89944
657.16        46.68297
657.59        45.18918
658.02        45.04459
658.45        45.93216
658.87        46.47918
659.30        46.27893
659.73        47.22929
660.15        47.55987
660.58        48.07926
661.01        48.21754
661.44        48.16019
661.86        48.17692
662.29        48.33583
662.72        48.75523
663.14         49.3213
663.57        49.43412
664.00        49.18522
664.42        49.25863
664.85        49.70299
665.27        50.09286
665.70        50.35422
666.13        50.60101
666.55        50.81886
666.98        50.96702
667.41        51.06436
667.83        51.13605
668.26        51.18063
668.69        51.22607
669.11        51.29567
669.54        51.33606
669.96        51.33365
670.39        51.64475
670.82        51.70586
671.24        51.79281
671.67        51.78149
672.09        51.95347
672.52        52.27399
672.94        52.52383
673.37        52.28965
673.80        52.64902
674.22        52.47543
674.65        52.65281
675.07        52.88795
675.50        53.18602
675.92        53.48055
676.35         53.6577
676.77        53.70743
677.20        53.64664
677.62        53.55284
678.05         53.5491
678.47        53.66397
678.90        53.86813
679.32        54.09085
679.75        54.22848
680.17        54.24842
680.60        54.19139
681.02        54.12279
681.45        54.13015
681.87         54.2353
682.30        54.44817
682.72        54.71514
683.15         54.7715
683.57        54.67818
684.00        54.80339
684.42        55.10099
684.85        55.25413
685.27        55.25946
685.70        55.16537
686.12        55.06326
686.54        55.47929
686.97          56.052
687.39        56.32541
687.82        56.16815
688.24        56.19648
688.66        56.41475
689.09        56.21128
689.51        56.06084
689.94        56.01073
690.36        55.95106
690.78        55.99213
691.21        56.05137
691.63        56.22354
692.06        56.44477
692.48        56.51894
692.90        56.47824
693.33        56.55336
693.75        56.75297
694.17         56.9227
694.60        57.05455
695.02        57.16975
695.44         57.2487
695.87        57.42693
696.29        57.65056
696.71        57.46103
697.14        57.02377
697.56          57.137
697.98        57.71835
698.41        57.97684
698.83         57.8667
699.25        57.84183
699.68        57.91223
700.10        57.93182
700.52        57.89515
700.94        57.84503
701.37        57.77818
701.79         57.7532
702.21        57.69866
702.64        57.67644
703.06        57.68214
703.48        57.75115
703.90        57.89008
704.33        58.10451
704.75        58.32815
705.17        58.50847
705.59        58.60277
706.01        58.62197
706.44        58.62521
706.86        58.68661
707.28         58.8122
707.70        59.06134
708.12        59.35356
708.55        59.35056
708.97        59.12847
709.39        59.19482
709.81        59.53521
710.23        59.70146
710.66        59.66574
711.08        59.70837
711.50        59.84055
711.92        59.97809
712.34        60.12268
712.76        60.29606
713.19        60.44663
713.61        60.53186
714.03        60.52589
714.45         60.4249
714.87        60.33021
715.29        60.31472
715.71        60.40965
716.13        60.58535
716.56        60.76492
716.98        60.88929
717.40        60.90709
717.82        60.85056
718.24         60.7701
718.66        60.74649
719.08        60.80108
719.50        60.90255
719.92          61.023
720.34        61.11932
720.76          61.176
721.19        61.20432
721.61        61.21408
722.03        61.19614
722.45        61.15358
722.87        61.08147
723.29        61.00888
723.71        60.98511
724.13        61.01971
724.55         61.1063
724.97        61.19864
725.39        61.21576
725.81        61.14767
726.23        61.02705
726.65        60.91758
727.07        60.92184
727.49        61.05909
727.91        61.28345
728.33        61.54784
728.75        61.77309
729.17        61.92429
729.59        62.02886
730.01        62.06573
730.43        62.00108
730.85        61.85325
731.27         61.6453
731.69         61.4688
732.10        61.47293
732.52        61.68003
732.94        62.04121
733.36        62.47298
733.78        62.80307
734.20        62.96664
734.62         63.0495
735.04        63.06871
735.46        62.97652
735.88        62.85669
736.30        62.86158
736.72        62.96834
737.13        63.13948
737.55        63.22092
737.97        62.89283
738.39        62.31667
738.81        62.05236
739.23         62.1958
739.65        62.59445
740.06        63.03663
740.48        63.24064
740.90        63.13136
741.32        62.84695
741.74        62.52585
742.16        62.35502
742.57        62.40731
742.99         62.6178
743.41        62.89907
743.83         63.0824
744.25        63.13399
744.67        63.14019
745.08        63.14631
745.50        63.17871
745.92         63.2548
746.34        63.34301
746.75        63.44389
747.17         63.5323
747.59        63.59893
748.01        63.75313
748.42        63.92173
748.84        63.77251
749.26        63.41904
749.68        63.28078
750.09        63.38075
750.51        63.62075
750.93        63.85972
751.35         63.7575
751.76        63.39527
752.18        63.28812
752.60        63.46787
753.01        63.61279
753.43        63.66151
753.85        63.70384
754.27         63.7434
754.68         63.7905
755.10        63.83594
755.52        63.87231
755.93        63.87913
756.35        63.80151
756.77         63.7646
757.18        63.92358
757.60        64.30188
758.02         64.9572
758.43        65.85075
758.85        65.49681
759.26        64.00124
759.68        63.34264
760.10        64.18486
760.51        64.79617
760.93        64.69952
761.34        64.86617
761.76        65.14265
762.18         65.0852
762.59        64.74717
763.01        64.24152
763.42        63.74216
763.84        63.49263
764.26        63.60061
764.67        63.73835
765.09        63.88862
765.50        64.58492
765.92        65.66709
766.33        65.27245
766.75        65.13805
767.16        64.75201
767.58        64.74492
768.00        64.41946
768.41        63.95317
768.83        64.27269
769.24        65.10184
769.66        65.22858
770.07        64.67258
770.49        64.34063
770.90        64.35538
771.32        64.53175
771.73        64.80815
772.15        64.88387
772.56        64.73929
772.97        64.83934
773.39        64.76751
773.80         64.8971
774.22        65.06347
774.63        65.32417
775.05        65.55994
775.46        65.66455
775.88        65.58789
776.29        65.40008
776.70        65.15813
777.12        64.98277
777.53        64.91289
777.95        64.88784
778.36        64.93148
778.77        65.05147
779.19        65.24239
779.60        65.59628
780.02        65.93927
780.43        66.03681
780.84        65.93013
781.26        65.57129
781.67        65.17239
782.09        65.92397
782.50        66.84425
782.91        67.02359
783.33        66.26105
783.74        65.91227
784.15         66.0239
784.57         65.7966
784.98        65.31541
785.39        65.10887
785.81         65.2344
786.22        65.54556
786.63        65.96633
787.04        66.37399
787.46        66.70667
787.87        66.96659
788.28        67.18188
788.70        67.34427
789.11        67.43886
789.52        67.60026
789.93        67.73235
790.35        67.38533
790.76        66.70935
791.17        66.43957
791.58        66.62241
792.00        66.67137
792.41        66.58404
792.82        66.82267
793.23        67.31422
793.65        67.44067
794.06        67.29268
794.47         67.5923
794.88        68.17633
795.29        68.27074
795.71        67.81889
796.12        67.25177
796.53        66.76575
796.94        66.56026
797.35        66.73521
797.76        67.23841
798.18        67.85994
798.59        68.29055
799.00        68.41358
799.41        68.31876
799.82        68.10184
800.23        67.93578
800.64        67.88354
801.06        67.85615
801.47        67.88387
801.88        67.95234
802.29        68.04312
802.70        68.16298
803.11        68.26834
803.52        68.27309
803.93        68.16885
804.34        67.98546
804.75        67.76327
805.17         67.6211
805.58        67.63009
805.99        67.59824
806.40        67.55827
806.81        67.93722
807.22        68.55019
807.63         68.5166
808.04        67.95949
808.45        67.87851
808.86          68.355
809.27         68.8336
809.68        69.13586
810.09        69.22821
810.50        69.05562
810.91        68.63097
811.32        68.15082
811.73        67.92935
812.14        68.04272
812.55        68.41758
812.96        68.87351
813.37        69.06712
813.78         68.9081
814.19        68.53075
814.60        68.10519
815.01        67.86623
815.42        67.87392
815.83        68.04367
816.24        68.32492
816.65         68.6186
817.05        68.86028
817.46        69.04096
817.87         69.1472
818.28        69.10687
818.69        68.92409
819.10        68.61505
819.51        68.27237
819.92        68.08112
820.33        68.09977
820.74        68.27524
821.14        68.53997
821.55        68.78725
821.96        68.96985
822.37        69.12792
822.78        69.22633
823.19        69.20741
823.60        69.06365
824.00        68.78819
824.41        68.48321
824.82        68.34998
825.23        68.42245
825.64         68.6692
826.04        68.93643
826.45        68.87395
826.86        68.44379
827.27        67.76962
827.68        67.10194
828.08        66.85551
828.49        67.08532
828.90        67.69312
829.31        68.50151
829.72         69.1965
830.12        69.67814
830.53        69.94911
830.94        70.08306
831.35        70.17254
831.75        70.27052
832.16         70.2607
832.57        70.16497
832.97        70.00152
833.38        69.79739
833.79        69.63147
834.20        69.48682
834.60        69.29669
835.01        69.09512
835.42        68.87093
835.82        68.79752
836.23        69.09896
836.64        69.80756
837.04        70.85325
837.45        71.83338
837.86        72.22601
838.26        71.89667
838.67        71.03373
839.08        69.95562
839.48        69.13937
839.89        68.78177
840.29        68.74348
840.70        68.96806
841.11        69.37148
841.51        69.90603
841.92        70.56577
842.33        71.23933
842.73        71.70782
843.14         71.8514
843.54        71.72092
843.95        71.43221
844.35         71.2618
844.76        71.26302
845.17        71.36572
845.57        71.47948
845.98        71.41814
846.38         71.1612
846.79        70.77915
847.19        70.35509
847.60        69.97345
848.00        69.69949
848.41        69.51632
848.81        69.45279
849.22        69.54278
849.62        69.80962
850.03        70.19576
850.43        70.68163
850.84        71.04467
851.24        71.27204
851.65        71.29648
852.05        71.20547
852.46        71.09966
852.86        70.99668
853.27        70.94846
853.67         70.7922
854.07        70.47041
854.48        69.93161
854.88        69.21413
855.29        68.44933
855.69         68.1151
856.10        68.26519
856.50        68.88223
856.90        69.57092
857.31         69.7562
857.71        69.36777
858.12        68.53207
858.52        67.64642
858.92         67.3365
859.33         67.7452
859.73        68.70638
860.13        69.85069
860.54        70.58891
860.94        70.77969
861.34        70.51096
861.75        69.95239
862.15        69.45571
862.55        69.12799
862.96        68.90833
863.36        68.65978
863.76        68.19405
864.17         67.5197
864.57        66.76073
864.97        66.14325
865.38        65.94869
865.78        66.25462
866.18         66.9416
866.58        67.81995
866.99        68.48203
867.39        68.79903
867.79        68.84513
868.19         68.6616
868.60        68.32055
869.00        67.88864
869.40        67.33083
869.80        66.88071
870.21         66.9316
870.61        67.58598
871.01        68.70228
871.41        69.84908
871.81        70.33297
872.22         69.9866
872.62        68.98754
873.02        67.76411
873.42         67.0456
873.82        67.04716
874.22        67.59755
874.63        68.28921
875.03        68.48928
875.43        68.06278
875.83        67.20119
876.23        66.38579
876.63        66.40159
877.03        67.39521
877.44        69.03905
877.84        70.74768
878.24        71.48103
878.64         71.0076
879.04        69.71635
879.44        68.16269
879.84        67.15031
880.24        66.88888
880.64        67.11666
881.04        67.64166
881.44        68.14838
881.84        68.50475
882.24        68.84061
882.65        69.06368
883.05        69.13048
883.45        68.99096
883.85        68.64679
884.25        68.28719
884.65        68.23553
885.05        68.54416
885.45        69.10654
885.85        69.74062
886.25         70.1202
886.65        70.13415
887.05        69.89312
887.45        69.44921
887.85        68.90295
888.25        68.35287
888.65        67.80344
889.04        67.36007
889.44        67.23608
889.84        67.40406
890.24        67.83149
890.64        68.37419
891.04        68.71278
891.44        68.73556
891.84        68.54311
892.24        68.27663
892.64         68.1402
893.04        68.18578
893.44        68.34129
893.83        68.61733
894.23        68.95586
894.63        69.33861
895.03        69.76968
895.43        70.15829
895.83         70.3684
896.23        70.37001
896.63        70.16705
897.02        69.85954
897.42        69.68864
897.82        69.68971
898.22        69.84165
898.62        69.97033
899.01        69.78999
899.41        69.24922
899.81        68.46156
900.21        67.72295
900.61        67.47914
901.00        67.80359
901.40        68.55188
901.80         69.3644
902.20        69.65352
902.59        69.27374
902.99        68.40881
903.39        67.41122
903.79        66.80574
904.18        66.72896
904.58        67.05844
904.98        67.53592
905.38        67.77229
905.77        67.64671
906.17        67.27091
906.57        66.89507
906.96        66.93663
907.36        67.44074
907.76        68.29398
908.15        69.12046
908.55        69.18391
908.95        68.41344
909.34        67.05848
909.74        65.74419
910.14         65.2924
910.53        65.91462
910.93        67.29042
911.33        69.02898
911.72        70.51018
912.12        71.41791
912.52        71.93473
912.91        72.14359
913.31        72.18394
913.70        72.13794
914.10        71.89861
914.49        71.50055
914.89        71.01056
915.29        70.48208
915.68        69.96254
916.08        69.53208
916.47        69.15269
916.87        68.87521
917.26        68.67492
917.66         68.5944
918.05         68.7154
918.45         68.9882
918.84        69.42998
919.24        69.82932
919.64        69.97568
920.03        69.81917
920.42        69.38857
920.82        68.91023
921.21        68.64429
921.61        68.66904
922.00        68.93334
922.40         69.2643
922.79        69.44891
923.19        69.39673
923.58        69.20329
923.98         69.0061
924.37        69.02879
924.77         69.3036
925.16        69.74607
925.55        70.20144
925.95        70.42775
926.34         70.3781
926.74        70.11988
927.13        69.75955
927.52        69.43209
927.92        69.20491
928.31        69.02599
928.70        68.90115
929.10        68.82817
929.49         68.7878
929.89        68.75039
930.28        68.70981
930.67        68.57259
931.07        68.32996
931.46        68.05939
931.85         67.7461
932.24        67.37055
932.64        66.97355
933.03        66.57298
933.42        66.35452
933.82         66.6144
934.21        67.39633
934.60        68.53513
934.99        69.75408
935.39        70.57635
935.78         70.9047
936.17        70.84406
936.56        70.38308
936.96        69.59451
937.35        68.61472
937.74        67.46925
938.13        66.53756
938.53        66.28953
938.92        66.74409
939.31         67.8651
939.70        69.18068
940.09        69.75085
940.49        69.30064
940.88         68.1022
941.27        66.79956
941.66        66.36938
942.05        67.00861
942.44        68.46311
942.84        70.08634
943.23        70.76208
943.62        70.11791
944.01        68.52586
944.40        66.77067
944.79        65.99005
945.18        66.43039
945.57        67.76347
945.97        69.25996
946.36         69.8928
946.75        69.26584
947.14        67.76132
947.53        66.10399
947.92        65.36237
948.31        65.80537
948.70        67.13177
949.09        68.74007
949.48        69.55759
949.87        69.25241
950.26        68.16394
950.65        66.94276
951.04        66.48613
951.43        66.99599
951.82        68.23933
952.21        69.63345
952.60        70.13636
952.99        69.45938
953.38        67.93649
953.77        66.37824
954.16        65.85661
954.55        66.56997
954.94        68.31699
955.33         70.2633
955.72        70.64955
956.11        68.97764
956.50         65.9271
956.89        62.90639
957.28        61.71769
957.66          62.712
958.05        65.31055
958.44        68.53338
958.83        70.34674
959.22        70.02518
959.61        68.28019
960.00        66.08704
960.39        64.68294
960.78         64.3297
961.16        64.62852
961.55        65.21944
961.94         65.5137
962.33        65.28028
962.72        64.84863
963.11        64.36468
963.49        63.94661
963.88        63.66374
964.27        63.44772
964.66        63.42735
965.04        63.91086
965.43         64.8485
965.82         66.1403
966.21        67.52249
966.60        68.48695
966.98        68.85455
967.37        68.78365
967.76        68.35648
968.15        67.68903
968.53        66.85414
968.92        65.76399
969.31        64.76536
969.69        64.54201
970.08        65.22905
970.47        66.80531
970.86        68.52403
971.24          69.044
971.63        68.05194
972.02        66.00565
972.40        63.94471
972.79        63.52377
973.17        65.02071
973.56        67.75921
973.95        70.85562
974.33        72.63143
974.72        72.45058
975.11        70.92378
975.49        68.73685
975.88        67.22167
976.26        66.74287
976.65        66.83704
977.04        67.34764
977.42        67.99699
977.81        68.47686
978.19        69.02946
978.58        69.45731
978.96        69.29123
979.35         68.5539
979.74        67.35705
980.12        66.20638
980.51         65.9835
980.89        66.94956
981.28          68.655
981.66        70.80627
982.05        72.60741
982.43        73.84193
982.82        74.68325
983.20        74.81602
983.59        73.65415
983.97        71.32207
984.35        68.07146
984.74         65.1694
985.12        64.38046
985.51        65.88621
985.89        69.29299
986.28        73.10641
986.66        75.13185
987.04        74.56506
987.43        72.05594
987.81        68.72723
988.20        66.90024
988.58        67.21913
988.96        69.07347
989.35        71.22384
989.73        71.89046
990.12         70.5415
990.50        67.89875
990.88        64.93119
991.27        63.15651
991.65        62.96198
992.03        63.89582
992.42        65.38998
992.80        66.90218
993.18        68.09654
993.56        69.18243
993.95        70.08942
994.33        70.79082
994.71        71.19257
995.10        71.29688
995.48        71.19049
995.86        71.14679
996.24         71.2598
996.63        71.37209
997.01        71.68015
997.39        72.30478
997.77         73.1571
998.15        74.16075
998.54        74.85202
998.92        74.51071
999.30        73.02772
999.68        70.69376
1000.06        68.07954
1000.45        66.27476
1000.83        65.77203
1001.21        66.24187
1001.59        67.60155
1001.97        69.62895
1002.35        72.01567
1002.73        74.74837
1003.12        76.98089
1003.50        77.33176
1003.88        75.66261
1004.26        72.38052
1004.64        68.68807
1005.02        66.73307
1005.40        67.09155
1005.78        69.08305
1006.16        71.72461
1006.54        73.63882
1006.92        74.45046
1007.30        74.52023
1007.69        74.09661
1008.07        73.77912
1008.45        73.77764
1008.83        73.89034
1009.21        73.82443
1009.59          73.201
1009.97        71.95814
1010.35        70.24023
1010.73        68.67534
1011.11        68.20174
1011.49        68.95161
1011.86        70.68711
1012.24        72.28717
1012.62        72.23602
1013.00        70.17544
1013.38         66.4164
1013.76        62.07618
1014.14        59.58836
1014.52        59.93035
1014.90        62.52526
1015.28        65.94799
1015.66        67.91602
1016.04        67.79556
1016.41        66.28044
1016.79        64.19239
1017.17        63.17993
1017.55        63.73859
1017.93        65.08487
1018.31        66.65749
1018.69        68.18009
1019.06        69.79767
1019.44        71.67402
1019.82        74.07755
1020.20        76.58611
1020.58        78.33517
1020.95         78.9708
1021.33        78.43729
1021.71        76.76662
1022.09         73.9107
1022.46        69.34212
1022.84        63.89616
1023.22        60.20229
1023.60        60.06919
1023.97        62.80609
1024.35        66.25382
1024.73        68.15462
