SpectraSmart Spectrum 2.9.0.0
--------- Device Information -----------
Spectrum Name :  反射率_0
Saving Time :  2024/04/30 00:41:35
Spectro-Module Model Name : SE2030-DUVN
Spectro-Module Serial Number : OS361AC55029948
Wavelength Start : 200
Wavelength End : 1025
Wavelength Unit : Wavelength(nm)
Spectrum Unit : Reflectance(%)
-----------Spectrum Setting ------------
Integration Time : 20ms
Average : 10
Boxcar : 0
Background removal :  enabled
linearity correction :  enabled
SC :  disabled
Intensity correction :  disabled
DWT denoise :  enabled
savitzky-golay :  disabled
FFT :  disabled
Running average :  disabled
Kalman :  disabled
High pass :  disabled
---------------BEGIN--------------------
Wavelength(nm)             Reflectance(%)
200.29               0
200.75        54.71206
201.21        35.98803
201.67        15.56156
202.13        2.600557
202.58        1.368297
203.04        11.12802
203.50        29.37866
203.96        48.98652
204.42        64.72408
204.88        76.13272
205.34        81.28786
205.80         79.5147
206.26        73.33644
206.72        65.28594
207.18        57.17543
207.64        49.36629
208.10        41.41018
208.55        32.79308
209.01        25.03303
209.47        22.91972
209.93        27.06306
210.39        34.67014
210.85        41.80865
211.31        45.46242
211.77        45.71452
212.23         43.0598
212.69        38.58757
213.14         37.7416
213.60        42.25599
214.06        49.00747
214.52        54.83433
214.98        58.23884
215.44        59.88451
215.90        60.64487
216.36        61.75531
216.81        65.33774
217.27        72.65366
217.73        84.44785
218.19        99.42924
218.65        109.0164
219.11        107.7153
219.57        98.89972
220.02        89.83216
220.48        86.09969
220.94        87.02607
221.40        91.41715
221.86        97.34184
222.32        98.26107
222.77         92.4949
223.23        85.66261
223.69        80.49958
224.15        77.93099
224.61        77.47613
225.06        78.47843
225.52        81.02312
225.98        84.50905
226.44        87.77629
226.90        90.28638
227.36         92.3283
227.81        94.52788
228.27        97.26267
228.73        100.3006
229.19        102.6702
229.65        102.3179
230.10         99.3218
230.56        95.70716
231.02        92.58377
231.48        90.84883
231.93         90.2905
232.39        90.42873
232.85        91.41042
233.31         93.6396
233.77        96.92944
234.22        101.3658
234.68        105.0849
235.14        104.8951
235.60        100.3348
236.05        92.57284
236.51        84.73969
236.97        80.75288
237.43        81.43557
237.88        86.56371
238.34        94.59245
238.80        100.6301
239.26        101.1248
239.71        97.22007
240.17        91.23669
240.63        86.55596
241.08        83.99863
241.54        82.17434
242.00        80.91965
242.46        80.15504
242.91        80.42132
243.37         82.2391
243.83        85.44234
244.28        89.46613
244.74        94.11305
245.20        99.01067
245.66        103.2671
246.11        104.9257
246.57        102.8407
247.03        98.15518
247.48        90.45334
247.94        80.78848
248.40         72.8979
248.85        67.38155
249.31         65.6346
249.77         67.7015
250.22        73.72848
250.68        85.68767
251.14        103.3484
251.59        112.4871
252.05        103.8873
252.51        88.75227
252.96        77.50747
253.42         73.9986
253.88        75.82657
254.33        80.85361
254.79        86.88602
255.25        88.68464
255.70        85.66228
256.16        81.62666
256.62        78.59122
257.07        77.64896
257.53         78.8968
257.99        81.32736
258.44        83.69841
258.90        85.07567
259.35        84.85401
259.81        84.13104
260.27        83.48988
260.72         83.5078
261.18         84.3388
261.63        85.21431
262.09        85.75228
262.55        84.98007
263.00        82.94723
263.46        80.55953
263.91        78.16447
264.37        76.60531
264.83        75.79099
265.28        75.35572
265.74        75.28555
266.19         75.2458
266.65        75.21873
267.11        75.21206
267.56        75.08144
268.02        74.67219
268.47        73.91665
268.93        72.85852
269.38        71.63461
269.84        70.63009
270.30        69.93756
270.75        69.44733
271.21        69.01694
271.66        68.33229
272.12        67.35146
272.57        66.13178
273.03        64.82604
273.48        63.55452
273.94        62.47164
274.39        61.47759
274.85        60.61818
275.31        59.80447
275.76        58.97144
276.22        58.18922
276.67         57.4174
277.13        56.77226
277.58        56.16659
278.04         55.6424
278.49        55.01929
278.95        54.21403
279.40        53.16125
279.86         52.0266
280.31        50.89674
280.77        50.08049
281.22        49.55941
281.68        49.28512
282.13        49.10783
282.59        48.93264
283.04        48.65254
283.50        48.30994
283.95         47.8325
284.41        47.17794
284.86        46.33538
285.32        45.39985
285.77         44.4071
286.22        43.51428
286.68        42.77998
287.13        42.14117
287.59        41.63322
288.04        41.21695
288.50        40.90453
288.95        40.64983
289.41        40.44434
289.86        40.20233
290.32        39.92887
290.77        39.61696
291.22         39.2634
291.68        38.87093
292.13        38.43961
292.59        38.00919
293.04        37.65146
293.50        37.51524
293.95        37.60439
294.40        37.89265
294.86        38.24326
295.31        38.45546
295.77        38.48023
296.22         38.3581
296.68        38.23218
297.13        38.30171
297.58        38.61234
298.04        39.06487
298.49          39.509
298.95        39.71851
299.40        39.63985
299.85        39.36407
300.31        39.02178
300.76        38.74491
301.21        38.60897
301.67        38.57732
302.12        38.58477
302.58        38.67703
303.03        38.82112
303.48         38.8989
303.94        38.86866
304.39        39.29264
304.84        39.09092
305.30        39.12923
305.75        39.07778
306.20        39.00341
306.66         38.9214
307.11        38.81382
307.57        38.70092
308.02        38.52515
308.47         38.2996
308.93        38.05006
309.38        37.78739
309.83         37.5812
310.29          37.446
310.74         37.3565
311.19        37.27344
311.65        37.12732
312.10        36.89893
312.55         36.6149
313.00        36.32563
313.46        36.10801
313.91        35.96716
314.36        35.88036
314.82        35.80432
315.27        35.69199
315.72        35.51765
316.18         35.3061
316.63        35.06287
317.08        34.80706
317.53        34.55568
317.99        34.31479
318.44        34.09151
318.89        33.90329
319.35        33.75106
319.80        33.62391
320.25        33.53392
320.70        33.49902
321.16        33.50078
321.61        33.54679
322.06        33.56097
322.51        33.42988
322.97        33.13729
323.42        32.72733
323.87        32.30197
324.32         32.0297
324.78        31.93914
325.23        31.99419
325.68        32.10309
326.13        32.10962
326.59         31.9606
327.04        31.72147
327.49        31.43623
327.94        31.19078
328.39        31.01056
328.85        30.84392
329.30        30.71236
329.75        30.60779
330.20        30.52518
330.66        30.47874
331.11        30.42649
331.56        30.26801
332.01        29.99222
332.46        29.61933
332.92        29.24776
333.37        29.09085
333.82        29.18597
334.27        29.47089
334.72        29.80509
335.17         29.9501
335.63        29.83265
336.08        29.53556
336.53        29.14468
336.98         28.8264
337.43        28.64849
337.88        28.56512
338.34         28.5593
338.79        28.62625
339.24        28.74088
339.69        28.91402
340.14        29.10375
340.59        29.23141
341.05        29.27523
341.50        29.24133
341.95        29.16319
342.40        29.11158
342.85        29.10236
343.30        29.10933
343.75        29.10496
344.20        29.04608
344.66        28.93587
345.11        28.79712
345.56        28.64536
346.01        28.49652
346.46        28.36872
346.91        28.25833
347.36        28.20067
347.81        28.25144
348.26        28.40507
348.72        28.62947
349.17        28.85344
349.62        28.95216
350.07        28.89396
350.52        28.72565
350.97         28.4951
351.42        28.27626
351.87        28.10352
352.32        27.96029
352.77        27.87898
353.22        27.91032
353.67        28.04946
354.13        28.27334
354.58        28.50585
355.03         28.6221
355.48        28.58722
355.93        28.43303
356.38        28.20716
356.83        27.98849
357.28        27.80666
357.73        27.64456
358.18        27.49948
358.63        27.36756
359.08        27.24388
359.53        27.13127
359.98        27.02821
360.43        26.92693
360.88        26.82111
361.33        26.70963
361.78        26.57349
362.23        26.38555
362.68        26.14828
363.13        25.87796
363.58        25.61289
364.03        25.41194
364.48        25.28937
364.93        25.22691
365.38        25.20088
365.83        25.17134
366.28        25.12158
366.73        25.05984
367.18        24.98002
367.63        24.87496
368.08        24.74244
368.53        24.57627
368.98        24.39387
369.43        24.22568
369.88        24.08286
370.33        23.97065
370.78        23.86028
371.23        23.70225
371.68        23.48998
372.13        23.23314
372.58        22.99726
373.03        22.88733
373.48        22.91292
373.93        23.03299
374.38        23.14027
374.83           23.06
375.28        22.76392
375.72        22.32071
376.17        21.85867
376.62        21.51767
377.07        21.33707
377.52        21.26789
377.97        21.29096
378.42        21.37443
378.87        21.48733
379.32           21.63
379.77        21.75263
380.22        21.78124
380.67        21.70149
381.11        21.52521
381.56         21.2998
382.01        21.11095
382.46        20.99258
382.91        20.93513
383.36        20.90728
383.81        20.85722
384.26         20.7704
384.71        20.65368
385.15         20.5438
385.60        20.52365
386.05        20.58437
386.50        20.69463
386.95        20.76156
387.40        20.64474
387.85         20.3397
388.29        19.90647
388.74        19.48989
389.19        19.22185
389.64        19.12904
390.09        19.15507
390.54        19.26201
390.98        19.38085
391.43        19.47973
391.88        19.57236
392.33        19.61373
392.78        19.56016
393.23        19.42004
393.67        19.16512
394.12        18.88798
394.57        18.85027
395.02        18.79766
395.47        18.91626
395.91        19.06132
396.36        19.11055
396.81         19.0382
397.26        18.88841
397.71        18.71612
398.15        18.59369
398.60        18.56303
399.05        18.55239
399.50        18.53783
399.95        18.56964
400.39        18.54141
400.84        18.45979
401.29        18.31197
401.74        18.18826
402.18        18.10643
402.63        18.01173
403.08        17.93078
403.53         17.9164
403.97        17.96928
404.42        18.07512
404.87        18.17896
405.32        18.19095
405.76        18.08829
406.21        17.90272
406.66        17.70096
407.11        17.59187
407.55         17.6059
408.00        17.71153
408.45        17.83756
408.90        17.85384
409.34         17.7278
409.79        17.50189
410.24        17.27894
410.68        17.21099
411.13        17.32818
411.58        17.58219
412.03        17.85859
412.47        17.96425
412.92        17.83944
413.37        17.55941
413.81         17.2388
414.26        17.07327
414.71        17.08996
415.15         17.2319
415.60        17.40664
416.05        17.48004
416.49        17.41285
416.94        17.25944
417.39         17.0677
417.83        16.90631
418.28        16.80723
418.73        16.73989
419.17        16.71611
419.62        16.75859
420.07        16.85784
420.51        17.00459
420.96        17.14401
421.41        17.17847
421.85        17.08814
422.30        16.92136
422.74        16.73084
423.19         16.6244
423.64        16.61717
424.08        16.68611
424.53        16.78538
424.98        16.86214
425.42        16.89801
425.87        16.90022
426.31        16.87173
426.76        16.84336
427.21        16.76595
427.65        16.65823
428.10        16.54017
428.54        16.42417
428.99        16.33148
429.44        16.36906
429.88        16.45971
430.33        16.27106
430.77        15.91597
431.22        15.93992
431.66        16.31084
432.11        16.49899
432.56        16.43867
433.00        16.41024
433.45        16.41374
433.89        16.25739
434.34        16.03588
434.78        16.02101
435.23        16.16072
435.67         16.1461
436.12        15.96997
436.57        15.80284
437.01        15.69695
437.46        15.66987
437.90        15.73362
438.35        15.87312
438.79        16.03916
439.24        16.12515
439.68        16.13015
440.13        16.14767
440.57        16.15521
441.02        16.12275
441.46        16.05991
441.91        15.86712
442.35        15.63031
442.80        15.80632
443.24        16.25069
443.69        16.17816
444.13        15.65771
444.58         15.4567
445.02        15.57919
445.47        15.61658
445.91        15.54096
446.36        15.51205
446.80        15.52235
447.24        15.53845
447.69        15.55506
448.13        15.56354
448.58        15.56457
449.02        15.56061
449.47        15.57161
449.91        15.61855
450.36        15.70342
450.80        15.81336
451.25        15.91721
451.69        15.96377
452.13         15.9407
452.58        15.87175
453.02        15.78101
453.47        15.70644
453.91         15.6582
454.36        15.67286
454.80        15.66535
455.24        15.67925
455.69        15.68935
456.13        15.69688
456.58        15.71138
457.02        15.73113
457.46        15.75786
457.91        15.78622
458.35        15.80183
458.79        15.79254
459.24        15.76756
459.68        15.74012
460.13        15.72565
460.57        15.67589
461.01        15.71554
461.46         15.6846
461.90        15.64291
462.34        15.77246
462.79        15.99952
463.23        15.98234
463.68        15.75219
464.12        15.65093
464.56        15.69446
465.01          15.716
465.45        15.68985
465.89        15.64881
466.34        15.61769
466.78        15.65931
467.22        15.79476
467.67        15.80485
468.11        15.69306
468.55        15.54358
468.99        15.40552
469.44        15.31339
469.88        15.28336
470.32         15.3144
470.77        15.37224
471.21        15.41432
471.65         15.4208
472.10        15.40869
472.54        15.40024
472.98         15.4464
473.42        15.55149
473.87        15.69221
474.31        15.82121
474.75        15.87117
475.20        15.83552
475.64        15.73551
476.08        15.61769
476.52         15.5503
476.97        15.55163
477.41        15.59613
477.85        15.66807
478.29         15.7392
478.74        15.80059
479.18        15.85225
479.62        15.87839
480.06        15.89137
480.50        15.90213
480.95        15.76824
481.39        15.76018
481.83        15.77029
482.27        15.88995
482.72         15.9686
483.16        16.18723
483.60        16.30192
484.04        16.36328
484.48        16.36403
484.93        16.33653
485.37        16.38869
485.81        16.50149
486.25        16.44023
486.69        16.21539
487.14        16.30879
487.58        16.64927
488.02        16.54823
488.46        16.62931
488.90        16.91275
489.34        16.34733
489.79         16.3399
490.23        16.51916
490.67        16.86733
491.11        17.22929
491.55        17.18982
491.99        16.84686
492.43        16.78868
492.88        17.04989
493.32        17.25532
493.76        17.35817
494.20        17.48768
494.64        17.63782
495.08        17.76932
495.52        17.86406
495.96        17.93971
496.41        18.00413
496.85        17.95286
497.29        17.83562
497.73        18.04584
498.17        18.30364
498.61        18.32435
499.05        18.08142
499.49         18.0061
499.93        18.13422
500.37         18.2943
500.82          18.442
501.26        18.54967
501.70        18.60051
502.14        18.62843
502.58        18.66247
503.02        18.72582
503.46        18.82838
503.90        18.96672
504.34        19.11232
504.78        19.21601
505.22         19.2643
505.66        19.26553
506.10        19.24644
506.54        19.27213
506.98        19.35791
507.42        19.44748
507.86         19.4892
508.30        19.62169
508.74        19.47673
509.18        19.36802
509.62        19.24949
510.06        19.22382
510.50        19.30932
510.94        19.48092
511.38        19.68173
511.82        19.80566
512.26        19.82427
512.70        19.76872
513.14        19.68866
513.58        19.66183
514.02        19.70871
514.46         19.8027
514.90        19.91012
515.34         19.9781
515.78        19.99068
516.22        19.96676
516.66        19.92915
517.10         19.9111
517.54        19.92095
517.98        19.94472
518.42        19.96645
518.86        19.96284
519.30        19.92801
519.74        19.87288
520.18        19.80892
520.62        19.75054
521.06        19.70558
521.50        19.67443
521.93        19.65648
522.37        19.64521
522.81        19.63996
523.25        19.63647
523.69         19.6439
524.13        19.67609
524.57        19.73036
525.01        19.80086
525.45        19.85185
525.89        19.82737
526.32        19.71806
526.76        19.54848
527.20        19.37237
527.64        19.27353
528.08        19.26819
528.52        19.33044
528.96        19.41078
529.40        19.42874
529.83        19.36366
530.27        19.24578
530.71        19.10999
531.15         19.0135
531.59        18.97226
532.03        18.96468
532.46         18.9724
532.90        18.97406
533.34        18.96026
533.78        18.94392
534.22        18.92285
534.66        18.89105
535.09        18.84867
535.53        18.80013
535.97        18.76064
536.41        18.76253
536.85        18.80836
537.28        18.88566
537.72        18.96497
538.16        19.00135
538.60        18.98535
539.04        18.93669
539.47         18.8703
539.91        18.82813
540.35        18.81782
540.79        18.83308
541.22        18.87756
541.66        18.96051
542.10        19.07551
542.54        19.21825
542.97        19.36929
543.41        19.49839
543.85        19.59786
544.29         19.6795
544.72        19.74122
545.16        19.79699
545.60         19.8517
546.04        19.89369
546.47        19.94805
546.91        20.08514
547.35        20.29443
547.79        20.49675
548.22        20.65317
548.66        20.81399
549.10        20.97743
549.53        21.04268
549.97         21.0052
550.41        21.29175
550.84        21.27446
551.28        21.42078
551.72         21.5217
552.15         21.7371
552.59        21.78846
553.03        21.90078
553.46        21.99861
553.90        22.08374
554.34        22.15345
554.77        22.23197
555.21        22.31678
555.65        22.34466
556.08        22.33649
556.52        22.40203
556.96        22.53525
557.39        22.67237
557.83        22.80155
558.27        22.90711
558.70        22.99635
559.14        23.10949
559.57        23.22531
560.01        23.31405
560.45        23.36717
560.88        23.30661
561.32        23.28524
561.75        23.31086
562.19        23.41391
562.63        23.47679
563.06          23.492
563.50        23.53655
563.93        23.60516
564.37        23.67791
564.80        23.74691
565.24        23.82301
565.68        23.89794
566.11        23.97496
566.55         24.0551
566.98        24.10439
567.42        24.16646
567.85        24.25679
568.29        24.37186
568.72        24.59969
569.16        24.95643
569.60        24.87208
570.03        25.09444
570.47        25.43537
570.90        25.29933
571.34        25.57351
571.77        25.55316
572.21        25.65207
572.64        25.73386
573.08        25.81655
573.51        25.92159
573.95        26.23911
574.38        26.31806
574.82        26.54618
575.25        26.38537
575.69        26.32513
576.12        26.25433
576.56        26.50537
576.99        26.55674
577.42        26.50865
577.86        26.50018
578.29        26.50077
578.73        26.60415
579.16        26.40279
579.60         26.2987
580.03        26.11151
580.47        26.39374
580.90        26.43523
581.33        26.32316
581.77        26.38288
582.20         26.2007
582.64        25.99042
583.07         25.7152
583.51        25.49748
583.94        25.46066
584.37        25.32549
584.81        25.14595
585.24        25.18304
585.68        25.21732
586.11        25.36557
586.54        24.86233
586.98        24.91409
587.41        25.21969
587.85        25.09848
588.28        24.92678
588.71        25.09735
589.15        24.75931
589.58        24.84491
590.01        24.60043
590.45        24.59196
590.88        24.68608
591.31        24.87234
591.75        25.05027
592.18        25.05447
592.61        24.96791
593.05        24.57895
593.48        25.09051
593.91        25.01754
594.35        24.90424
594.78        24.93516
595.21        25.14823
595.65        25.29103
596.08        24.98896
596.51         25.4059
596.94        25.60658
597.38        25.92053
597.81         26.0786
598.24        26.17693
598.68        26.33921
599.11          26.735
599.54        26.92006
599.97        27.20547
600.41        27.40071
600.84        27.62679
601.27        27.98827
601.70         28.3799
602.14        28.79496
602.57        29.04944
603.00         29.1696
603.43        29.50208
603.87          29.954
604.30        30.33754
604.73        30.63114
605.16         30.9394
605.60        31.28352
606.03        31.69361
606.46        32.07582
606.89        32.63658
607.32         32.8685
607.76        33.23813
608.19        33.59226
608.62        33.89224
609.05        34.19149
609.48        34.56734
609.92        34.97567
610.35        35.44191
610.78        35.75976
611.21        35.77481
611.64        36.25897
612.07        36.47098
612.50        36.57942
612.94        36.89252
613.37        37.46552
613.80        37.49598
614.23        38.20031
614.66        38.47704
615.09         38.6974
615.52        38.86212
615.96         38.9817
616.39        39.27435
616.82        39.18813
617.25        39.55225
617.68        39.49279
618.11        39.87638
618.54        40.38911
618.97        40.60691
619.40        40.57192
619.84        40.73998
620.27        41.14812
620.70        41.47692
621.13        41.64149
621.56        41.73335
621.99        41.67141
622.42        41.50145
622.85        42.10756
623.28        42.06536
623.71        42.31804
624.14        41.83088
624.57        41.91832
625.00          41.786
625.43        41.75506
625.86        41.73536
626.29         41.7004
626.72        41.63767
627.15         41.5225
627.58        41.38571
628.01        41.21559
628.44        40.95573
628.87        40.63025
629.30        40.34441
629.73        40.11493
630.16        39.88574
630.59        39.60062
631.02        39.45015
631.45        39.20987
631.88        38.94188
632.31        38.57907
632.74        38.14959
633.17        37.68373
633.60        37.23705
634.03        36.82832
634.46        36.43673
634.89        36.05229
635.32        35.66253
635.75        35.26146
636.18        34.85543
636.61        34.44552
637.04        34.03528
637.47        33.63495
637.89        33.22326
638.32        32.79306
638.75        32.43365
639.18        32.16762
639.61        31.66464
640.04        31.50234
640.47        31.22105
640.90        30.98996
641.33        30.80119
641.76        30.64666
642.18        30.50591
642.61        30.36073
643.04        30.21914
643.47        30.11246
643.90        30.08092
644.33        30.12662
644.76        30.27695
645.18        30.46034
645.61        30.47805
646.04        30.28631
646.47        30.26373
646.90        30.41832
647.33        30.55942
647.75        30.69203
648.18        30.96535
648.61         31.3351
649.04        31.67141
649.47         31.9718
649.89        32.23831
650.32        32.50779
650.75         33.0193
651.18        33.72099
651.61        34.16864
652.03        34.40393
652.46        35.02066
652.89        35.91776
653.32        36.28325
653.74        36.23063
654.17        36.58133
654.60        36.92394
655.03        37.99024
655.46        37.90104
655.88         39.2085
656.31        41.75416
656.74        42.74286
657.16        42.25828
657.59        41.00228
658.02        41.02482
658.45        42.08276
658.87        42.46278
659.30        42.32552
659.73        43.55122
660.15        43.51009
660.58        44.16388
661.01        44.32331
661.44         44.4809
661.86        44.57736
662.29        44.70063
662.72        45.20245
663.14        45.95091
663.57        46.17216
664.00        45.94069
664.42        46.04335
664.85        46.53405
665.27        46.94351
665.70        47.21567
666.13        47.51012
666.55        47.81739
666.98        48.08403
667.41         48.3085
667.83        48.48334
668.26        48.60536
668.69        48.69164
669.11        48.76068
669.54         48.8434
669.96        48.95341
670.39        49.08609
670.82        49.23696
671.24        49.40287
671.67        49.56635
672.09         49.7209
672.52        49.88095
672.94        50.11285
673.37        50.03075
673.80          50.523
674.22        50.45613
674.65         50.6567
675.07        50.83025
675.50        50.99085
675.92        51.14667
676.35        51.30391
676.77        51.47576
677.20         51.6415
677.62        51.79976
678.05        51.94685
678.47         52.0787
678.90        52.20514
679.32        52.31308
679.75         52.3923
680.17        52.43969
680.60        52.46544
681.02        52.50163
681.45        52.59809
681.87          52.769
682.30        53.00296
682.72        53.26436
683.15        53.42963
683.57         53.5048
684.00        53.57753
684.42        53.68059
684.85        53.81117
685.27        53.97624
685.70        54.17884
686.12        54.39627
686.54        54.66842
686.97        54.95119
687.39        55.17739
687.82        55.28168
688.24        55.42019
688.66        55.33701
689.09        55.23558
689.51         55.0902
689.94        55.04082
690.36         55.1197
690.78        55.19385
691.21        55.28677
691.63        55.67616
692.06        56.22746
692.48        56.37735
692.90         56.1667
693.33        56.15465
693.75         56.3684
694.17        56.46621
694.60        56.46712
695.02         56.5191
695.44        56.61594
695.87        56.89312
696.29        57.27138
696.71        57.16289
697.14        56.75375
697.56         57.0387
697.98        57.88453
698.41         58.2686
698.83          58.134
699.25        58.05041
699.68         58.0843
700.10        58.13322
700.52        58.21135
700.94        58.35543
701.37        58.51094
701.79         58.6064
702.21         58.6188
702.64        58.57873
703.06        58.54087
703.48        58.60159
703.90        58.78423
704.33        59.06873
704.75        59.37018
705.17        59.60958
705.59        59.73566
706.01        59.77644
706.44        59.78642
706.86        59.84259
707.28        59.96136
707.70        60.16272
708.12        60.40487
708.55        60.51173
708.97        60.51936
709.39        60.68191
709.81        60.99344
710.23        61.23437
710.66        61.37933
711.08        61.56643
711.50        61.76805
711.92        61.91125
712.34        61.99397
712.76        62.03921
713.19        62.04823
713.61        62.06405
714.03        62.08453
714.45        62.10866
714.87        62.15243
715.29        62.23896
715.71        62.36877
716.13        62.53283
716.56        62.69096
716.98        62.85022
717.40        62.97162
717.82        63.05961
718.24        63.11527
718.66        63.14577
719.08        63.15894
719.50        63.15156
719.92        63.14297
720.34        63.16822
720.76        63.23493
721.19        63.31445
721.61        63.45192
722.03        63.52306
722.45         63.5163
722.87         63.5606
723.29        63.71933
723.71        63.45616
724.13        63.78648
724.55        63.89344
724.97        64.03898
725.39        64.06966
725.81        63.96854
726.23        63.94127
726.65        63.86554
727.07        63.67718
727.49        63.90623
727.91        64.06468
728.33        64.28249
728.75        64.48888
729.17        64.67284
729.59         64.8135
730.01        64.87309
730.43        64.92805
730.85        65.01237
731.27        64.64908
731.69        64.75985
732.10        64.79572
732.52        65.02261
732.94        65.37723
733.36        65.78719
733.78        66.07057
734.20        66.15985
734.62        66.19463
735.04        66.19993
735.46        66.03723
735.88        65.82629
736.30        65.95786
736.72        66.35882
737.13        66.59502
737.55        66.52644
737.97        66.27869
738.39        65.97336
738.81        65.70212
739.23        65.60825
739.65        66.01193
740.06         66.6806
740.48         66.9666
740.90        66.78281
741.32        66.45656
741.74        66.15111
742.16        65.99989
742.57        66.07664
742.99         66.3492
743.41        66.70667
743.83        66.88145
744.25        66.86314
744.67        66.89404
745.08        67.00075
745.50        67.04794
745.92        67.04648
746.34        67.05387
746.75        67.11512
747.17        67.21877
747.59        67.36294
748.01        67.68778
748.42        68.07059
748.84        67.94368
749.26        67.61695
749.68         67.4062
750.09        67.45051
750.51         67.7198
750.93        68.07648
751.35        68.11378
751.76        67.86507
752.18        67.81573
752.60        67.97412
753.01        68.02173
753.43        67.95449
753.85        67.91552
754.27        67.92527
754.68        68.18211
755.10        68.38054
755.52        68.42841
755.93        68.28111
756.35        68.29861
756.77        68.60509
757.18        68.91969
757.60        69.23063
758.02         70.1699
758.43        71.23155
758.85        70.62429
759.26        68.75217
759.68        67.84269
760.10        68.12565
760.51        68.87846
760.93        68.93242
761.34        69.55357
761.76        70.15456
762.18        69.81178
762.59        68.74943
763.01        68.26361
763.42        68.49343
763.84         68.5045
764.26        68.36243
764.67        68.47787
765.09        68.83423
765.50         69.5715
765.92        70.52662
766.33        70.14414
766.75        69.86165
767.16        69.54694
767.58        69.70732
768.00         69.4863
768.41        69.03973
768.83        69.38297
769.24        70.23513
769.66        70.37308
770.07        69.80696
770.49        69.34538
770.90        69.17136
771.32        69.36558
771.73        69.83886
772.15          69.997
772.56        69.79915
772.97        69.88249
773.39        69.82177
773.80        70.00494
774.22        70.25183
774.63        70.60096
775.05         70.8942
775.46        70.99919
775.88        70.86099
776.29        70.55428
776.70        70.20059
777.12        70.03532
777.53        70.11637
777.95        70.34076
778.36        70.66805
778.77        70.97922
779.19        71.22311
779.60        71.58992
780.02        71.93321
780.43        71.85526
780.84         71.4807
781.26        71.23462
781.67        71.25985
782.09         71.7997
782.50        72.58205
782.91        72.53732
783.33        71.73417
783.74        71.35585
784.15        71.46854
784.57        71.35787
784.98        71.04402
785.39        70.92997
785.81        71.04572
786.22        71.26882
786.63        71.59039
787.04        71.99786
787.46        72.45177
787.87        72.91979
788.28        73.33583
788.70        73.55884
789.11        73.55846
789.52        73.47894
789.93        73.34645
790.35        73.02481
790.76        72.63005
791.17        72.56358
791.58        72.85925
792.00        73.03117
792.41        73.01078
792.82        73.64282
793.23        74.04796
793.65        73.85325
794.06        73.11418
794.47        73.34994
794.88        74.31716
795.29        74.50395
795.71        73.83376
796.12        73.16749
796.53        72.75252
796.94        72.64258
797.35        72.93118
797.76        73.59906
798.18        74.37164
798.59        74.84347
799.00        74.87741
799.41        74.58266
799.82        74.12342
800.23        73.79604
800.64        73.70363
801.06        73.72896
801.47         73.8603
801.88        74.00585
802.29        74.11829
802.70        74.22202
803.11        74.32612
803.52        74.38927
803.93        74.41763
804.34        74.50107
804.75        74.61562
805.17        74.40677
805.58        74.61327
805.99         74.3322
806.40        73.94105
806.81        74.50772
807.22        75.69101
807.63        75.56332
808.04        74.29218
808.45        73.88587
808.86        74.49706
809.27        74.98811
809.68        75.16008
810.09        75.24069
810.50        75.17702
810.91        74.90273
811.32        74.58662
811.73        74.50223
812.14        74.70766
812.55        75.14341
812.96        75.62863
813.37        75.81587
813.78        75.62218
814.19         75.1889
814.60        74.70383
815.01        74.42515
815.42        74.41761
815.83        74.59131
816.24        74.89034
816.65        75.20106
817.05         75.4499
817.46        75.62943
817.87        75.71684
818.28        75.62028
818.69        75.34433
819.10        74.91337
819.51        74.44984
819.92        74.19422
820.33        74.22575
820.74        74.47982
821.14        74.86524
821.55         75.2379
821.96        75.53579
822.37         75.8017
822.78        76.00621
823.19        76.10018
823.60        76.07157
824.00        75.90534
824.41        75.67648
824.82        75.55176
825.23        75.56566
825.64        75.70046
826.04        75.85555
826.45        75.76315
826.86        75.40688
827.27        74.87579
827.68        74.36714
828.08        74.20879
828.49        74.42904
828.90        74.96776
829.31        75.65404
829.72        76.18628
830.12         76.4902
830.53        76.55892
830.94        76.54382
831.35        76.66291
831.75        76.99155
832.16          77.372
832.57        77.69966
832.97        77.76711
833.38        77.53405
833.79        77.13929
834.20        76.67773
834.60        76.25392
835.01        75.95184
835.42        75.71519
835.82        75.66254
836.23        75.91737
836.64        76.49643
837.04        77.38571
837.45        78.23914
837.86        78.63401
838.26        78.45469
838.67        77.82507
839.08        77.02322
839.48        76.47409
839.89        76.33991
840.29        76.49104
840.70        76.80341
841.11        77.08775
841.51        77.29671
841.92         77.4631
842.33        77.61993
842.73        77.79309
843.14        77.93649
843.54        78.05299
843.95        78.13922
844.35        78.27176
844.76        78.42815
845.17        78.56746
845.57        78.66627
845.98        78.64907
846.38        78.52213
846.79        78.32053
847.19        78.01185
847.60        77.49299
848.00        76.81596
848.41        76.04412
848.81        75.42251
849.22        75.30505
849.62        75.77943
850.03        76.69756
850.43        77.82694
850.84        78.52206
851.24        78.65073
851.65        78.27592
852.05         77.6759
852.46        77.27663
852.86        77.18757
853.27        77.32183
853.67        77.45399
854.07         77.4917
854.48        77.34616
854.88        77.10561
855.29        76.75245
855.69         76.4778
856.10        76.25073
856.50        76.15238
856.90        76.05902
857.31        75.82923
857.71        75.48964
858.12        75.04132
858.52        74.70501
858.92        74.77374
859.33        75.27432
859.73        76.16121
860.13        77.10173
860.54        77.56882
860.94        77.47236
861.34        76.84344
861.75        75.97643
862.15        75.46368
862.55        75.43276
862.96        75.75594
863.36        76.03854
863.76        75.67294
864.17        74.60493
864.57        73.11496
864.97        71.67839
865.38        70.94884
865.78        71.10761
866.18        71.92143
866.58        73.12971
866.99        74.16064
867.39        74.79636
867.79        75.16533
868.19         75.2265
868.60        74.92979
869.00        74.34158
869.40        73.43002
869.80        72.61298
870.21        72.62277
870.61        73.62651
871.01        75.37248
871.41        77.17913
871.81        77.94633
872.22        77.41631
872.62        75.91253
873.02        74.05804
873.42        72.90656
873.82        72.78542
874.22        73.41885
874.63        74.34325
875.03        74.83932
875.43        74.72199
875.83        74.21232
876.23        73.72243
876.63        73.91037
877.03        74.89381
877.44        76.36047
877.84        77.81834
878.24        78.39381
878.64          77.909
879.04        76.72002
879.44         75.3167
879.84        74.40154
880.24        74.15683
880.64        74.34137
881.04        74.82501
881.44        75.38975
881.84        75.91779
882.24         76.5099
882.65        76.95195
883.05        77.00108
883.45        76.58206
883.85        75.79887
884.25        75.01344
884.65        74.80519
885.05        75.26566
885.45        76.16164
885.85        77.23188
886.25        78.01204
886.65        78.30456
887.05        78.27601
887.45        77.81257
887.85        76.75562
888.25        75.26119
888.65        73.50281
889.04        71.97865
889.44        71.41269
889.84        71.84408
890.24        73.11344
890.64        74.81355
891.04        76.03146
891.44        76.39297
891.84        76.14389
892.24        75.62383
892.64        75.33588
893.04        75.41054
893.44        75.65991
893.83        76.03803
894.23        76.40608
894.63        76.72041
895.03        77.04422
895.43        77.31146
895.83        77.39337
896.23        77.27869
896.63         76.9836
897.02        76.61639
897.42        76.43209
897.82        76.47181
898.22        76.69748
898.62        76.96836
899.01        77.05006
899.41         76.8727
899.81        76.51471
900.21        76.14627
900.61        76.02941
901.00        76.21017
901.40        76.59894
901.80        76.97797
902.20         77.0052
902.59        76.60027
902.99        75.87112
903.39        75.06164
903.79        74.52404
904.18        74.34689
904.58        74.47703
904.98        74.69693
905.38        74.67655
905.77        74.33195
906.17        73.76515
906.57         73.2512
906.96         73.2526
907.36        73.81888
907.76        74.82588
908.15        75.87768
908.55        76.18649
908.95        75.65103
909.34        74.51721
909.74        73.38103
910.14        73.02506
910.53        73.66537
910.93        74.99829
911.33        76.67505
911.72        78.15682
912.12        79.13404
912.52        79.74034
912.91        80.05597
913.31        80.19772
913.70        80.23229
914.10        80.08945
914.49          79.685
914.89        78.90149
915.29        77.80876
915.68        76.53551
916.08        75.45574
916.47        74.98919
916.87        75.25538
917.26        76.06185
917.66         77.1209
918.05        77.96919
918.45        78.38032
918.84        78.52715
919.24        78.36169
919.64        77.99117
920.03        77.51135
920.42        76.86815
920.82        76.30058
921.21         76.0863
921.61        76.27925
922.00        76.83111
922.40        77.50314
922.79        77.94774
923.19        78.02092
923.58         77.8477
923.98        77.54968
924.37        77.33966
924.77        77.28148
925.16        77.30487
925.55        77.38598
925.95        77.49899
926.34        77.63362
926.74        77.78195
927.13        77.89577
927.52        77.85004
927.92        77.63216
928.31        77.26414
928.70        76.82115
929.10        76.41592
929.49        76.09377
929.89        75.80299
930.28        75.57615
930.67        75.37765
931.07        75.20783
931.46        75.12353
931.85        75.08195
932.24        75.01447
932.64        74.93116
933.03        74.85529
933.42        74.89869
933.82        75.23782
934.21        75.89871
934.60         76.7278
934.99        77.58003
935.39        78.20691
935.78        78.56756
936.17        78.70568
936.56        78.46503
936.96        77.65929
937.35        76.38937
937.74        74.82979
938.13        73.48582
938.53        72.97936
938.92        73.36166
939.31        74.51496
939.70        76.02946
940.09        77.06822
940.49        77.30374
940.88        76.93613
941.27        76.31895
941.66        76.03143
942.05         76.2215
942.44        76.73704
942.84        77.24298
943.23        77.25809
943.62        76.62498
944.01        75.55311
944.40          74.547
944.79        74.31156
945.18        74.96973
945.57        76.31577
945.97        77.73541
946.36        78.40656
946.75        77.98228
947.14        76.74501
947.53        75.31711
947.92        74.64086
948.31        74.95881
948.70        76.02412
949.09        77.32208
949.48         77.9306
949.87        77.56705
950.26        76.51923
950.65        75.36925
951.04        74.90957
951.43        75.31457
951.82        76.39689
952.21        77.58834
952.60        77.87901
952.99        77.02189
953.38        75.35269
953.77        73.72662
954.16        73.28149
954.55        74.21766
954.94        76.31271
955.33        78.67244
955.72        79.38065
956.11        77.84593
956.50         74.7711
956.89        71.59531
957.28        70.16602
957.66        70.87183
958.05        73.13487
958.44        76.03131
958.83        77.65249
959.22         77.3286
959.61        75.73446
960.00        73.82144
960.39         72.8031
960.78        72.92208
961.16        73.79267
961.55        74.93111
961.94        75.51492
962.33         75.2311
962.72        74.48389
963.11        73.57027
963.49        72.83246
963.88        72.39353
964.27        72.10151
964.66        72.06662
965.04        72.56213
965.43        73.49693
965.82        74.82218
966.21        76.15978
966.60        76.79504
966.98        76.56599
967.37         75.7524
967.76        74.68863
968.15        73.83325
968.53        73.29971
968.92        72.87461
969.31        72.72832
969.69        73.19771
970.08        74.23389
970.47        75.89486
970.86        77.42366
971.24        77.50828
971.63        75.90634
972.02         73.0954
972.40        70.30753
972.79        69.46202
973.17        70.88688
973.56        73.89165
973.95        77.42566
974.33        79.48736
974.72        79.33743
975.11        77.63689
975.49        75.30936
975.88         74.0854
976.26        74.40446
976.65        75.66472
977.04        77.31346
977.42        78.36857
977.81        78.31854
978.19        77.64301
978.58         76.6365
978.96        75.60716
979.35        74.79142
979.74        74.10068
980.12        73.74165
980.51        74.04312
980.89        75.09527
981.28        76.63188
981.66        78.53456
982.05        80.27663
982.43        81.73767
982.82        82.92402
983.20        83.48619
983.59        82.78012
983.97        80.86456
984.35        78.01703
984.74        75.34125
985.12        74.34163
985.51        75.19443
985.89         77.5619
986.28        80.27921
986.66        81.71276
987.04        81.20963
987.43        79.32957
987.81        76.78458
988.20        75.12164
988.58        74.79122
988.96        75.37723
989.35        76.23161
989.73        76.56248
990.12        76.05578
990.50        75.10973
990.88        74.00444
991.27        73.14738
991.65        72.64976
992.03        72.41924
992.42        72.47977
992.80        73.20197
993.18        74.50336
993.56        76.31521
993.95        78.19329
994.33        79.43838
994.71        79.68056
995.10        79.15544
995.48        78.20705
995.86        77.44972
996.24        77.08545
996.63        76.86224
997.01        76.88987
997.39        77.14229
997.77        77.55717
998.15        78.20993
998.54        78.81339
998.92        78.90281
999.30        78.39754
999.68         77.4113
1000.06        76.42477
1000.45        76.30334
1000.83        77.35243
1001.21        79.28552
1001.59        81.55854
1001.97        83.28609
1002.35        84.14387
1002.73        84.29704
1003.12        83.98587
1003.50        83.52937
1003.88        83.11695
1004.26        82.72643
1004.64        82.22366
1005.02        81.43596
1005.40        80.40911
1005.78         79.2476
1006.16          78.409
1006.54        78.48205
1006.92        79.54041
1007.30        81.53177
1007.69        83.67144
1008.07        84.44938
1008.45        83.26403
1008.83        80.46198
1009.21        77.35991
1009.59        76.23943
1009.97        77.64812
1010.35          80.825
1010.73        84.47996
1011.11        86.48345
1011.49        86.24229
1011.86        84.59455
1012.24        82.06787
1012.62         79.6293
1013.00        77.64521
1013.38        75.73016
1013.76        74.19394
1014.14        73.78105
1014.52        74.61752
1014.90        76.55705
1015.28        78.63239
1015.66        79.22544
1016.04        77.96528
1016.41        75.35563
1016.79        72.04227
1017.17        69.64392
1017.55        68.92488
1017.93        69.35693
1018.31        70.60021
1018.69        72.56331
1019.06        75.44421
1019.44        79.54218
1019.82        85.05846
1020.20        90.32367
1020.58        93.17625
1020.95        93.20955
1021.33        91.35934
1021.71        88.86346
1022.09        85.89375
1022.46        81.79308
1022.84        76.83361
1023.22        72.44412
1023.60        70.25606
1023.97         70.3655
1024.35        71.93512
1024.73        73.85235
