SpectraSmart Spectrum 2.9.0.0
--------- Device Information -----------
Spectrum Name :  反射率_0
Saving Time :  2024/04/30 00:48:14
Spectro-Module Model Name : SE2030-DUVN
Spectro-Module Serial Number : OS361AC55029948
Wavelength Start : 200
Wavelength End : 1025
Wavelength Unit : Wavelength(nm)
Spectrum Unit : Reflectance(%)
-----------Spectrum Setting ------------
Integration Time : 20ms
Average : 10
Boxcar : 0
Background removal :  enabled
linearity correction :  enabled
SC :  disabled
Intensity correction :  disabled
DWT denoise :  enabled
savitzky-golay :  disabled
FFT :  disabled
Running average :  disabled
Kalman :  disabled
High pass :  disabled
---------------BEGIN--------------------
Wavelength(nm)             Reflectance(%)
200.29               0
200.75        54.18298
201.21        41.23442
201.67        26.06719
202.13        14.25398
202.58        8.659654
203.04        8.479305
203.50        14.18522
203.96        26.13084
204.42        42.49236
204.88        61.32225
205.34        76.35107
205.80        79.39775
206.26        72.26801
206.72        61.25056
207.18        50.12418
207.64        40.41883
208.10        31.59478
208.55        22.18613
209.01        14.29399
209.47        13.87782
209.93        21.09019
210.39        32.36581
210.85         42.1967
211.31        46.19893
211.77        44.40753
212.23        37.01213
212.69        25.88498
213.14        21.88284
213.60        29.62877
214.06        42.47617
214.52        53.57149
214.98        59.09373
215.44        60.10242
215.90         58.6801
216.36        56.38372
216.81        55.83823
217.27        58.71299
217.73        64.87963
218.19        74.80205
218.65        85.78601
219.11        93.13304
219.57        95.49956
220.02        95.01543
220.48        95.09787
220.94        95.97819
221.40        97.53394
221.86        97.36438
222.32        90.76853
222.77        79.76435
223.23        70.05349
223.69        64.44755
224.15        63.79531
224.61        67.10764
225.06        73.69508
225.52        82.12807
225.98        87.56855
226.44        88.15215
226.90        86.01917
227.36        83.56795
227.81        82.60768
228.27        83.28543
228.73        84.77457
229.19        86.43788
229.65        86.96344
230.10        86.06347
230.56        84.91361
231.02        83.81557
231.48        83.00586
231.93        82.36469
232.39        81.70238
232.85        81.29818
233.31        81.84335
233.77        83.40675
234.22        86.03967
234.68        88.34579
235.14        87.92725
235.60        84.45824
236.05        78.84206
236.51        73.51131
236.97        71.53214
237.43        73.59478
237.88        79.68955
238.34        88.37906
238.80         94.8794
239.26        95.67049
239.71        91.73833
240.17        85.59931
240.63        81.04565
241.08        79.01794
241.54         78.2027
242.00        78.70853
242.46        80.14507
242.91        81.95732
243.37        84.44776
243.83        86.45257
244.28        86.32832
244.74        83.68834
245.20        77.87527
245.66        70.52042
246.11        66.48581
246.57        68.44868
247.03        76.12884
247.48        85.60484
247.94        87.35261
248.40        81.17177
248.85        72.25632
249.31         66.2542
249.77        65.65414
250.22        70.37691
250.68        81.03954
251.14        97.10097
251.59        104.9033
252.05        96.07046
252.51        82.04731
252.96        71.60905
253.42        67.46815
253.88         67.5332
254.33        69.90494
254.79        73.87317
255.25        76.87848
255.70        77.71014
256.16        77.94382
256.62        78.00077
257.07        78.17004
257.53        78.93533
257.99        79.80757
258.44        80.38121
258.90        80.86514
259.35        80.74927
259.81        80.62979
260.27        80.39005
260.72        79.97487
261.18        79.69938
261.63        79.19785
262.09        78.68748
262.55        77.97561
263.00        77.00855
263.46        76.15102
263.91        75.20483
264.37        74.39074
264.83        73.60078
265.28        72.75119
265.74        72.07192
266.19         71.5966
266.65        71.41025
267.11        71.37913
267.56        71.31854
268.02        71.02325
268.47        70.39392
268.93        69.51756
269.38        68.44353
269.84        67.38574
270.30        66.42451
270.75        65.51567
271.21        64.67569
271.66        63.83239
272.12        62.97568
272.57        62.07638
273.03        61.16959
273.48        60.18848
273.94        59.22586
274.39        58.25572
274.85        57.35138
275.31        56.46614
275.76        55.57325
276.22        54.73515
276.67        53.96136
277.13        53.43825
277.58        53.07377
278.04        52.85252
278.49        52.54998
278.95        52.01029
279.40        51.14277
279.86        50.13457
280.31        49.03048
280.77        48.07527
281.22        47.27688
281.68        46.63027
282.13        46.11704
282.59         45.8161
283.04        45.64762
283.50        45.59359
283.95        45.47256
284.41        45.06303
284.86        44.31074
285.32        43.36092
285.77        42.32248
286.22        41.45702
286.68        40.84275
287.13        40.37356
287.59        40.03483
288.04        39.71918
288.50        39.42324
288.95        39.13502
289.41        38.88157
289.86        38.62713
290.32         38.3918
290.77        38.15684
291.22        37.90562
291.68        37.61785
292.13        37.28723
292.59        36.96208
293.04        36.72276
293.50        36.72963
293.95        36.98784
294.40        37.45916
294.86        37.99834
295.31        38.39348
295.77        38.58657
296.22        38.61745
296.68        38.62045
297.13         38.7822
297.58        39.15013
298.04        39.63393
298.49        40.09935
298.95        40.34522
299.40        40.32774
299.85        40.13477
300.31        39.89726
300.76        39.74435
301.21        39.74663
301.67        39.86581
302.12        40.02674
302.58        40.25948
303.03        40.52721
303.48        40.72197
303.94        40.80656
304.39        41.32896
304.84        41.24628
305.30        41.38774
305.75        41.44356
306.20        41.49542
306.66        41.55726
307.11        41.60512
307.57        41.62654
308.02        41.51217
308.47        41.27466
308.93        40.95892
309.38        40.63076
309.83        40.44695
310.29        40.43962
310.74        40.55706
311.19        40.69882
311.65        40.70004
312.10         40.5188
312.55        40.20919
313.00         39.8803
313.46        39.70204
313.91        39.69762
314.36        39.81156
314.82         39.9375
315.27        39.92912
315.72        39.73734
316.18        39.42259
316.63        39.04915
317.08        38.72792
317.53        38.50166
317.99        38.34795
318.44         38.2355
318.89        38.12203
319.35        37.98986
319.80        37.84767
320.25        37.72847
320.70        37.68188
321.16        37.69761
321.61        37.77181
322.06        37.81064
322.51        37.67631
322.97        37.34512
323.42        36.86993
323.87        36.37196
324.32        36.04666
324.78        35.93146
325.23        35.99271
325.68        36.11421
326.13        36.09979
326.59        35.88652
327.04        35.54427
327.49        35.16967
327.94        34.93588
328.39        34.88145
328.85        34.93171
329.30        35.00999
329.75        34.92856
330.20        34.64438
330.66        34.22976
331.11        33.78584
331.56        33.43916
332.01        33.23691
332.46        33.13443
332.92         33.1164
333.37        33.19798
333.82         33.3438
334.27         33.5487
334.72        33.73326
335.17        33.76436
335.63        33.60719
336.08        33.30634
336.53        32.93115
336.98        32.63095
337.43        32.46032
337.88        32.38461
338.34        32.37774
338.79        32.41098
339.24        32.45773
339.69         32.5396
340.14        32.62176
340.59        32.64176
341.05        32.59026
341.50        32.47096
341.95        32.34341
342.40        32.31687
342.85        32.40669
343.30         32.5717
343.75        32.72909
344.20        32.74674
344.66        32.60653
345.11        32.35393
345.56        32.05685
346.01        31.81931
346.46        31.68293
346.91        31.61819
347.36        31.62226
347.81        31.69171
348.26        31.80834
348.72        31.96348
349.17        32.11452
349.62        32.18068
350.07        32.14121
350.52        32.02144
350.97         31.8539
351.42        31.69057
351.87        31.55952
352.32        31.45846
352.77        31.40747
353.22        31.43771
353.67        31.54288
354.13        31.69432
354.58        31.86164
355.03        31.99646
355.48         32.0676
355.93        32.07881
356.38          31.989
356.83        31.74012
357.28        31.34707
357.73        30.85204
358.18         30.3523
358.63        29.99926
359.08         29.8294
359.53        29.79493
359.98        29.84463
360.43        29.88901
360.88        29.88791
361.33        29.86495
361.78        29.78937
362.23        29.61441
362.68        29.34498
363.13        28.99469
363.58        28.63929
364.03        28.40587
364.48        28.32026
364.93        28.34352
365.38        28.41089
365.83        28.41215
366.28        28.31385
366.73        28.15256
367.18         27.9485
367.63        27.73318
368.08        27.52416
368.53        27.30932
368.98        27.11355
369.43        26.98021
369.88        26.91635
370.33        26.91566
370.78        26.93617
371.23        26.90444
371.68        26.79926
372.13        26.63234
372.58        26.44242
373.03        26.29752
373.48        26.20778
373.93        26.14452
374.38         26.0639
374.83        25.89634
375.28        25.63729
375.72        25.32506
376.17         25.0185
376.62        24.74858
377.07        24.53047
377.52        24.34471
377.97        24.22767
378.42        24.24002
378.87        24.37478
379.32        24.60203
379.77         24.8155
380.22        24.86009
380.67        24.70501
381.11        24.38676
381.56        24.00976
382.01        23.75318
382.46        23.66915
382.91        23.71357
383.36        23.78864
383.81          23.741
384.26        23.54139
384.71        23.24388
385.15        22.94252
385.60        22.80908
386.05        22.85928
386.50        23.02411
386.95        23.19868
387.40        23.22452
387.85        23.07103
388.29        22.79216
388.74        22.49026
389.19        22.23009
389.64        22.03819
390.09         21.8861
390.54        21.79271
390.98        21.78878
391.43        21.87441
391.88        22.02894
392.33        22.18209
392.78        22.25568
393.23        22.23784
393.67          22.099
394.12        21.90793
394.57        21.91225
395.02        21.80917
395.47        21.82789
395.91        21.84525
396.36        21.80292
396.81        21.69929
397.26         21.5701
397.71         21.4438
398.15        21.34895
398.60        21.32099
399.05        21.29361
399.50        21.27145
399.95        21.35849
400.39          21.439
400.84        21.50386
401.29        21.48959
401.74        21.41759
402.18        21.28621
402.63        21.05688
403.08        20.82121
403.53        20.73449
403.97        20.81911
404.42        21.03019
404.87        21.25806
405.32         21.3234
405.76        21.18066
406.21        20.89467
406.66        20.57407
407.11        20.39021
407.55        20.39182
408.00        20.52639
408.45        20.70097
408.90        20.74854
409.34        20.62378
409.79        20.38225
410.24        20.14127
410.68        20.07271
411.13        20.21115
411.58        20.49908
412.03        20.81086
412.47        20.93589
412.92        20.80914
413.37        20.51517
413.81        20.17638
414.26        20.00226
414.71        20.02229
415.15         20.1735
415.60        20.36397
416.05        20.46224
416.49        20.42636
416.94        20.30937
417.39        20.14458
417.83        19.97651
418.28        19.83512
418.73        19.69964
419.17        19.60491
419.62         19.6113
420.07        19.71767
420.51        19.90144
420.96        20.09395
421.41        20.17233
421.85        20.10735
422.30        19.95916
422.74        19.77676
423.19        19.66727
423.64        19.64703
424.08        19.69078
424.53        19.76743
424.98        19.85572
425.42        19.94149
425.87         20.0189
426.31        20.06079
426.76         20.0525
427.21        19.92747
427.65        19.73283
428.10        19.51482
428.54        19.32555
428.99        19.20316
429.44        19.25665
429.88         19.4049
430.33        19.26994
430.77        18.97109
431.22        19.14923
431.66        19.73024
432.11        20.00038
432.56        19.85924
433.00         19.6831
433.45         19.5141
433.89        19.19081
434.34        18.87582
434.78         18.9134
435.23        19.21659
435.67        19.33264
436.12        19.22707
436.57         19.1423
437.01        19.12828
437.46        19.16181
437.90        19.24952
438.35        19.38364
438.79        19.51985
439.24        19.55958
439.68        19.51516
440.13        19.49581
440.57        19.48228
441.02        19.44831
441.46        19.40287
441.91        19.21808
442.35        18.98174
442.80        19.22744
443.24        19.77686
443.69        19.68278
444.13        19.03003
444.58        18.75391
445.02        18.86433
445.47        18.86435
445.91        18.74331
446.36        18.72856
446.80        18.81153
447.24        18.93567
447.69        19.05975
448.13        19.11636
448.58        19.09491
449.02        19.01967
449.47        18.93609
449.91        18.90377
450.36        18.94068
450.80        19.02099
451.25        19.11879
451.69        19.18902
452.13        19.21404
452.58        19.21575
453.02        19.19136
453.47        19.13315
453.91        19.04262
454.36        18.97978
454.80        18.87106
455.24        18.81944
455.69        18.80977
456.13        18.82994
456.58        18.87838
457.02        18.93191
457.46        18.98537
457.91        19.04154
458.35        19.08347
458.79        19.09726
459.24        19.09316
459.68        19.08229
460.13        19.08568
460.57        19.05283
461.01        19.13359
461.46        19.13196
461.90        19.10777
462.34        19.26515
462.79        19.51266
463.23        19.44212
463.68        19.11146
464.12        18.96388
464.56        19.02457
465.01        19.08027
465.45        19.09147
465.89        19.08604
466.34        19.08911
466.78        19.18188
467.22        19.38284
467.67        19.40802
468.11        19.26083
468.55        19.04995
468.99        18.85214
469.44        18.73777
469.88        18.73283
470.32        18.82506
470.77        18.96179
471.21        19.06946
471.65         19.1159
472.10        19.12715
472.54        19.12571
472.98        19.16561
473.42        19.25435
473.87        19.36628
474.31        19.46221
474.75        19.49188
475.20        19.45234
475.64        19.36101
476.08        19.25363
476.52        19.17821
476.97        19.15122
477.41        19.15709
477.85        19.19349
478.29        19.25334
478.74        19.33439
479.18        19.42384
479.62        19.50144
480.06        19.58125
480.50        19.67054
480.95        19.59123
481.39        19.65622
481.83        19.69511
482.27        19.81294
482.72         19.8297
483.16        20.00644
483.60         20.0859
484.04        20.14051
484.48        20.20174
484.93        20.26867
485.37        20.30258
485.81        20.30068
486.25        20.31899
486.69        20.06826
487.14        20.31816
487.58        20.67461
488.02        20.86296
488.46        20.89914
488.90        21.38619
489.34        20.63246
489.79        20.58895
490.23         20.7537
490.67        21.09019
491.11        21.45436
491.55         21.4648
491.99        21.20904
492.43        21.22401
492.88        21.53386
493.32        21.77315
493.76        21.90272
494.20        22.07296
494.64        22.28392
495.08         22.4834
495.52        22.64684
495.96        22.79692
496.41        22.93946
496.85        22.93882
497.29        22.84392
497.73         23.1387
498.17        23.46217
498.61        23.45497
499.05        23.10176
499.49        22.98446
499.93        23.15693
500.37        23.39284
500.82        23.62431
501.26        23.79561
501.70        23.87911
502.14        23.92382
502.58        23.97187
503.02        24.06089
503.46         24.2047
503.90        24.39342
504.34        24.58723
504.78         24.7185
505.22         24.7703
505.66        24.76029
506.10        24.72268
506.54        24.73937
506.98        24.83311
507.42        24.93223
507.86        24.98671
508.30        25.19998
508.74        25.09991
509.18        25.07757
509.62         25.0434
510.06         25.0824
510.50        25.20692
510.94        25.39788
511.38        25.60483
511.82        25.73139
512.26        25.75409
512.70        25.70051
513.14        25.62427
513.58        25.60958
514.02        25.67589
514.46        25.79426
514.90        25.92041
515.34         25.9831
515.78        25.96321
516.22        25.88737
516.66          25.788
517.10        25.71362
517.54        25.67864
517.98        25.66556
518.42        25.66249
518.86        25.65091
519.30        25.62549
519.74        25.59907
520.18        25.56998
520.62        25.53168
521.06        25.48743
521.50        25.43858
521.93        25.40656
522.37        25.42012
522.81         25.4839
523.25        25.58154
523.69        25.68279
524.13         25.7427
524.57        25.74768
525.01        25.70761
525.45        25.63494
525.89        25.55303
526.32        25.46959
526.76        25.38765
527.20        25.30614
527.64        25.22467
528.08         25.1449
528.52        25.07196
528.96        25.01109
529.40        24.96768
529.83         24.9401
530.27        24.92706
530.71        24.91833
531.15        24.90211
531.59        24.87298
532.03        24.83106
532.46        24.77752
532.90        24.72395
533.34        24.67293
533.78        24.62772
534.22        24.58348
534.66        24.53149
535.09        24.47108
535.53        24.41294
535.97        24.37313
536.41         24.3838
536.85        24.44545
537.28        24.54033
537.72        24.63708
538.16        24.68834
538.60        24.68214
539.04        24.63913
539.47        24.56696
539.91        24.50046
540.35        24.44941
540.79        24.41667
541.22        24.42171
541.66         24.4996
542.10        24.64872
542.54        24.85357
542.97        25.08646
543.41        25.30593
543.85        25.49506
544.29        25.66887
544.72        25.80547
545.16        25.89196
545.60        25.93164
546.04        25.91831
546.47        25.91364
546.91        26.05712
547.35        26.34611
547.79          26.663
548.22        26.93051
548.66        27.17432
549.10        27.38173
549.53        27.43401
549.97        27.34041
550.41        27.68162
550.84        27.64932
551.28        27.84292
551.72        27.98226
552.15        28.26237
552.59        28.31918
553.03        28.45165
553.46        28.56801
553.90         28.6798
554.34        28.78442
554.77        28.90777
555.21        29.04195
555.65        29.09937
556.08        29.10439
556.52        29.20209
556.96        29.38022
557.39        29.54804
557.83        29.69114
558.27        29.79232
558.70        29.87438
559.14        30.01123
559.57        30.17714
560.01        30.32632
560.45        30.43245
560.88        30.36306
561.32        30.31064
561.75        30.31804
562.19        30.43115
562.63        30.45184
563.06        30.40433
563.50        30.51146
563.93        30.73102
564.37        30.87553
564.80        30.92243
565.24        30.96788
565.68        31.03235
566.11        31.13684
566.55        31.28912
566.98        31.43324
567.42        31.58904
567.85        31.72745
568.29        31.84212
568.72        32.03749
569.16        32.37564
569.60        32.20628
570.03        32.51897
570.47        32.77076
570.90        32.98027
571.34        32.90477
571.77        33.20182
572.21        33.22364
572.64        33.18703
573.08        33.37977
573.51        33.86562
573.95        33.59629
574.38        34.08245
574.82        34.00644
575.25        34.02307
575.69        33.87568
576.12        33.65334
576.56        33.99551
576.99        34.10345
577.42        33.95605
577.86        33.95162
578.29        33.92459
578.73         34.0848
579.16        33.85778
579.60        33.95975
580.03        33.64809
580.47        33.73756
580.90        33.69484
581.33        33.63251
581.77        33.77725
582.20          33.424
582.64        33.25722
583.07          33.141
583.51        32.94786
583.94        32.82486
584.37        32.71558
584.81        32.67211
585.24         32.7864
585.68        32.79424
586.11        32.80527
586.54        32.25081
586.98        32.20337
587.41        32.71638
587.85        32.53897
588.28        32.27402
588.71        32.60739
589.15        32.30809
589.58        32.08595
590.01        32.04555
590.45        32.04016
590.88        32.20212
591.31        32.31376
591.75          32.324
592.18         32.3562
592.61        32.43316
593.05         32.2118
593.48        32.36876
593.91        32.47761
594.35        32.14825
594.78        32.29168
595.21        32.70302
595.65        32.83475
596.08        32.67984
596.51        33.00227
596.94        33.35611
597.38        33.53608
597.81        33.80106
598.24        33.91518
598.68         34.1027
599.11        34.37637
599.54        34.93679
599.97        35.20142
600.41        35.10762
600.84        35.44881
601.27        35.73555
601.70        36.20082
602.14        36.62216
602.57        36.86316
603.00        36.96697
603.43        37.28854
603.87        37.72511
604.30        38.44853
604.73        38.73568
605.16         39.3091
605.60        39.89692
606.03         40.3456
606.46        40.59705
606.89        40.87682
607.32        41.23277
607.76        41.56172
608.19        41.89692
608.62        42.25542
609.05        42.64853
609.48        43.13451
609.92        43.66404
610.35        43.71409
610.78        44.23534
611.21        44.00942
611.64        44.38847
612.07        44.68237
612.50        45.16373
612.94        45.47002
613.37        46.06197
613.80        46.04278
614.23        46.67342
614.66        46.94868
615.09        47.19869
615.52        47.45812
615.96        47.72556
616.39        47.88468
616.82        47.86629
617.25        48.30088
617.68        48.27336
618.11        48.63334
618.54        49.03139
618.97        49.19077
619.40        49.16449
619.84        49.30095
620.27        49.64613
620.70        50.05621
621.13         50.4184
621.56         50.4941
621.99        50.19674
622.42         50.2295
622.85        50.70703
623.28        50.52899
623.71        51.20388
624.14        50.07988
624.57        50.83487
625.00         50.6772
625.43        50.57615
625.86        50.47855
626.29        50.40014
626.72        50.33197
627.15        50.23933
627.58        50.16468
628.01        50.07222
628.44        49.89333
628.87        49.64661
629.30        49.40351
629.73         49.1601
630.16        49.05347
630.59        48.65811
631.02        48.48285
631.45        48.18375
631.88        47.91672
632.31        47.60941
632.74         47.2821
633.17        46.92087
633.60        46.49851
634.03          46.018
634.46        45.48162
634.89        44.93716
635.32        44.46708
635.75         44.0892
636.18        43.78179
636.61         43.4927
637.04        43.14229
637.47        42.72084
637.89         42.2242
638.32        41.68472
638.75        41.29065
639.18        41.08263
639.61        40.59357
640.04        40.52888
640.47        40.26466
640.90        40.00532
641.33        39.75046
641.76        39.51003
642.18        39.29414
642.61        39.09285
643.04        38.90776
643.47        38.77528
643.90        38.74118
644.33        38.80444
644.76        39.00386
645.18        39.24849
645.61        39.27866
646.04        39.03883
646.47        39.02263
646.90        39.22795
647.33        39.38857
647.75         39.5028
648.18        39.75994
648.61        40.13807
649.04        40.49395
649.47        40.81323
649.89        41.18191
650.32        41.57819
650.75         41.9132
651.18        42.21671
651.61        42.63825
652.03         43.1849
652.46        43.70713
652.89        44.13729
653.32        44.55703
653.74        45.07035
654.17        45.19003
654.60        45.53899
655.03        46.81078
655.46        46.31255
655.88        47.47481
656.31        49.88596
656.74        50.13155
657.16        49.21086
657.59        48.11933
658.02        48.66791
658.45        50.06524
658.87        50.58501
659.30        50.74282
659.73        51.06454
660.15        51.65558
660.58        51.85855
661.01         52.1972
661.44        52.43608
661.86        52.38103
662.29        52.19267
662.72         52.6839
663.14        53.69399
663.57        53.83923
664.00         53.2497
664.42        53.24013
664.85        53.88348
665.27        54.42292
665.70        54.75953
666.13        55.13576
666.55        55.51034
666.98        55.74351
667.41        55.85175
667.83        55.92859
668.26        55.98414
668.69        55.98448
669.11        55.97686
669.54        56.03622
669.96        56.17445
670.39        56.43938
670.82        56.76194
671.24        56.87317
671.67        56.81163
672.09        56.95785
672.52        57.30605
672.94        57.59968
673.37          57.389
673.80        57.88186
674.22        57.81242
674.65        58.08929
675.07        58.37547
675.50        58.69731
675.92        59.00319
676.35        59.20204
676.77        59.29365
677.20        59.28466
677.62        59.24885
678.05        59.30666
678.47        59.48116
678.90        59.74313
679.32        60.01979
679.75        60.19739
680.17         60.2406
680.60        60.21975
681.02         60.1566
681.45        60.15712
681.87        60.23878
682.30        60.43137
682.72        60.70883
683.15         60.8247
683.57        60.85102
684.00        61.17896
684.42        61.72795
684.85        62.04681
685.27        62.09858
685.70        62.07206
686.12        62.05074
686.54        62.24016
686.97        62.60188
687.39        62.85284
687.82        62.89265
688.24        62.97749
688.66        63.12468
689.09        62.71891
689.51        62.65758
689.94        62.65551
690.36        62.71986
690.78        62.95912
691.21        63.24451
691.63        63.55835
692.06        63.82457
692.48        63.94052
692.90        63.94175
693.33        64.00203
693.75        64.14334
694.17        64.25694
694.60        64.34389
695.02        64.43885
695.44        64.53236
695.87        64.70763
696.29        64.93264
696.71        64.90032
697.14        64.71207
697.56        64.87579
697.98        65.33857
698.41        65.58398
698.83        65.59097
699.25        65.69437
699.68        65.88952
700.10        66.04167
700.52         66.1314
700.94        66.22263
701.37        66.29296
701.79        66.31025
702.21        66.27168
702.64        66.20463
703.06        66.15845
703.48        66.22198
703.90        66.41402
704.33        66.71558
704.75        67.04697
705.17        67.34068
705.59        67.54348
706.01         67.6799
706.44        67.76514
706.86          67.841
707.28        67.92288
707.70        67.97223
708.12        68.02355
708.55        68.18513
708.97        68.43378
709.39        68.60583
709.81        68.70348
710.23        68.88325
710.66        69.13559
711.08        69.37347
711.50        69.55863
711.92        69.71532
712.34         69.8422
712.76        69.93272
713.19        69.98122
713.61        70.02843
714.03        70.06387
714.45        70.08611
714.87        70.11734
715.29        70.18667
715.71        70.29714
716.13        70.44567
716.56        70.57161
716.98        70.65763
717.40        70.66241
717.82        70.60141
718.24        70.52821
718.66        70.53072
719.08        70.62713
719.50        70.78876
719.92        70.96175
720.34        71.05818
720.76        71.05807
721.19        70.98702
721.61        70.90005
722.03        70.85883
722.45        70.88402
722.87        70.94929
723.29        71.04478
723.71        71.15517
724.13          71.269
724.55        71.39633
724.97        71.51083
725.39         71.5643
725.81        71.55733
726.23        71.51042
726.65         71.4738
727.07        71.53387
727.49        71.70295
727.91        71.93508
728.33        72.19868
728.75         72.4383
729.17        72.62273
729.59         72.7773
730.01        72.84247
730.43        72.72235
730.85        72.43372
731.27        72.02863
731.69         71.6732
732.10        71.62865
732.52        71.94075
732.94        72.52679
733.36        73.23363
733.78        73.77065
734.20        74.03088
734.62        74.10002
735.04        74.04315
735.46        73.96675
735.88         73.9355
736.30         73.8993
736.72        73.86469
737.13        73.97036
737.55        74.06937
737.97        73.87049
738.39        73.47576
738.81        73.12077
739.23        73.00114
739.65         73.5797
740.06        74.53876
740.48        74.92573
740.90        74.62965
741.32        74.14694
741.74        73.71511
742.16        73.51839
742.57        73.66116
742.99        74.08201
743.41         74.6184
743.83        74.94419
744.25        75.00836
744.67        75.01595
745.08        75.02257
745.50        74.98595
745.92        74.94933
746.34        74.94419
746.75        74.99288
747.17        75.08778
747.59        75.21886
748.01        75.43957
748.42        75.72298
748.84        75.73596
749.26        75.83007
749.68        75.80925
750.09        75.77296
750.51        75.69568
750.93        75.58453
751.35        75.46995
751.76        75.40112
752.18        75.42829
752.60        75.53873
753.01        75.79151
753.43        76.12582
753.85        76.23797
754.27        76.06087
754.68        76.58397
755.10        76.22949
755.52        76.31259
755.93        76.35451
756.35        76.34199
756.77        76.35319
757.18        76.53333
757.60        76.90472
758.02        77.57691
758.43        78.15794
758.85        78.20911
759.26        76.49947
759.68        76.20851
760.10        76.91694
760.51        77.22416
760.93        77.03325
761.34         77.1282
761.76        77.44517
762.18         77.4949
762.59        77.29385
763.01        76.96291
763.42        76.62671
763.84        76.46041
764.26        76.54604
764.67        76.58212
765.09        76.61274
765.50        77.15963
765.92        78.13042
766.33        77.93031
766.75        78.17726
767.16        77.88012
767.58        77.64851
768.00        77.25085
768.41        76.90672
768.83        77.26705
769.24        78.02564
769.66        78.18256
770.07        77.71293
770.49        77.13615
770.90        76.73402
771.32        77.10072
771.73        78.06983
772.15        78.45182
772.56        78.15997
772.97        78.18763
773.39        78.09899
773.80        78.26012
774.22        78.49345
774.63        78.88775
775.05        79.25822
775.46        79.40675
775.88        79.26404
776.29        78.94305
776.70        78.55897
777.12        78.32892
777.53         78.3115
777.95        78.40347
778.36        78.61109
778.77        78.85662
779.19         79.0948
779.60        79.60961
780.02        80.17432
780.43        80.02419
780.84        79.37871
781.26        79.21562
781.67        79.62248
782.09        80.37872
782.50         81.1198
782.91          80.811
783.33        79.63651
783.74         79.0925
784.15        79.28614
784.57        79.32964
784.98        79.17609
785.39        79.14454
785.81        79.22009
786.22        79.52872
786.63        79.66869
787.04        79.98317
787.46        80.33389
787.87        80.69349
788.28        81.02145
788.70        81.24136
789.11        81.33286
789.52        81.37415
789.93        81.36642
790.35        81.22865
790.76        81.02509
791.17        80.92603
791.58        80.99175
792.00        81.09032
792.41        81.22027
792.82        81.60947
793.23        82.12241
793.65        82.04581
794.06         81.5622
794.47        81.74299
794.88        82.43198
795.29        82.56721
795.71        82.08132
796.12        81.60257
796.53        81.30814
796.94        81.24178
797.35        81.47061
797.76        81.98618
798.18        82.57915
798.59        82.95362
799.00         83.0029
799.41        82.80744
799.82        82.50175
800.23        82.32842
800.64        82.36314
801.06        82.49694
801.47        82.70555
801.88        82.86942
802.29        82.93674
802.70        82.92764
803.11        82.86949
803.52        82.80051
803.93        82.76444
804.34        82.77584
804.75        82.77174
805.17        82.78865
805.58         82.8834
805.99        82.60656
806.40        82.18741
806.81        83.01277
807.22        84.64091
807.63        84.63512
808.04        83.15979
808.45        82.65629
808.86        83.30096
809.27        83.67284
809.68        83.61946
810.09        83.60262
810.50        83.59958
810.91        83.48483
811.32        83.34428
811.73        83.31274
812.14        83.41408
812.55         83.6339
812.96        83.87182
813.37        83.92503
813.78        83.75452
814.19        83.44849
814.60        83.12526
815.01        82.94542
815.42        82.94643
815.83        83.07159
816.24        83.28222
816.65        83.49689
817.05        83.66828
817.46        83.78261
817.87        83.83645
818.28        83.76192
818.69        83.56769
819.10        83.27389
819.51        82.99106
819.92        82.92989
820.33        83.13889
820.74         83.5343
821.14        84.00836
821.55        84.40038
821.96        84.64589
822.37            84.8
822.78        84.81929
823.19         84.6409
823.60        84.27827
824.00        83.74153
824.41        83.20131
824.82         82.9607
825.23        83.07259
825.64         83.4821
826.04        83.97349
826.45        84.05352
826.86        83.64359
827.27        82.89462
827.68        82.10056
828.08        81.75233
828.49        81.92974
828.90        82.52603
829.31        83.34425
829.72        84.03867
830.12         84.5111
830.53        84.76141
830.94        84.92578
831.35        85.18501
831.75        85.60516
832.16        86.01904
832.57        86.32962
832.97        86.34927
833.38        86.05473
833.79        85.59481
834.20         85.0856
834.60        84.65785
835.01        84.40231
835.42        84.24869
835.82        84.30943
836.23        84.68716
836.64        85.38416
837.04        86.38834
837.45        87.30917
837.86        87.66788
838.26        87.34631
838.67        86.49395
839.08        85.45206
839.48        84.74117
839.89        84.54888
840.29        84.71464
840.70        85.08871
841.11         85.4389
841.51        85.69464
841.92        85.89461
842.33         86.0439
842.73        86.12041
843.14        86.07446
843.54        85.93626
843.95        85.75734
844.35        85.70938
844.76        85.79652
845.17        85.95193
845.57        86.13618
845.98        86.24062
846.38        86.24727
846.79        86.18802
847.19        85.99315
847.60        85.48554
848.00        84.71555
848.41        83.78537
848.81        82.98541
849.22        82.74321
849.62        83.17519
850.03        84.09666
850.43        85.32008
850.84        86.25261
851.24         86.7467
851.65        86.81725
852.05        86.58413
852.46        86.20806
852.86        85.77565
853.27        85.35416
853.67        84.87922
854.07        84.47833
854.48        84.10744
854.88        83.79395
855.29        83.54763
855.69        83.63036
856.10         83.9561
856.50        84.55685
856.90        85.11068
857.31         85.1936
857.71        84.78275
858.12        83.95903
858.52        83.07068
858.92        82.64645
859.33        82.82063
859.73        83.49628
860.13        84.40221
860.54        85.09721
860.94        85.48206
861.34        85.57032
861.75        85.43303
862.15        85.27641
862.55        85.11843
862.96        84.92387
863.36         84.5356
863.76        83.74328
864.17         82.6038
864.57         81.2915
864.97         80.1244
865.38        79.50058
865.78        79.54254
866.18        80.10114
866.58        81.04304
866.99        82.03459
867.39        82.92891
867.79        83.71748
868.19        84.20756
868.60        84.14282
869.00        83.53548
869.40        82.44601
869.80        81.30518
870.21        80.87099
870.61        81.37416
871.01        82.56242
871.41        83.93095
871.81        84.65291
872.22        84.50204
872.62        83.72688
873.02        82.67577
873.42        81.93689
873.82        81.71645
874.22          81.862
874.63        82.16558
875.03        82.31254
875.43        82.22765
875.83        82.02209
876.23        81.91967
876.63        82.26479
877.03        83.09225
877.44        84.19705
877.84        85.28532
878.24        85.78502
878.64        85.57873
879.04        84.89696
879.44        84.02045
879.84        83.36366
880.24         83.0428
880.64        82.89935
881.04         82.9627
881.44        83.27245
881.84        83.78875
882.24        84.55485
882.65        85.20256
883.05        85.23281
883.45         84.5174
883.85         83.2715
884.25         82.0732
884.65        81.80753
885.05        82.62064
885.45         84.1718
885.85        85.99744
886.25        87.29079
886.65        87.73913
887.05        87.59903
887.45        86.88343
887.85         85.6582
888.25         84.1487
888.65        82.44415
889.04        80.98238
889.44        80.43079
889.84        80.80502
890.24        81.99377
890.64        83.59022
891.04        84.67958
891.44         84.9054
891.84        84.50415
892.24        83.87666
892.64        83.61144
893.04        83.83682
893.44        84.34637
893.83        84.98122
894.23        85.38802
894.63        85.49462
895.03        85.45145
895.43          85.354
895.83        85.32373
896.23         85.4004
896.63         85.4988
897.02        85.63321
897.42        85.89912
897.82        86.26146
898.22        86.72249
898.62        87.08062
899.01        87.00864
899.41         86.4489
899.81        85.51833
900.21        84.55591
900.61        84.08332
901.00        84.21143
901.40        84.80289
901.80          85.505
902.20        85.73042
902.59        85.32745
902.99        84.46885
903.39        83.51531
903.79        83.00504
904.18        83.05084
904.58        83.51376
904.98        84.04516
905.38        84.12045
905.77        83.61412
906.17        82.71192
906.57        81.78775
906.96        81.45619
907.36        81.81939
907.76        82.71063
908.15        83.73289
908.55         84.0853
908.95        83.64835
909.34        82.67496
909.74        81.69917
910.14        81.39841
910.53        81.97173
910.93        83.14006
911.33         84.6321
911.72        86.04282
912.12        87.10073
912.52        87.91499
912.91        88.50346
913.31        88.86249
913.70        89.01317
914.10        88.88749
914.49        88.46334
914.89        87.73386
915.29        86.76995
915.68        85.65585
916.08        84.64239
916.47         83.9469
916.87        83.68633
917.26         83.7902
917.66        84.14594
918.05         84.5763
918.45         84.9455
918.84        85.33676
919.24        85.67042
919.64        85.99003
920.03          86.284
920.42        86.45467
920.82        86.53575
921.21        86.50436
921.61        86.38127
922.00        86.21904
922.40        85.98998
922.79        85.74541
923.19        85.48723
923.58        85.24576
923.98        85.09192
924.37         85.1353
924.77        85.36566
925.16        85.73527
925.55        86.10578
925.95        86.24747
926.34        86.12788
926.74        85.81328
927.13        85.38429
927.52        84.94275
927.92        84.55714
928.31        84.18147
928.70        83.91737
929.10        83.91233
929.49        84.16931
929.89        84.60188
930.28        85.03745
930.67        85.06641
931.07        84.62003
931.46        83.89587
931.85        83.07947
932.24        82.45212
932.64        82.12998
933.03        82.03959
933.42        82.28825
933.82        83.02824
934.21        84.23074
934.60        85.73467
934.99        87.21778
935.39        88.12843
935.78        88.36469
936.17         88.0357
936.56        87.15266
936.96        85.86767
937.35         84.3933
937.74        82.80111
938.13        81.54726
938.53        81.17193
938.92        81.68261
939.31         83.0208
939.70        84.67141
940.09        85.59283
940.49        85.43849
940.88        84.47072
941.27        83.28351
941.66        82.80582
942.05         83.2495
942.44        84.38735
942.84        85.64745
943.23        86.10688
943.62        85.45365
944.01        84.01962
944.40        82.57253
944.79        82.21812
945.18          83.168
945.57        85.09013
945.97         87.1374
946.36        88.10164
946.75        87.51466
947.14        85.79001
947.53         83.7845
947.92        82.78049
948.31         83.1139
948.70        84.45729
949.09        86.11693
949.48        86.85126
949.87        86.29498
950.26        84.84633
950.65        83.31467
951.04        82.81344
951.43        83.56334
951.82         85.2598
952.21         87.1042
952.60        87.65737
952.99        86.56233
953.38        84.34921
953.77        82.09489
954.16        81.21409
954.55        81.98927
954.94        84.11642
955.33        86.74233
955.72        87.99564
956.11        87.20438
956.50        84.99191
956.89         82.5979
957.28        81.64516
957.66        82.51227
958.05         84.6601
958.44        87.22901
958.83        88.49367
959.22        87.87513
959.61        85.99489
960.00        83.85245
960.39        82.69794
960.78        82.75574
961.16        83.68997
961.55        84.83431
961.94        85.04617
962.33        84.00085
962.72        82.26651
963.11        80.51141
963.49        79.58363
963.88        79.67846
964.27         80.4694
964.66        81.76675
965.04        83.30763
965.43         84.7593
965.82        86.18423
966.21        87.28453
966.60         87.5304
966.98        86.88239
967.37        85.61394
967.76        84.11407
968.15        82.90674
968.53        82.12848
968.92        81.58632
969.31        81.50323
969.69        82.28152
970.08        83.84034
970.47        86.18138
970.86         88.3982
971.24        88.93378
971.63         87.4507
972.02        84.48753
972.40        81.33193
972.79        80.01513
973.17         80.9185
973.56         83.3324
973.95        86.32679
974.33        88.11702
974.72        88.01552
975.11        86.65714
975.49        84.78835
975.88        83.82246
976.26        84.12633
976.65         85.1581
977.04        86.52811
977.42        87.56358
977.81        87.82134
978.19        87.65658
978.58        87.20859
978.96        86.56396
979.35        85.88695
979.74         85.1756
980.12        84.66177
980.51        84.70224
980.89        85.43042
981.28        86.53626
981.66        88.03303
982.05        89.59106
982.43        91.15237
982.82        92.71424
983.20         93.6952
983.59        93.00226
983.97        90.60204
984.35        86.88027
984.74        83.36178
985.12        82.13491
985.51        83.48668
985.89        86.95405
986.28        90.86266
986.66        92.74202
987.04        91.72449
987.43        88.51552
987.81        84.56802
988.20        82.72112
988.58        83.73735
988.96        86.81384
989.35        90.17259
989.73        91.16305
990.12        89.04836
990.50        84.86134
990.88        80.09653
991.27        77.15332
991.65        76.68062
992.03        77.93596
992.42        80.10221
992.80        82.24144
993.18        83.86961
993.56        85.36269
993.95        86.51858
994.33        87.10168
994.71        86.98928
995.10        86.20752
995.48        85.23158
995.86        84.95564
996.24        85.57237
996.63         86.7734
997.01        88.33382
997.39        89.50054
997.77        89.96822
998.15        90.00844
998.54        89.60285
998.92        88.73911
999.30        87.49255
999.68        85.82504
1000.06        84.28824
1000.45        83.88781
1000.83        84.94679
1001.21        87.19779
1001.59        89.80016
1001.97        91.31927
1002.35           91.36
1002.73        90.30621
1003.12         88.7804
1003.50         87.7177
1003.88         87.4631
1004.26        87.75173
1004.64        88.33331
1005.02        88.79693
1005.40        88.98698
1005.78        89.04061
1006.16        89.12891
1006.54        89.46834
1006.92        90.08838
1007.30        90.90379
1007.69        91.56889
1008.07        91.61871
1008.45        90.81734
1008.83        89.36739
1009.21        87.74754
1009.59         86.7529
1009.97         86.6177
1010.35        87.07574
1010.73        87.91727
1011.11        88.76893
1011.49        89.41322
1011.86        90.01064
1012.24        90.16126
1012.62          89.436
1013.00        87.78887
1013.38        85.26536
1013.76        82.43065
1014.14        80.61903
1014.52        80.32181
1014.90        81.16929
1015.28        82.49007
1015.66        83.11515
1016.04        82.68449
1016.41        81.70454
1016.79        80.09926
1017.17         78.0462
1017.55        76.13762
1017.93        74.54995
1018.31        73.84389
1018.69        74.67567
1019.06        77.24225
1019.44        81.66235
1019.82        87.85371
1020.20        93.23464
1020.58        95.17206
1020.95        93.65144
1021.33        90.47237
1021.71        87.63139
1022.09         85.3457
1022.46        82.93285
1022.84        79.98493
1023.22        75.90417
1023.60        71.64117
1023.97        68.32603
1024.35        66.83945
1024.73        67.63692
