SpectraSmart Spectrum 2.9.0.0
--------- Device Information -----------
Spectrum Name :  反射率_0
Saving Time :  2024/04/30 01:02:50
Spectro-Module Model Name : SE2030-DUVN
Spectro-Module Serial Number : OS361AC55029948
Wavelength Start : 200
Wavelength End : 1025
Wavelength Unit : Wavelength(nm)
Spectrum Unit : Reflectance(%)
-----------Spectrum Setting ------------
Integration Time : 20ms
Average : 10
Boxcar : 0
Background removal :  enabled
linearity correction :  enabled
SC :  disabled
Intensity correction :  disabled
DWT denoise :  enabled
savitzky-golay :  disabled
FFT :  disabled
Running average :  disabled
Kalman :  disabled
High pass :  disabled
---------------BEGIN--------------------
Wavelength(nm)             Reflectance(%)
200.29               0
200.75        16.96075
201.21        10.44722
201.67         1.99047
202.13       -7.517571
202.58       -17.39025
203.04        -27.0969
203.50       -33.70015
203.96       -31.33031
204.42       -18.31462
204.88        3.084409
205.34        24.98803
205.80        35.33041
206.26        33.64257
206.72        26.34025
207.18        18.23978
207.64        12.28485
208.10        8.207174
208.55        4.449444
209.01        1.454218
209.47        1.230941
209.93        3.796066
210.39         8.34744
210.85        12.24265
211.31        13.06967
211.77        10.72381
212.23        4.872342
212.69       -2.557913
213.14        -2.57444
213.60        7.182298
214.06        20.45121
214.52        30.86229
214.98        34.98575
215.44        34.10189
215.90        30.10601
216.36        24.96797
216.81         22.3779
217.27        24.49166
217.73        30.75221
218.19        41.73848
218.65        54.22337
219.11         62.6587
219.57        65.98897
220.02        65.11444
220.48        61.96706
220.94        56.46098
221.40        47.18664
221.86        34.08188
222.32        22.90756
222.77        18.88099
223.23        20.57229
223.69        23.31523
224.15          23.711
224.61        21.79269
225.06         18.1976
225.52        15.42303
225.98        17.87941
226.44        24.98092
226.90        33.14687
227.36        39.21476
227.81        41.41204
228.27        40.34412
228.73        36.85898
229.19        32.53766
229.65        30.74114
230.10        32.24624
230.56         35.3894
231.02        38.33006
231.48        39.52067
231.93        38.96165
232.39        37.34474
232.85        35.51333
233.31        35.00428
233.77        36.26656
234.22        38.88021
234.68        41.74128
235.14        42.86791
235.60        41.76052
236.05        39.14924
236.51        36.39339
236.97        35.17294
237.43         35.9157
237.88        38.47107
238.34         42.2927
238.80        45.67097
239.26        47.10445
239.71        46.91255
240.17        45.61086
240.63        44.28094
241.08        43.18173
241.54        41.67962
242.00        39.55893
242.46        37.58012
242.91        37.16626
243.37        38.64219
243.83        41.03143
244.28         42.7065
244.74        43.23868
245.20         43.1235
245.66        42.16323
246.11         40.1251
246.57        37.41256
247.03         33.6403
247.48        30.57279
247.94         31.3581
248.40        35.52426
248.85        40.58001
249.31        44.66827
249.77        46.76266
250.22        47.37883
250.68        46.83257
251.14        45.88049
251.59        47.37719
252.05        51.35514
252.51        54.92739
252.96        56.57856
253.42        56.66026
253.88        55.49847
254.33        53.33234
254.79        51.17224
255.25        50.34361
255.70        50.93284
256.16        52.37636
256.62        53.80784
257.07        54.72698
257.53        55.53428
257.99        56.21746
258.44        56.65102
258.90        57.22741
259.35        57.47112
259.81        57.58957
260.27        57.41123
260.72        56.84115
261.18         56.1221
261.63        55.11702
262.09        54.02706
262.55        52.79354
263.00        51.46748
263.46        50.30738
263.91        49.23172
264.37        48.41423
264.83        47.76604
265.28        47.18613
265.74        46.80929
266.19        46.61102
266.65        46.61406
267.11        46.72249
267.56        46.77575
268.02        46.56224
268.47        46.01763
268.93        45.22164
269.38        44.25305
269.84        43.37631
270.30        42.67062
270.75        42.08014
271.21        41.57373
271.66        41.05228
272.12        40.48815
272.57        39.89433
273.03        39.28946
273.48        38.60881
273.94        37.91896
274.39        37.19089
274.85        36.52638
275.31        35.98495
275.76        35.54242
276.22        35.19671
276.67         34.8499
277.13        34.46478
277.58        33.98233
278.04        33.48019
278.49        32.92913
278.95        32.38919
279.40        31.83511
279.86        31.32862
280.31        30.85911
280.77        30.53734
281.22        30.32429
281.68         30.2149
282.13        30.14503
282.59        30.08368
283.04        29.98321
283.50        29.85055
283.95         29.6413
284.41        29.31398
284.86        28.86592
285.32        28.36864
285.77        27.84774
286.22        27.41216
286.68        27.10021
287.13        26.85322
287.59        26.69997
288.04        26.61839
288.50        26.60667
288.95        26.62972
289.41        26.64735
289.86        26.55579
290.32        26.36543
290.77        26.10373
291.22        25.82692
291.68        25.62429
292.13        25.51779
292.59        25.50636
293.04        25.61709
293.50        25.91702
293.95        26.39198
294.40        27.02066
294.86        27.68075
295.31        28.19658
295.77        28.51973
296.22         28.6819
296.68        28.79665
297.13        29.02503
297.58        29.41507
298.04        29.89149
298.49        30.36596
298.95        30.69558
299.40        30.84907
299.85        30.88894
300.31        30.89042
300.76        30.90894
301.21        30.99236
301.67        31.11745
302.12        31.25414
302.58        31.49751
303.03        31.83349
303.48        32.11498
303.94        32.26126
304.39        32.85462
304.84         32.6962
305.30        32.76225
305.75        32.75775
306.20        32.84514
306.66        33.04594
307.11        33.30989
307.57        33.56674
308.02        33.63995
308.47        33.51627
308.93         33.2537
309.38        32.94361
309.83        32.77752
310.29         32.7947
310.74        32.93494
311.19        33.07385
311.65        33.01218
312.10        32.71253
312.55        32.25075
313.00        31.77602
313.46        31.51637
313.91         31.5095
314.36        31.68025
314.82        31.89536
315.27        31.96142
315.72        31.81217
316.18        31.51935
316.63        31.14837
317.08        30.81449
317.53        30.56356
317.99        30.36621
318.44        30.20637
318.89        30.06631
319.35        29.93558
319.80        29.82459
320.25        29.74188
320.70        29.69458
321.16        29.66672
321.61        29.65953
322.06          29.628
322.51        29.51353
322.97        29.30656
323.42        29.03392
323.87        28.74097
324.32        28.50461
324.78        28.33781
325.23        28.23286
325.68        28.15756
326.13        28.06113
326.59         27.9198
327.04        27.75773
327.49        27.58035
327.94        27.40825
328.39        27.24092
328.85        27.05382
329.30        26.85003
329.75        26.59739
330.20        26.30276
330.66        25.99313
331.11        25.69756
331.56        25.43256
332.01        25.20977
332.46          25.019
332.92        24.88775
333.37        24.88935
333.82        25.01616
334.27        25.24133
334.72        25.46039
335.17        25.50286
335.63        25.32478
336.08        24.97919
336.53        24.56235
336.98        24.26028
337.43        24.13534
337.88        24.13866
338.34        24.21167
338.79        24.27707
339.24        24.29653
339.69        24.30442
340.14         24.2997
340.59        24.27593
341.05        24.23832
341.50        24.17481
341.95        24.10963
342.40        24.09607
342.85        24.13673
343.30        24.20787
343.75         24.2652
344.20        24.23653
344.66        24.11852
345.11        23.94007
345.56        23.72729
346.01        23.51875
346.46        23.34171
346.91        23.18586
347.36         23.0956
347.81         23.1384
348.26         23.3087
348.72        23.57667
349.17        23.84232
349.62        23.93501
350.07        23.81421
350.52        23.53662
350.97        23.19671
351.42        22.93945
351.87        22.81234
352.32        22.78286
352.77        22.82368
353.22        22.88721
353.67        22.95156
354.13        23.02654
354.58        23.11559
355.03        23.22225
355.48        23.33319
355.93        23.42592
356.38        23.46352
356.83        23.39983
357.28        23.23254
357.73        22.98705
358.18        22.70408
358.63        22.44681
359.08        22.23831
359.53         22.0658
359.98        21.92906
360.43        21.82236
360.88          21.739
361.33        21.68513
361.78        21.63527
362.23         21.5458
362.68        21.41151
363.13        21.24413
363.58        21.07995
364.03        20.98041
364.48        20.95505
364.93        20.97651
365.38        21.01239
365.83        21.01185
366.28        20.95706
366.73         20.8654
367.18         20.7369
367.63        20.57104
368.08        20.37729
368.53        20.15929
368.98        19.95062
369.43        19.80559
369.88        19.73759
370.33         19.7357
370.78         19.7639
371.23        19.76023
371.68        19.70242
372.13        19.59755
372.58         19.4721
373.03        19.37117
373.48        19.30383
373.93        19.25741
374.38         19.1911
374.83        19.04214
375.28         18.8086
375.72        18.51522
376.17        18.24657
376.62        18.08605
377.07        18.04345
377.52        18.08046
377.97        18.14344
378.42        18.14374
378.87        18.05732
379.32        17.92135
379.77         17.7523
380.22        17.57246
380.67         17.3954
381.11        17.20827
381.56        17.05487
382.01        17.00631
382.46        17.07051
382.91        17.22832
383.36        17.39379
383.81        17.43387
384.26        17.32305
384.71         17.0951
385.15        16.83613
385.60        16.71105
386.05        16.74022
386.50        16.87022
386.95        17.00642
387.40        17.00133
387.85        16.83258
388.29        16.55591
388.74        16.27752
389.19        16.08341
389.64        15.99578
390.09        15.97434
390.54        16.00504
390.98        16.06446
391.43         16.1367
391.88        16.22378
392.33        16.28416
392.78        16.27405
393.23        16.19503
393.67        16.02488
394.12        15.82913
394.57        15.80894
395.02        15.74751
395.47        15.80185
395.91        15.86593
396.36        15.86551
396.81        15.78656
397.26        15.65916
397.71        15.51043
398.15        15.37078
398.60        15.27548
399.05         15.1826
399.50        15.09307
399.95         15.0746
400.39        15.04636
400.84        15.00283
401.29        14.92944
401.74        14.89122
402.18        14.89286
402.63        14.88743
403.08        14.87807
403.53        14.88273
403.97        14.89837
404.42        14.91787
404.87        14.91933
405.32        14.86847
405.76        14.75849
406.21        14.60986
406.66        14.45776
407.11        14.35905
407.55        14.33257
408.00        14.36257
408.45        14.41479
408.90        14.42309
409.34        14.36788
409.79        14.26654
410.24        14.17166
410.68        14.16275
411.13        14.25395
411.58        14.41869
412.03        14.58148
412.47        14.61815
412.92        14.49191
413.37        14.25504
413.81        13.99472
414.26        13.86307
414.71        13.87802
415.15        13.99869
415.60         14.1457
416.05        14.20332
416.49        14.13809
416.94         13.9944
417.39        13.81834
417.83        13.67833
418.28        13.60403
418.73        13.56769
419.17        13.56846
419.62        13.60775
420.07        13.67435
420.51        13.76466
420.96        13.84894
421.41        13.87082
421.85        13.81804
422.30        13.72382
422.74        13.60976
423.19        13.53307
423.64        13.50136
424.08        13.50395
424.53        13.52898
424.98        13.58103
425.42        13.65389
425.87        13.73438
426.31         13.7895
426.76        13.78913
427.21        13.68161
427.65        13.50802
428.10        13.30808
428.54        13.12804
428.99        13.00336
429.44         13.0062
429.88        13.08514
430.33        12.99336
430.77        12.80697
431.22        12.95261
431.66        13.37624
432.11        13.56401
432.56        13.43924
433.00        13.30547
433.45        13.19051
433.89        12.86807
434.34        12.51488
434.78        12.59979
435.23        13.00932
435.67        13.15017
436.12        12.97705
436.57        12.81079
437.01        12.72056
437.46        12.68939
437.90        12.73688
438.35        12.85553
438.79        12.98886
439.24        13.02646
439.68        12.96736
440.13        12.89805
440.57        12.82876
441.02        12.78327
441.46         12.7753
441.91        12.70206
442.35        12.59979
442.80        12.79718
443.24        13.17054
443.69        13.09649
444.13        12.64063
444.58        12.43884
445.02        12.50115
445.47        12.49627
445.91        12.41263
446.36        12.39547
446.80        12.43923
447.24        12.51072
447.69        12.59048
448.13        12.64755
448.58        12.67404
449.02        12.67836
449.47        12.67772
449.91        12.69273
450.36        12.72906
450.80        12.77597
451.25        12.81912
451.69        12.83595
452.13        12.81877
452.58        12.78226
453.02        12.73101
453.47         12.6718
453.91        12.60633
454.36        12.57061
454.80        12.50782
455.24        12.47118
455.69         12.4469
456.13        12.43262
456.58        12.43008
457.02        12.42768
457.46        12.42692
457.91        12.42966
458.35        12.43375
458.79        12.44078
459.24        12.45936
459.68        12.49174
460.13          12.543
460.57        12.56294
461.01        12.64555
461.46        12.66062
461.90        12.65462
462.34        12.77123
462.79        12.95217
463.23        12.92574
463.68        12.71799
464.12        12.60798
464.56        12.61197
465.01        12.59506
465.45        12.55301
465.89        12.53447
466.34        12.55932
466.78        12.67288
467.22        12.86142
467.67        12.89062
468.11        12.75077
468.55        12.52881
468.99        12.30936
469.44        12.19177
469.88        12.20389
470.32        12.32073
470.77        12.47721
471.21        12.57899
471.65        12.59144
472.10        12.55164
472.54        12.49274
472.98        12.48072
473.42        12.53016
473.87        12.61126
474.31        12.69703
474.75        12.75119
475.20        12.76719
475.64        12.75714
476.08         12.7314
476.52         12.7003
476.97        12.67223
477.41        12.64295
477.85        12.62849
478.29        12.65373
478.74        12.72387
479.18        12.82088
479.62        12.91787
480.06        13.00479
480.50        13.07842
480.95        13.02374
481.39        13.05258
481.83        13.06212
482.27         13.1294
482.72         13.1362
483.16        13.24924
483.60        13.30259
484.04        13.34005
484.48         13.3482
484.93        13.37126
485.37        13.50663
485.81        13.64629
486.25        13.84391
486.69        13.29018
487.14        13.46194
487.58        13.91855
488.02        14.08653
488.46        14.28187
488.90        14.52432
489.34        14.03899
489.79        14.01466
490.23        14.16729
490.67        14.32922
491.11         14.4287
491.55        14.39177
491.99        14.29002
492.43        14.37112
492.88        14.64606
493.32        14.93781
493.76        15.17734
494.20        15.36465
494.64        15.48466
495.08         15.5284
495.52        15.52478
495.96        15.56852
496.41        15.68646
496.85        15.76195
497.29        15.79577
497.73        16.07544
498.17        16.33724
498.61        16.34384
499.05        16.10063
499.49        16.03857
499.93        16.20123
500.37        16.42001
500.82        16.62947
501.26        16.76582
501.70        16.80617
502.14        16.79741
502.58         16.7907
503.02        16.84549
503.46        16.97895
503.90        17.17149
504.34        17.38006
504.78        17.53158
505.22        17.60351
505.66        17.61533
506.10        17.58871
506.54        17.57884
506.98        17.60456
507.42        17.61491
507.86        17.59161
508.30        17.70573
508.74        17.63184
509.18        17.64025
509.62        17.64811
510.06        17.68114
510.50        17.74162
510.94        17.82737
511.38        17.92497
511.82        18.00354
512.26        18.05438
512.70        18.08128
513.14        18.10223
513.58         18.1471
514.02        18.22107
514.46        18.31453
514.90        18.40028
515.34        18.43483
515.78        18.40963
516.22        18.33953
516.66        18.25885
517.10        18.22087
517.54        18.23685
517.98        18.28893
518.42        18.34605
518.86        18.35769
519.30        18.31143
519.74        18.22663
520.18        18.12624
520.62        18.04335
521.06        17.99085
521.50        17.96193
521.93        17.95278
522.37        17.95185
522.81        17.95648
523.25        17.96738
523.69        17.98796
524.13        18.02316
524.57        18.06862
525.01        18.11582
525.45        18.14551
525.89        18.12957
526.32        18.06121
526.76        17.95635
527.20        17.83402
527.64        17.72446
528.08        17.63811
528.52        17.56941
528.96        17.51557
529.40        17.47005
529.83        17.42925
530.27        17.39918
530.71        17.37399
531.15        17.34591
531.59         17.3113
532.03        17.26653
532.46        17.21648
532.90        17.17634
533.34        17.14721
533.78        17.12851
534.22        17.10378
534.66         17.0467
535.09        16.95492
535.53        16.84503
535.97        16.74647
536.41        16.71113
536.85        16.74795
537.28        16.83748
537.72        16.94426
538.16        17.01486
538.60         17.0331
539.04        17.01736
539.47        16.97843
539.91        16.95072
540.35        16.94233
540.79        16.95137
541.22        16.98192
541.66        17.04512
542.10        17.13803
542.54         17.2551
542.97        17.39355
543.41        17.54715
543.85        17.70978
544.29        17.88603
544.72          18.042
545.16         18.1403
545.60        18.17721
546.04        18.15746
546.47         18.1443
546.91        18.26773
547.35        18.53107
547.79        18.83744
548.22        19.11206
548.66        19.34377
549.10        19.51813
549.53        19.56205
549.97        19.49194
550.41        19.73594
550.84        19.72457
551.28         19.8804
551.72        20.00822
552.15        20.25631
552.59        20.36065
553.03        20.52979
553.46         20.6838
553.90        20.80806
554.34        20.89612
554.77        20.97531
555.21        21.04743
555.65        21.05869
556.08         21.0308
556.52        21.07819
556.96        21.20538
557.39        21.33316
557.83        21.44444
558.27         21.6622
558.70        21.74059
559.14        21.89538
559.57        22.02892
560.01        22.12253
560.45        22.17117
560.88        22.11132
561.32        22.09286
561.75        22.11774
562.19        22.21561
562.63        22.27542
563.06        22.29095
563.50        22.33842
563.93        22.41116
564.37        22.48653
564.80        22.55699
565.24        22.63242
565.68        22.71214
566.11        22.81104
566.55        22.92955
566.98        23.02838
567.42        23.13244
567.85        23.23632
568.29        23.34152
568.72        23.51554
569.16        23.78879
569.60        23.69629
570.03         23.9674
570.47        24.11302
570.90        24.23654
571.34        24.29817
571.77        24.45179
572.21        24.55159
572.64        24.65235
573.08        24.76508
573.51        24.91019
573.95        25.03573
574.38        25.33542
574.82         25.2046
575.25         25.3928
575.69        25.23516
576.12        24.98224
576.56        25.16021
576.99        25.38558
577.42        25.21404
577.86        25.14775
578.29        25.08146
578.73        25.19621
579.16         25.1935
579.60         25.1377
580.03        25.02443
580.47         24.9477
580.90        24.90145
581.33        24.88677
581.77        24.76361
582.20        24.62091
582.64        24.46357
583.07        24.35998
583.51        24.24583
583.94        24.19511
584.37        24.07968
584.81        23.90814
585.24         23.8836
585.68        23.88322
586.11        23.67523
586.54        23.41457
586.98        23.52169
587.41         24.0497
587.85        23.80486
588.28        23.36411
588.71         23.7419
589.15        23.50686
589.58        23.33983
590.01        23.44524
590.45        23.31821
590.88        23.22372
591.31        23.25528
591.75        23.38768
592.18        23.56017
592.61        23.73503
593.05         23.4823
593.48        23.53283
593.91        23.62476
594.35        23.42451
594.78        23.54164
595.21        23.78706
595.65         23.8396
596.08        23.73793
596.51        23.96491
596.94         24.4826
597.38        24.77333
597.81        24.74889
598.24        25.04508
598.68        25.27064
599.11        25.20972
599.54        25.55042
599.97        25.75245
600.41         25.9412
600.84         26.2438
601.27         26.5679
601.70        27.02711
602.14        27.52601
602.57        27.80878
603.00         27.8935
603.43        28.17916
603.87        28.61025
604.30         28.9935
604.73        29.31668
605.16        29.73917
605.60        30.21892
606.03        30.56743
606.46        30.74586
606.89        31.10576
607.32        31.44379
607.76        31.78065
608.19        32.05862
608.62        32.36333
609.05        32.75267
609.48        33.06737
609.92        33.33608
610.35        33.48597
610.78        34.02277
611.21        34.03545
611.64        34.46098
612.07        34.68354
612.50        34.93447
612.94        35.21999
613.37        35.74462
613.80        35.71164
614.23        36.33618
614.66        36.46948
615.09        36.52069
615.52        36.71377
615.96        37.03091
616.39        37.33722
616.82        37.29121
617.25        37.57009
617.68        37.72248
618.11        37.97314
618.54        38.19588
618.97        38.40347
619.40        38.59764
619.84        38.77866
620.27        38.96403
620.70        39.14888
621.13         39.3125
621.56        39.36479
621.99         39.3496
622.42        39.28934
622.85        39.77465
623.28        39.49801
623.71        40.00534
624.14        39.33653
624.57        39.70007
625.00        39.57215
625.43        39.48786
625.86        39.40145
626.29        39.31614
626.72         39.2364
627.15        39.14209
627.58        39.08393
628.01        39.00595
628.44        38.84713
628.87        38.37395
629.30        38.20694
629.73        38.24749
630.16        38.14156
630.59        37.86369
631.02         37.7138
631.45        37.50526
631.88        37.23967
632.31        36.85883
632.74        36.40664
633.17        35.91934
633.60        35.46209
634.03        35.05775
634.46        34.68518
634.89        34.33012
635.32        33.97218
635.75        33.60261
636.18        33.22847
636.61        32.85468
637.04        32.49175
637.47        32.14974
637.89        31.80386
638.32         31.4391
638.75        31.12927
639.18        30.89207
639.61        30.41151
640.04        30.24963
640.47        29.97733
640.90        29.75993
641.33        29.58733
641.76        29.44288
642.18        29.29139
642.61         29.1148
643.04           28.93
643.47        28.78085
643.90        28.72706
644.33        28.77453
644.76        28.93946
645.18        29.14802
645.61        29.19865
646.04        29.04467
646.47        29.05834
646.90        29.22971
647.33        29.34471
647.75        29.40314
648.18        29.55429
648.61        29.80554
649.04        30.08581
649.47        30.39457
649.89        30.79148
650.32        31.23707
650.75        31.62229
651.18         31.9583
651.61        32.35292
652.03        32.81592
652.46        33.33351
652.89        33.84432
653.32        34.20472
653.74        34.46405
654.17        34.85749
654.60        34.94491
655.03         36.1913
655.46        35.62407
655.88        37.09884
656.31        38.77613
656.74        39.01156
657.16        38.33334
657.59        37.76433
658.02        38.04239
658.45        39.13704
658.87         39.5079
659.30        39.78897
659.73        40.43328
660.15        40.56174
660.58        40.79938
661.01        41.07499
661.44        41.48092
661.86        41.43439
662.29        41.09889
662.72        41.36135
663.14        42.15161
663.57         42.4505
664.00        42.26409
664.42        42.34854
664.85        42.73558
665.27        42.99669
665.70        43.11727
666.13        43.29359
666.55         43.5327
666.98        43.77706
667.41        43.99886
667.83        44.14414
668.26        44.19955
668.69        44.19813
669.11        44.18222
669.54        44.21756
669.96        44.32397
670.39        44.48183
670.82        44.66331
671.24        44.82789
671.67        44.95108
672.09        45.04304
672.52        45.13252
672.94        45.30243
673.37        45.21115
673.80        45.65024
674.22        45.59874
674.65        45.80928
675.07        46.01148
675.50        46.21556
675.92        46.40358
676.35        46.53919
676.77        46.62967
677.20        46.67102
677.62        46.69608
678.05        46.75746
678.47        46.86421
678.90        47.00503
679.32        47.14967
679.75         47.2571
680.17         47.3151
680.60        47.34981
681.02        47.37836
681.45        47.43176
681.87        47.52301
682.30        47.62285
682.72        47.75311
683.15        47.92113
683.57        48.13686
684.00        48.39917
684.42        48.64374
684.85        48.79614
685.27        48.84578
685.70        48.72514
686.12        48.55595
686.54        48.78938
686.97        49.33736
687.39        49.64792
687.82        49.64242
688.24        49.70357
688.66        49.82021
689.09        49.73796
689.51        49.52258
689.94        49.42126
690.36        49.46934
690.78        49.59965
691.21        49.77748
691.63        49.95127
692.06        50.09575
692.48        50.23616
692.90        50.36904
693.33        50.47695
693.75        50.56287
694.17        50.62588
694.60          50.678
695.02        50.73767
695.44        50.80583
695.87        50.93106
696.29        51.10926
696.71        51.16789
697.14        51.16734
697.56        51.41945
697.98        51.84631
698.41        52.04495
698.83        51.99529
699.25        51.95635
699.68        51.95945
700.10        51.96495
700.52        51.98244
700.94        52.04862
701.37        52.13839
701.79        52.21027
702.21        52.24676
702.64        52.27151
703.06        52.30057
703.48        52.36355
703.90        52.47019
704.33        52.62078
704.75        52.77039
705.17        52.90175
705.59        52.98513
706.01        53.03172
706.44        53.07037
706.86        53.12377
707.28        53.19297
707.70        53.35115
708.12        53.56747
708.55        53.59318
708.97        53.50963
709.39        53.76628
709.81        54.29789
710.23        54.59396
710.66        54.59927
711.08        54.60419
711.50        54.64669
711.92        54.69316
712.34        54.76519
712.76        54.87085
713.19        54.98106
713.61         55.0808
714.03        55.14661
714.45        55.19026
714.87        55.22865
715.29        55.28768
715.71         55.3722
716.13        55.46838
716.56        55.54877
716.98        55.64087
717.40        55.71644
717.82        55.77047
718.24        55.79893
718.66        55.80937
719.08        55.79864
719.50        55.74262
719.92        55.66315
720.34        55.62085
720.76        55.62715
721.19        55.65305
721.61        55.70027
722.03        55.75499
722.45        55.81037
722.87        55.86894
723.29         55.9295
723.71        55.98949
724.13        56.04552
724.55        56.10017
724.97        56.16011
725.39        56.21431
725.81        56.26228
726.23        56.39637
726.65        56.45288
727.07         56.5335
727.49        56.58796
727.91        56.61177
728.33        56.64143
728.75        56.74055
729.17        56.91636
729.59        57.15448
730.01        57.35846
730.43        57.37206
730.85        57.17844
731.27        56.83667
731.69        56.50364
732.10         56.4241
732.52        56.64911
732.94        57.10748
733.36        57.65021
733.78        58.02151
734.20        58.13575
734.62        58.02532
735.04        57.81743
735.46        57.80703
735.88        58.01034
736.30        58.13984
736.72         58.1443
737.13         58.2248
737.55        58.29791
737.97        58.09785
738.39        57.74217
738.81        57.60425
739.23        57.74633
739.65        58.08915
740.06        58.45042
740.48        58.58054
740.90         58.4208
741.32        58.08173
741.74         57.7177
742.16         57.5736
742.57        57.72564
742.99        58.04594
743.41        58.41474
743.83        58.71549
744.25        58.85361
744.67        58.70334
745.08        58.37829
745.50        58.22734
745.92         58.3177
746.34        58.46992
746.75         58.6427
747.17        58.83312
747.59        59.01577
748.01        59.19798
748.42        59.34858
748.84        59.40216
749.26        59.36264
749.68        59.20623
750.09        58.99385
750.51        58.95123
750.93        59.04941
751.35        59.04618
751.76        58.95186
752.18        58.96267
752.60        59.07816
753.01        59.18479
753.43        59.25057
753.85        59.30589
754.27        59.35647
754.68        59.41659
755.10        59.47402
755.52        59.52189
755.93        59.55676
756.35        59.50647
756.77        59.43449
757.18        59.59129
757.60        60.02062
758.02         60.2062
758.43        60.82204
758.85        60.87458
759.26        59.35519
759.68         59.0786
760.10        59.63968
760.51        59.81504
760.93        59.55133
761.34        59.78969
761.76        60.37811
762.18        60.34026
762.59        59.75312
763.01        59.41645
763.42         59.4594
763.84        59.44078
764.26        59.39102
764.67        59.55942
765.09        59.88485
765.50        60.11165
765.92        60.19977
766.33        60.17368
766.75        60.00973
767.16        59.94415
767.58         59.9866
768.00        59.89995
768.41        59.74979
768.83        60.04712
769.24        60.60091
769.66        60.54903
770.07        59.97929
770.49        59.73335
770.90         59.8847
771.32        60.08667
771.73        60.27075
772.15        60.33156
772.56         60.2475
772.97         60.3094
773.39         60.1524
773.80        60.24564
774.22        60.45031
774.63        60.78355
775.05        61.09189
775.46        61.21276
775.88          61.083
776.29         60.7888
776.70        60.44395
777.12        60.25092
777.53        60.27241
777.95        60.43948
778.36        60.69162
778.77        60.90432
779.19        61.02975
779.60        61.16564
780.02        61.28553
780.43        61.31876
780.84        61.31109
781.26          61.367
781.67        61.49641
782.09        61.74049
782.50         62.0339
782.91        61.87592
783.33        61.72402
783.74        61.51563
784.15        61.40943
784.57        61.22398
784.98         61.0204
785.39        60.98199
785.81          61.128
786.22         61.4043
786.63        61.74983
787.04        62.06744
787.46        62.31794
787.87        62.49722
788.28        62.62215
788.70        62.71398
789.11        62.77892
789.52        62.84056
789.93        62.86334
790.35        62.78941
790.76        62.63969
791.17        62.41434
791.58         62.2356
792.00        62.32103
792.41        62.63405
792.82        63.00478
793.23        63.30574
793.65        63.17457
794.06        62.78124
794.47        62.94656
794.88        63.52217
795.29        63.57667
795.71        63.05175
796.12        62.56221
796.53        62.27497
796.94        62.09574
797.35        62.15372
797.76        62.76574
798.18        63.67571
798.59        64.19511
799.00        64.18295
799.41         63.9272
799.82        63.57854
800.23         63.3112
800.64        63.21292
801.06        63.20595
801.47         63.2799
801.88        63.35139
802.29        63.38688
802.70        63.41281
803.11         63.4361
803.52        63.45438
803.93          63.475
804.34        63.49603
804.75        63.49305
805.17        63.47033
805.58         63.4622
805.99        63.33804
806.40        63.18214
806.81        63.42089
807.22        63.93269
807.63        64.00697
808.04        63.67938
808.45        63.62591
808.86        63.88551
809.27        64.05996
809.68        64.08337
810.09        64.05265
810.50        63.96113
810.91         63.7822
811.32        63.60047
811.73        63.55253
812.14        63.66335
812.55         63.9016
812.96        64.16991
813.37        64.27843
813.78        64.18212
814.19        63.96138
814.60        63.70456
815.01        63.53341
815.42        63.48465
815.83        63.51203
816.24        63.62893
816.65         63.8554
817.05        64.16464
817.46        64.50238
817.87        64.78854
818.28        64.85983
818.69        64.69466
819.10        64.33984
819.51        63.90578
819.92        63.61018
820.33        63.53473
820.74        63.61874
821.14         63.8112
821.55        64.03403
821.96        64.23841
822.37        64.45213
822.78        64.61967
823.19        64.63798
823.60         64.4854
824.00        64.18136
824.41        63.81386
824.82        63.55915
825.23        63.46378
825.64        63.50331
826.04        63.61693
826.45        63.62891
826.86        63.51556
827.27        63.32011
827.68        63.14557
828.08        63.17076
828.49        63.39042
828.90        63.78967
829.31        64.23734
829.72        64.51089
830.12        64.57643
830.53        64.41781
830.94        64.24328
831.35        64.36873
831.75        64.87569
832.16        65.60154
832.57        66.30627
832.97        66.54623
833.38        66.22684
833.79        65.55466
834.20        64.76515
834.60        64.18324
835.01        63.93679
835.42        63.89944
835.82        64.10297
836.23        64.53545
836.64        65.16248
837.04        66.01457
837.45        66.78102
837.86        67.07803
838.26        66.81081
838.67        66.08073
839.08        65.18675
839.48        64.59488
839.89        64.46764
840.29        64.67511
840.70        65.03929
841.11        65.27399
841.51        65.31161
841.92        65.21558
842.33        65.10056
842.73        65.13489
843.14        65.31765
843.54        65.60783
843.95        65.91314
844.35        66.15501
844.76        66.27883
845.17        66.29611
845.57        66.26065
845.98        66.22864
846.38        66.23275
846.79        66.25346
847.19         66.2068
847.60        65.91839
848.00        65.39781
848.41        64.73262
848.81        64.13737
849.22        63.91637
849.62        64.15602
850.03        64.72379
850.43        65.46798
850.84        65.93919
851.24        66.04161
851.65        65.79879
852.05        65.37911
852.46          65.021
852.86        64.80265
853.27        64.72039
853.67        64.61354
854.07        64.41698
854.48        64.07604
854.88        63.63671
855.29        63.19536
855.69        63.10783
856.10        63.38197
856.50        64.00017
856.90        64.62981
857.31        64.80629
857.71        64.48905
858.12        63.78094
858.52        63.01657
858.92        62.72134
859.33        63.01633
859.73        63.76707
860.13        64.69179
860.54        65.33993
860.94        65.59997
861.34        65.52534
861.75        65.18233
862.15        64.73798
862.55        64.25706
862.96        63.73859
863.36        63.16355
863.76        62.52535
864.17        61.87429
864.57        61.27724
864.97        60.86674
865.38        60.79041
865.78        61.08432
866.18        61.66116
866.58        62.39109
866.99         62.9846
867.39        63.34375
867.79        63.50989
868.19         63.4466
868.60        63.11376
869.00         62.5626
869.40        61.80422
869.80        61.15309
870.21        61.13668
870.61        61.88807
871.01        63.21181
871.41        64.61832
871.81        65.32358
872.22        65.12866
872.62         64.2455
873.02        63.08375
873.42        62.34366
873.82        62.25006
874.22        62.63319
874.63        63.17896
875.03        63.40563
875.43        63.20051
875.83         62.7177
876.23        62.30077
876.63        62.50025
877.03        63.39775
877.44        64.72124
877.84        66.03668
878.24        66.55883
878.64        66.12569
879.04        65.06203
879.44        63.76346
879.84        62.79855
880.24        62.33503
880.64        62.17846
881.04        62.32278
881.44        62.75423
881.84        63.40412
882.24        64.31155
882.65        65.13743
883.05        65.39775
883.45        64.94489
883.85        63.94662
884.25        62.86749
884.65        62.43514
885.05        62.79057
885.45        63.68055
885.85        64.79029
886.25          65.562
886.65        65.79272
887.05        65.69539
887.45        65.27678
887.85         64.5604
888.25        63.68493
888.65        62.67932
889.04         61.8752
889.44        61.79398
889.84        62.44591
890.24        63.72549
890.64         65.2212
891.04         66.0389
891.44        65.87489
891.84        65.02202
892.24        63.93785
892.64        63.25045
893.04        63.09816
893.44        63.27016
893.83        63.66491
894.23        64.04047
894.63        64.31732
895.03        64.60019
895.43        64.82349
895.83        64.86394
896.23        64.71876
896.63        64.37737
897.02        64.00884
897.42        63.98738
897.82        64.35069
898.22        65.01064
898.62        65.67946
899.01        65.87576
899.41        65.48952
899.81        64.70596
900.21        63.83754
900.61        63.36422
901.00        63.40222
901.40        63.79208
901.80        64.32777
902.20        64.67567
902.59        64.71498
902.99         64.5424
903.39        64.23551
903.79        63.89248
904.18        63.56503
904.58        63.25747
904.98        62.96403
905.38        62.70619
905.77        62.48012
906.17        62.28727
906.57        62.20036
906.96        62.34822
907.36        62.70515
907.76        63.25771
908.15        63.78066
908.55        63.78829
908.95        63.25576
909.34        62.30719
909.74        61.41445
910.14        61.18039
910.53        61.75795
910.93        62.91719
911.33        64.31125
911.72        65.38619
912.12        65.87895
912.52        65.94964
912.91        65.79344
913.31        65.74985
913.70        65.92518
914.10        66.15842
914.49        66.27917
914.89        66.02313
915.29        65.37858
915.68         64.4932
916.08        63.61819
916.47        62.99744
916.87        62.75624
917.26        62.77628
917.66         63.0018
918.05        63.35213
918.45        63.71903
918.84        64.16573
919.24        64.51741
919.64        64.60625
920.03        64.41415
920.42        63.97356
920.82        63.49181
921.21        63.21334
921.61        63.21716
922.00        63.44189
922.40        63.80521
922.79        64.23194
923.19         64.6275
923.58        65.02326
923.98         65.3344
924.37        65.44881
924.77        65.34346
925.16        65.04307
925.55        64.64851
925.95        64.34403
926.34        64.20615
926.74         64.1905
927.13        64.21557
927.52        64.10555
927.92        63.83094
928.31        63.42856
928.70        63.02492
929.10        62.80334
929.49        62.79914
929.89        62.93438
930.28        63.08132
930.67        62.96496
931.07        62.53762
931.46        61.93548
931.85        61.32793
932.24         60.9646
932.64         60.9211
933.03        61.12239
933.42        61.51509
933.82        61.98361
934.21        62.46817
934.60        62.94832
934.99        63.39728
935.39        63.75886
935.78        64.06005
936.17        64.27008
936.56        64.27174
936.96        63.93461
937.35         63.2884
937.74        62.42148
938.13        61.63479
938.53        61.28793
938.92        61.40702
939.31        61.95117
939.70        62.63388
940.09        62.90007
940.49        62.58476
940.88        61.86559
941.27        61.11814
941.66        60.91103
942.05        61.36774
942.44        62.36203
942.84        63.48102
943.23        64.02367
943.62        63.74643
944.01        62.84937
944.40        61.90715
944.79        61.77501
945.18        62.60767
945.57        64.14928
945.97        65.69408
946.36        66.25088
946.75        65.45461
947.14         63.6707
947.53        61.66067
947.92        60.55164
948.31        60.63539
948.70        61.62889
949.09        62.94472
949.48        63.52185
949.87         63.0426
950.26        61.84845
950.65         60.5826
951.04        60.12714
951.43        60.66291
951.82        61.94131
952.21        63.35026
952.60        63.79995
952.99        63.00235
953.38        61.33086
953.77        59.61044
954.16        58.92719
954.55        59.48386
954.94        61.05206
955.33        62.88868
955.72        63.41081
956.11        62.13632
956.50         59.6724
956.89        57.17904
957.28        56.13594
957.66        56.85888
958.05        58.85892
958.44        61.39922
958.83        62.95301
959.22        62.93594
959.61        61.84484
960.00        60.39853
960.39        59.51572
960.78        59.39576
961.16        59.76899
961.55         60.2711
961.94        60.29055
962.33         59.6587
962.72        58.70655
963.11        57.82318
963.49        57.48106
963.88        57.77331
964.27        58.54238
964.66        59.58031
965.04        60.57461
965.43        61.28518
965.82        61.76074
966.21        62.05519
966.60        62.26619
966.98        62.43379
967.37        62.54173
967.76         62.4557
968.15        61.98518
968.53        61.12482
968.92        59.89636
969.31        58.74875
969.69        58.52763
970.08        59.43016
970.47        61.35008
970.86        63.42719
971.24        64.14777
971.63        63.14848
972.02        60.94956
972.40        58.69092
972.79        58.15334
973.17        59.65873
973.56        62.50854
973.95        65.78248
974.33        67.73212
974.72          67.698
975.11        66.29964
975.49        64.26773
975.88        63.01355
976.26         62.9009
976.65        63.42534
977.04        64.30578
977.42        65.05785
977.81          65.314
978.19        65.37344
978.58        65.17333
978.96        64.45067
979.35         63.3006
979.74         61.8072
980.12         60.4234
980.51        59.92981
980.89         60.5764
981.28        61.99431
981.66        63.95198
982.05        65.76788
982.43        67.22269
982.82        68.38589
983.20        68.91888
983.59        68.21168
983.97        66.32278
984.35        63.53864
984.74        60.85712
985.12        59.66416
985.51         60.1488
985.89        62.03063
986.28         64.3832
986.66        65.97023
987.04        66.19113
987.43        65.42999
987.81        64.07349
988.20        63.12768
988.58        62.82337
988.96        62.92904
989.35        62.84889
989.73        61.89914
990.12        59.94323
990.50        57.40047
990.88        54.99556
991.27        53.82935
991.65        54.11363
992.03        55.55204
992.42        57.57262
992.80         59.6031
993.18        61.29427
993.56        62.76474
993.95        63.94661
994.33        64.85817
994.71        65.39964
995.10        65.56316
995.48        65.36292
995.86        64.94576
996.24        64.41032
996.63        63.67813
997.01        63.12614
997.39        63.21651
997.77         63.9993
998.15        65.33375
998.54        66.58371
998.92        66.76287
999.30        65.64565
999.68        63.50774
1000.06        61.02272
1000.45        59.46992
1000.83        59.37347
1001.21        60.41563
1001.59        62.14698
1001.97        63.77277
1002.35        64.96549
1002.73        65.92731
1003.12        66.66563
1003.50        67.10956
1003.88        67.33945
1004.26         67.3462
1004.64        67.23031
1005.02        67.24146
1005.40        67.42509
1005.78         67.6485
1006.16        67.98506
1006.54         68.5344
1006.92        69.27762
1007.30        70.26657
1007.69        70.99004
1008.07        70.50843
1008.45        68.51912
1008.83        65.26818
1009.21        61.83317
1009.59         60.0059
1009.97        60.23679
1010.35        62.05388
1010.73        64.39873
1011.11        65.47162
1011.49          64.785
1011.86        62.97708
1012.24        60.59906
1012.62        58.72206
1013.00        57.65926
1013.38        57.04366
1013.76        56.75437
1014.14        56.61688
1014.52        56.53055
1014.90        56.68033
1015.28        56.91586
1015.66        56.89852
1016.04        56.59834
1016.41        56.10995
1016.79         55.7614
1017.17        56.15154
1017.55        57.32596
1017.93        58.92538
1018.31        60.64165
1018.69        62.46789
1019.06        64.64064
1019.44        67.21053
1019.82        70.43867
1020.20        73.71689
1020.58         75.7763
1020.95        76.20295
1021.33        74.89398
1021.71        71.68169
1022.09        66.39642
1022.46        58.41577
1022.84        48.71935
1023.22        41.34501
1023.60         39.5187
1023.97        42.31076
1024.35        47.07983
1024.73        51.24311
