SpectraSmart Spectrum 2.9.0.0
--------- Device Information -----------
Spectrum Name :  反射率_0
Saving Time :  2024/04/30 01:01:04
Spectro-Module Model Name : SE2030-DUVN
Spectro-Module Serial Number : OS361AC55029948
Wavelength Start : 200
Wavelength End : 1025
Wavelength Unit : Wavelength(nm)
Spectrum Unit : Reflectance(%)
-----------Spectrum Setting ------------
Integration Time : 20ms
Average : 10
Boxcar : 0
Background removal :  enabled
linearity correction :  enabled
SC :  disabled
Intensity correction :  disabled
DWT denoise :  enabled
savitzky-golay :  disabled
FFT :  disabled
Running average :  disabled
Kalman :  disabled
High pass :  disabled
---------------BEGIN--------------------
Wavelength(nm)             Reflectance(%)
200.29               0
200.75        35.39688
201.21        28.16113
201.67        19.72861
202.13        12.08817
202.58        6.570406
203.04        3.523006
203.50        4.149187
203.96        10.91048
204.42        23.68836
204.88        39.97621
205.34        55.69296
205.80        64.89052
206.26        66.55083
206.72        63.95182
207.18        58.45645
207.64        50.12219
208.10        39.09892
208.55        24.94755
209.01        10.42339
209.47        4.045557
209.93        7.810407
210.39        17.59064
210.85        27.14628
211.31        31.22608
211.77        29.55552
212.23        22.60513
212.69        12.35585
213.14        9.282685
213.60        17.56777
214.06        30.49651
214.52        41.12369
214.98        45.61002
215.44        45.01875
215.90        41.25748
216.36        36.44524
216.81        34.37433
217.27        37.24033
217.73        44.96255
218.19        56.87758
218.65        66.67583
219.11        68.96964
219.57        65.27392
220.02        60.33589
220.48         58.2171
220.94        58.62252
221.40        60.66488
221.86         61.8367
222.32        56.66035
222.77        46.43445
223.23        37.03374
223.69        31.00198
224.15        28.80725
224.61        29.46512
225.06         32.0179
225.52        36.31607
225.98        40.65326
226.44        43.53517
226.90        45.26895
227.36        45.88023
227.81        45.50584
228.27        44.40294
228.73        42.40276
229.19        40.33271
229.65        39.99916
230.10        41.55066
230.56        44.08112
231.02        46.17882
231.48        46.60268
231.93        45.37374
232.39         43.0043
232.85        40.35535
233.31        39.11041
233.77        39.79906
234.22         42.0611
234.68        44.74784
235.14        45.74846
235.60        44.53815
236.05        41.86976
236.51        39.21829
236.97        38.45162
237.43        40.06652
237.88        43.98944
238.34        49.47548
238.80        53.99319
239.26        55.45913
239.71        54.28017
240.17        51.65928
240.63        49.68522
241.08        48.90113
241.54        48.66923
242.00        48.80803
242.46        48.53447
242.91        47.43766
243.37        46.40052
243.83        45.81436
244.28        45.17849
244.74        44.19049
245.20        42.83072
245.66        42.10585
246.11        44.40746
246.57        50.73485
247.03        60.39921
247.48        70.54623
247.94        73.81219
248.40        69.94943
248.85         63.2732
249.31        57.92113
249.77        55.22644
250.22        54.79316
250.68        55.98824
251.14        59.49737
251.59         64.4867
252.05        67.60767
252.51        68.49638
252.96        67.69865
253.42        66.22727
253.88        63.85609
254.33        60.15072
254.79        55.81212
255.25        52.41926
255.70        50.72055
256.16        50.46008
256.62         50.5164
257.07        49.95235
257.53        49.07413
257.99        48.04237
258.44        47.15121
258.90        47.35451
259.35        48.16273
259.81        49.28446
260.27        50.15609
260.72        50.40368
261.18        50.23639
261.63        49.61129
262.09        48.84938
262.55        48.06158
263.00        47.25145
263.46        46.55902
263.91        45.73378
264.37        44.72325
264.83        43.48088
265.28        42.04708
265.74        40.76913
266.19        39.96237
266.65        39.73256
267.11        39.89344
267.56        40.14659
268.02        40.06913
268.47        39.54198
268.93        38.68793
269.38        37.66728
269.84        36.87393
270.30        36.40174
270.75         36.1371
271.21        35.89473
271.66        35.38324
272.12         34.5553
272.57        33.50049
273.03        32.44181
273.48        31.63884
273.94         31.2063
274.39        31.00592
274.85        30.90224
275.31        30.63959
275.76        30.15418
276.22        29.55947
276.67        28.94307
277.13        28.51565
277.58        28.26042
278.04         28.1278
278.49        27.97026
278.95        27.67234
279.40        27.17562
279.86        26.60962
280.31        26.00923
280.77        25.53321
281.22        25.18441
281.68        24.94486
282.13        24.79115
282.59        24.73742
283.04        24.74127
283.50        24.78348
283.95        24.78562
284.41        24.63574
284.86        24.31346
285.32        23.90441
285.77        23.43607
286.22        23.01617
286.68        22.68903
287.13        22.39206
287.59        22.19114
288.04        22.13129
288.50        22.21187
288.95        22.38298
289.41        22.53464
289.86        22.46316
290.32        22.16759
290.77        21.72148
291.22        21.25642
291.68        20.98378
292.13        20.95366
292.59        21.10916
293.04        21.43354
293.50        21.92413
293.95        22.54351
294.40        23.29405
294.86         24.0331
295.31         24.5496
295.77        24.80435
296.22        24.84752
296.68        24.86132
297.13        25.12068
297.58        25.69258
298.04        26.45684
298.49        27.26471
298.95        27.87414
299.40        28.21864
299.85        28.38579
300.31        28.44945
300.76        28.46724
301.21        28.50525
301.67         28.5501
302.12         28.6169
302.58        28.86972
303.03        29.31015
303.48        29.76248
303.94        30.12026
304.39        30.94555
304.84        30.98288
305.30        31.24148
305.75        31.39714
306.20        31.58288
306.66        31.81918
307.11        32.06644
307.57        32.28981
308.02        32.37048
308.47        32.30759
308.93        32.14437
309.38        31.94763
309.83         31.8673
310.29        31.92817
310.74         32.0793
311.19        32.21094
311.65        32.14566
312.10        31.85335
312.55        31.40767
313.00        30.93932
313.46        30.64749
313.91         30.5716
314.36         30.6516
314.82        30.79803
315.27        30.88591
315.72        30.85849
316.18         30.7578
316.63        30.59674
317.08        30.40748
317.53        30.21081
317.99        30.00114
318.44        29.78324
318.89        29.57568
319.35        29.38481
319.80         29.2101
320.25        29.07369
320.70        29.00512
321.16        28.99223
321.61         29.0377
322.06        29.07055
322.51        28.98253
322.97         28.7524
323.42        28.41853
323.87         28.0601
324.32        27.80982
324.78        27.69242
325.23        27.68233
325.68        27.71348
326.13        27.67572
326.59        27.53059
327.04        27.32522
327.49        27.09441
327.94        26.90656
328.39        26.77543
328.85        26.65597
329.30        26.54539
329.75         26.4011
330.20        26.21676
330.66        26.02299
331.11        25.81414
331.56        25.55235
332.01         25.2422
332.46        24.88416
332.92        24.56826
333.37        24.47951
333.82        24.64347
334.27        25.01235
334.72        25.41102
335.17        25.54249
335.63        25.33088
336.08        24.86769
336.53        24.32305
336.98        24.00927
337.43        24.01687
337.88        24.24236
338.34        24.56261
338.79        24.80221
339.24        24.89334
339.69        24.90956
340.14        24.85754
340.59        24.74462
341.05        24.59378
341.50        24.38268
341.95        24.19612
342.40        24.18342
342.85        24.35848
343.30        24.67715
343.75        24.98608
344.20        25.03307
344.66        24.77732
345.11        24.29658
345.56        23.75087
346.01        23.39631
346.46        23.30828
346.91        23.40901
347.36        23.60497
347.81        23.75607
348.26        23.81363
348.72        23.81372
349.17        23.78234
349.62        23.75858
350.07        23.75255
350.52        23.74321
350.97        23.70182
351.42        23.59125
351.87        23.41736
352.32        23.21267
352.77         23.0316
353.22        22.95628
353.67        23.00324
354.13        23.13354
354.58        23.31334
355.03        23.48904
355.48        23.62585
355.93        23.72923
356.38        23.75611
356.83        23.64552
357.28         23.4013
357.73        23.04948
358.18        22.67212
358.63        22.40139
359.08        22.26859
359.53        22.23767
359.98        22.25282
360.43        22.21717
360.88        22.10407
361.33        21.95114
361.78        21.77529
362.23         21.6023
362.68        21.44619
363.13          21.291
363.58        21.16226
364.03         21.1045
364.48        21.11753
364.93        21.18791
365.38        21.25773
365.83        21.23112
366.28        21.09083
366.73        20.86934
367.18        20.62678
367.63        20.46042
368.08        20.39383
368.53        20.39221
368.98        20.42298
369.43        20.43188
369.88        20.39843
370.33         20.3443
370.78        20.26036
371.23        20.13112
371.68        19.96042
372.13        19.74654
372.58        19.53484
373.03        19.40155
373.48        19.35775
373.93        19.38165
374.38          19.408
374.83        19.32743
375.28        19.11912
375.72        18.81758
376.17        18.50527
376.62         18.2634
377.07        18.11178
377.52        18.02074
377.97        17.96623
378.42        17.91019
378.87        17.84155
379.32        17.77968
379.77        17.72282
380.22        17.66576
380.67        17.60543
381.11        17.52878
381.56        17.45833
382.01         17.4315
382.46         17.4536
382.91        17.52117
383.36        17.57487
383.81        17.52374
384.26        17.35816
384.71        17.10334
385.15        16.85188
385.60        16.77553
386.05         16.8869
386.50        17.12542
386.95        17.36386
387.40        17.40302
387.85        17.21071
388.29        16.85915
388.74        16.48368
389.19        16.21146
389.64        16.07513
390.09        16.02352
390.54        16.03666
390.98        16.08046
391.43        16.13725
391.88        16.21766
392.33        16.27815
392.78        16.27066
393.23        16.19444
393.67        16.02155
394.12        15.82595
394.57        15.82268
395.02        15.79556
395.47        15.90123
395.91         16.0081
396.36        15.99853
396.81        15.85521
397.26        15.62578
397.71        15.38511
398.15        15.23399
398.60        15.21236
399.05        15.24549
399.50         15.2873
399.95           15.34
400.39        15.30709
400.84        15.20766
401.29        15.04284
401.74        14.90893
402.18        14.82984
402.63         14.7508
403.08        14.69767
403.53        14.72133
403.97         14.8191
404.42        14.97659
404.87        15.12646
405.32        15.15727
405.76         15.0443
406.21        14.82746
406.66        14.58834
407.11        14.45957
407.55         14.4766
408.00        14.59896
408.45        14.75353
408.90        14.80572
409.34        14.71739
409.79         14.5348
410.24        14.34078
410.68         14.2569
411.13        14.31156
411.58         14.4637
412.03        14.63926
412.47        14.71636
412.92        14.65151
413.37        14.49551
413.81        14.31242
414.26        14.22034
414.71        14.23242
415.15        14.31548
415.60         14.4141
416.05        14.45599
416.49        14.41957
416.94        14.33658
417.39        14.23099
417.83        14.13576
418.28         14.0694
418.73        14.01318
419.17        13.98247
419.62        14.00335
420.07        14.07237
420.51        14.18165
420.96        14.28423
421.41        14.29758
421.85        14.20731
422.30        14.05669
422.74        13.89824
423.19        13.83399
423.64        13.87726
424.08        14.00457
424.53        14.16265
424.98        14.28254
425.42        14.33836
425.87         14.3378
426.31        14.29499
426.76        14.25741
427.21        14.18949
427.65        14.10496
428.10        14.00748
428.54         13.8839
428.99        13.75501
429.44        13.72508
429.88        13.75266
430.33        13.59558
430.77        13.34565
431.22        13.43876
431.66        13.83534
432.11        14.03913
432.56        13.97662
433.00        13.95803
433.45        13.96873
433.89        13.68178
434.34        13.26403
434.78        13.24171
435.23        13.54839
435.67        13.65249
436.12        13.52745
436.57        13.47692
437.01        13.52672
437.46        13.57839
437.90        13.62917
438.35        13.69899
438.79        13.76509
439.24        13.76824
439.68        13.72279
440.13        13.69877
440.57        13.68576
441.02        13.67477
441.46        13.66964
441.91        13.57544
442.35        13.44102
442.80        13.62742
443.24        14.00567
443.69        13.90834
444.13        13.40894
444.58        13.18762
445.02        13.25443
445.47        13.25692
445.91        13.17791
446.36        13.16205
446.80        13.20207
447.24        13.26701
447.69        13.33849
448.13         13.3875
448.58        13.40738
449.02        13.40358
449.47        13.40086
449.91        13.43118
450.36        13.50065
450.80        13.59612
451.25        13.68503
451.69        13.71496
452.13        13.67515
452.58        13.59163
453.02        13.49618
453.47        13.43863
453.91        13.42912
454.36        13.49059
454.80        13.53663
455.24        13.58343
455.69        13.60356
456.13        13.60576
456.58        13.60207
457.02        13.59768
457.46        13.59845
457.91        13.59618
458.35        13.59002
458.79        13.58559
459.24        13.59253
459.68        13.61984
460.13        13.65936
460.57        13.63301
461.01        13.64436
461.46        13.56398
461.90         13.4769
462.34        13.59097
462.79        13.85297
463.23        13.94963
463.68        13.86442
464.12        13.83427
464.56         13.8609
465.01        13.81888
465.45         13.7187
465.89          13.635
466.34        13.60144
466.78        13.66164
467.22        13.81747
467.67        13.84858
468.11        13.74958
468.55        13.60394
468.99        13.47603
469.44        13.42794
469.88        13.47728
470.32        13.60882
470.77        13.76131
471.21        13.85032
471.65        13.84659
472.10        13.78195
472.54        13.70291
472.98        13.69733
473.42        13.78187
473.87        13.92351
474.31        14.06827
474.75        14.13665
475.20        14.11617
475.64        14.03246
476.08        13.93104
476.52        13.87712
476.97        13.88923
477.41        13.94369
477.85        14.02253
478.29        14.09559
478.74        14.15465
479.18        14.19989
479.62        14.22768
480.06        14.26748
480.50        14.32736
480.95        14.26615
481.39        14.30947
481.83        14.33527
482.27        14.42419
482.72        14.45094
483.16        14.58953
483.60        14.65452
484.04        14.69898
484.48        14.66844
484.93        14.62713
485.37        14.81785
485.81        15.11275
486.25        15.23176
486.69        14.56101
487.14        14.74751
487.58        15.49565
488.02        15.33896
488.46        15.57939
488.90        15.68479
489.34        15.44227
489.79        15.40007
490.23        15.39123
490.67        15.60322
491.11        15.92437
491.55        15.96713
491.99        15.78388
492.43        15.82258
492.88        16.09789
493.32         16.3214
493.76        16.46243
494.20        16.63351
494.64        16.83191
495.08         17.0188
495.52        17.16616
495.96        17.27437
496.41        17.34793
496.85        17.29812
497.29         17.1828
497.73        17.38394
498.17        17.64288
498.61        17.70922
499.05        17.54582
499.49         17.5272
499.93        17.68398
500.37        17.87134
500.82        18.04941
501.26         18.1889
501.70        18.27523
502.14        18.33972
502.58        18.41378
503.02        18.52662
503.46        18.68637
503.90        18.88503
504.34        19.08486
504.78        19.22084
505.22        19.27632
505.66        19.26772
506.10        19.22607
506.54        19.22375
506.98        19.28186
507.42        19.34244
507.86         19.3692
508.30        19.52311
508.74        19.43845
509.18        19.41862
509.62        19.38766
510.06        19.40024
510.50        19.46413
510.94        19.56774
511.38        19.68249
511.82        19.75115
512.26        19.76119
512.70        19.73143
513.14        19.69264
513.58        19.69272
514.02        19.74318
514.46        19.82581
514.90        19.92041
515.34        19.99461
515.78        20.03621
516.22         20.0557
516.66        20.05624
517.10        20.04246
517.54        20.01786
517.98         19.9782
518.42        19.93303
518.86        19.89928
519.30        19.88103
519.74        19.87809
520.18        19.87548
520.62        19.84658
521.06        19.78897
521.50        19.71344
521.93        19.64489
522.37        19.61855
522.81        19.64326
523.25        19.70165
523.69        19.77144
524.13        19.81929
524.57        19.83381
525.01        19.82426
525.45        19.79091
525.89        19.73612
526.32        19.66257
526.76        19.57365
527.20        19.48478
527.64         19.4217
528.08        19.38847
528.52        19.38065
528.96         19.3772
529.40         19.3423
529.83        19.26862
530.27        19.17083
530.71        19.07087
531.15         19.0066
531.59        18.98518
532.03        18.99069
532.46        19.00346
532.90        18.99875
533.34        18.96817
533.78        18.92556
534.22        18.87199
534.66         18.8082
535.09        18.73671
535.53        18.66012
535.97         18.5983
536.41        18.58983
536.85        18.63758
537.28        18.72906
537.72        18.82247
538.16        18.85254
538.60         18.8081
539.04        18.71661
539.47        18.61271
539.91        18.56834
540.35         18.5966
540.79        18.68037
541.22        18.80461
541.66         18.9488
542.10         19.0966
542.54        19.25066
542.97        19.40222
543.41        19.53813
543.85        19.65618
544.29        19.76422
544.72        19.85222
545.16        19.92231
545.60        19.97866
546.04        20.01546
546.47        20.07223
546.91        20.24094
547.35        20.51351
547.79        20.80041
548.22        21.04358
548.66        21.26826
549.10        21.46728
549.53        21.54516
549.97        21.50826
550.41        21.81241
550.84        21.81994
551.28        22.00305
551.72         22.1429
552.15        22.39701
552.59        22.47773
553.03        22.62227
553.46        22.75134
553.90        22.86682
554.34        22.96543
554.77        23.06028
555.21         23.1589
555.65        23.22995
556.08        23.28629
556.52        23.39957
556.96        23.54758
557.39        23.67179
557.83        23.75946
558.27        23.78386
558.70        23.78724
559.14        23.87653
559.57        24.04118
560.01         24.2296
560.45        24.39492
560.88        24.39808
561.32        24.38556
561.75        24.38316
562.19        24.44921
562.63         24.5023
563.06        24.54563
563.50         24.6461
563.93        24.77702
564.37        24.88588
564.80        24.95744
565.24        25.01404
565.68         25.0678
566.11        25.15374
566.55         25.2773
566.98         25.3878
567.42        25.50686
567.85        25.61926
568.29        25.72286
568.72          25.902
569.16        26.19012
569.60        26.06815
570.03        26.34129
570.47        26.52157
570.90         26.5962
571.34        26.74038
571.77        26.89855
572.21        27.03712
572.64        27.14233
573.08        27.31302
573.51        27.57302
573.95        27.65098
574.38        27.75266
574.82        27.92399
575.25        27.70122
575.69        27.62872
576.12        27.59742
576.56        27.77576
576.99        28.02099
577.42        27.92951
577.86        27.99699
578.29        27.75589
578.73        27.81157
579.16        27.82199
579.60        27.63899
580.03        27.47826
580.47        27.69685
580.90        27.62091
581.33         27.3732
581.77        27.42846
582.20         27.3201
582.64        27.12575
583.07        26.80923
583.51        26.65343
583.94        26.76863
584.37        26.61827
584.81        26.26772
585.24        26.24239
585.68        26.33923
586.11        26.47382
586.54        26.03743
586.98        26.12541
587.41        26.47025
587.85        26.31016
588.28        25.91562
588.71        26.18983
589.15        25.95522
589.58        25.90262
590.01        25.99282
590.45        25.91046
590.88        25.81731
591.31        25.89015
591.75        26.08744
592.18         26.2244
592.61        26.28221
593.05        26.05187
593.48        26.17629
593.91        26.22032
594.35        26.13636
594.78         26.2051
595.21        26.36629
595.65         26.3694
596.08        26.23151
596.51        26.68462
596.94        27.01764
597.38        27.33706
597.81        27.34937
598.24        27.85393
598.68        27.95188
599.11        28.11993
599.54        28.48681
599.97        28.68522
600.41        28.81074
600.84        29.42073
601.27        29.52962
601.70        29.98707
602.14        30.44233
602.57        30.73735
603.00        30.86846
603.43         31.1277
603.87        31.47721
604.30        31.86253
604.73        32.28033
605.16        32.76231
605.60        33.27169
606.03        33.78886
606.46        34.20409
606.89        34.61243
607.32        34.83998
607.76        35.17101
608.19        35.56271
608.62         35.9577
609.05        36.36652
609.48        36.79076
609.92        37.17363
610.35        37.48934
610.78        37.76577
611.21        37.70412
611.64        38.19086
612.07        38.41566
612.50        38.62582
612.94        38.95389
613.37        39.45191
613.80        39.56874
614.23        40.15016
614.66        40.45147
615.09        40.70571
615.52        40.98902
615.96        41.29492
616.39         41.3595
616.82        41.22105
617.25        41.65776
617.68        41.85759
618.11        42.17441
618.54        42.33567
618.97        42.48721
619.40        42.67145
619.84        42.86802
620.27        43.10427
620.70        43.45781
621.13        43.85732
621.56        43.75473
621.99        43.76329
622.42        43.48327
622.85        44.27608
623.28        43.92181
623.71         44.4628
624.14        43.76767
624.57        44.16368
625.00        44.10712
625.43        44.15049
625.86        43.89893
626.29        43.95972
626.72        43.82485
627.15        43.65896
627.58        43.47773
628.01        43.29121
628.44        43.07207
628.87         42.8368
629.30        42.68205
629.73        42.59269
630.16        42.43567
630.59        42.19028
631.02        42.02179
631.45        41.72935
631.88        41.41708
632.31        41.02636
632.74        40.59267
633.17        40.11009
633.60        39.65877
634.03        39.24493
634.46        38.85433
634.89        38.46865
635.32         38.0595
635.75        37.62026
636.18        37.16192
636.61        36.70277
637.04        36.27525
637.47        35.89608
637.89        35.53311
638.32        35.16108
638.75        34.84653
639.18        34.60362
639.61        34.08297
640.04         33.9143
640.47         33.6175
640.90        33.37889
641.33        33.18414
641.76        33.02021
642.18         32.8588
642.61        32.67994
643.04        32.49894
643.47        32.35389
643.90        32.29278
644.33        32.32085
644.76        32.46683
645.18        32.65773
645.61        32.68575
646.04         32.5032
646.47        32.51406
646.90        32.71692
647.33        32.88916
647.75        33.02983
648.18        33.30211
648.61        33.66776
649.04        33.99694
649.47        34.28618
649.89        34.55109
650.32        34.82346
650.75        35.28563
651.18        35.89838
651.61        36.34877
652.03        36.66349
652.46        37.21184
652.89        37.91966
653.32        38.32898
653.74        38.49638
654.17        38.77155
654.60        38.99019
655.03        40.04843
655.46        39.52349
655.88        40.91087
656.31        43.00867
656.74         43.2429
657.16        42.50126
657.59        41.86492
658.02        42.71755
658.45        43.58032
658.87        44.16788
659.30        44.07541
659.73        44.67102
660.15        44.96358
660.58        45.53817
661.01        45.74108
661.44        45.73717
661.86        45.76064
662.29        45.90352
662.72        46.36673
663.14        47.02585
663.57        47.16017
664.00        46.86227
664.42        46.91475
664.85        47.37453
665.27         47.7767
665.70        48.05439
666.13        48.34562
666.55        48.63677
666.98        48.88182
667.41        49.08689
667.83        49.25725
668.26        49.39256
668.69         49.5021
669.11        49.60204
669.54        49.72125
669.96        49.86945
670.39        50.04178
670.82        50.22362
671.24        50.39484
671.67        50.53799
672.09        50.65639
672.52        50.78029
672.94        51.00181
673.37        50.93398
673.80        51.47001
674.22        51.45473
674.65        51.72778
675.07        51.98184
675.50         52.2305
675.92        52.45454
676.35        52.62253
676.77        52.74581
677.20        52.80085
677.62         52.8299
678.05        52.94231
678.47        53.12856
678.90        53.28075
679.32        53.37816
679.75        53.47689
680.17        53.56733
680.60        53.62041
681.02        53.64433
681.45        53.67976
681.87        53.74199
682.30        53.80745
682.72        53.90461
683.15        54.04599
683.57        54.24768
684.00        54.50481
684.42        54.77534
684.85        55.00949
685.27        55.19072
685.70         55.2631
686.12        55.29094
686.54        55.58552
686.97        56.06772
687.39        56.34918
687.82        56.36681
688.24        56.41212
688.66        56.48996
689.09        56.40664
689.51        56.21737
689.94        56.18097
690.36        56.31035
690.78         56.3741
691.21         56.4015
691.63        56.70515
692.06        57.19203
692.48        57.40918
692.90        57.35481
693.33         57.3947
693.75        57.54182
694.17        57.56324
694.60        57.50684
695.02        57.54451
695.44        57.68744
695.87        57.99156
696.29        58.37089
696.71        58.40535
697.14        58.18596
697.56        58.30803
697.98        58.74206
698.41        58.96537
698.83        58.95556
699.25        59.02522
699.68        59.15777
700.10        59.22272
700.52        59.20533
700.94        59.15844
701.37        59.10289
701.79        59.08604
702.21         59.1161
702.64        59.19092
703.06        59.30607
703.48        59.46334
703.90        59.66067
704.33        59.90654
704.75         60.1556
705.17        60.39415
705.59        60.58305
706.01         60.7197
706.44        60.81894
706.86        60.88694
707.28        60.92368
707.70        61.01577
708.12        61.14407
708.55        61.07099
708.97        60.88942
709.39        61.05543
709.81        61.52411
710.23        61.81538
710.66        61.87735
711.08        61.98832
711.50        62.15758
711.92        62.31029
712.34         62.4497
712.76        62.58711
713.19        62.68546
713.61        62.72723
714.03        62.69554
714.45        62.61428
714.87        62.52277
715.29        62.47864
715.71        62.49743
716.13        62.55968
716.56        62.64509
716.98        62.79491
717.40        62.97185
717.82        63.17045
718.24        63.34558
718.66        63.42714
719.08         63.4059
719.50         63.3033
719.92        63.17863
720.34        63.13016
720.76        63.18445
721.19        63.30989
721.61        63.48533
722.03         63.6246
722.45        63.69847
722.87        63.76897
723.29        63.86034
723.71        63.77903
724.13        63.88891
724.55        63.90773
724.97         63.9457
725.39        63.93087
725.81        63.85789
726.23        64.01135
726.65          63.928
727.07        63.99205
727.49        64.06464
727.91        64.14061
728.33        64.24226
728.75        64.40668
729.17        64.63015
729.59        64.92232
730.01        65.18324
730.43        65.18673
730.85        64.94808
731.27        64.67501
731.69        64.48292
732.10        64.43505
732.52        64.58746
732.94        64.93358
733.36        65.36205
733.78        65.77119
734.20        66.11846
734.62        65.88399
735.04        66.06918
735.46        66.14998
735.88        66.39449
736.30        66.57746
736.72        66.63644
737.13        66.60287
737.55        66.42822
737.97        66.14079
738.39        65.86042
738.81        65.63631
739.23         65.7188
739.65        66.04998
740.06        66.48921
740.48        66.74034
740.90        66.74741
741.32        66.32345
741.74        66.18214
742.16        66.04929
742.57        66.16212
742.99         66.4753
743.41        66.86333
743.83        66.99371
744.25        66.86289
744.67         66.8018
745.08        66.87407
745.50        66.92445
745.92        66.97849
746.34         67.1423
746.75        67.37568
747.17        67.51883
747.59        67.54326
748.01        67.56232
748.42        67.62686
748.84        67.43544
749.26        67.60314
749.68        67.59811
750.09        67.57489
750.51        67.62704
750.93        67.69643
751.35        67.56097
751.76        67.29247
752.18        67.21155
752.60        67.34528
753.01        67.54069
753.43        67.71449
753.85        67.81002
754.27        67.81052
754.68        67.79705
755.10        67.79333
755.52         67.7638
755.93        67.73933
756.35        67.82965
756.77        68.05061
757.18        68.31025
757.60        68.60893
758.02        69.09903
758.43        69.42678
758.85        69.61906
759.26        68.01264
759.68        67.63847
760.10        68.01617
760.51        68.62504
760.93        68.80599
761.34        69.02606
761.76        69.09471
762.18        69.04098
762.59        68.91914
763.01        68.65618
763.42         68.3799
763.84         68.2589
764.26         68.3509
764.67        68.55244
765.09        68.81614
765.50         69.1911
765.92          69.607
766.33        69.67381
766.75        69.27641
767.16        69.60514
767.58         69.2529
768.00        69.08334
768.41        68.80656
768.83        68.97809
769.24        69.42303
769.66         69.6217
770.07        69.40225
770.49        69.05635
770.90        69.21691
771.32        69.49874
771.73        69.96947
772.15        70.10226
772.56         69.8636
772.97        69.78755
773.39        69.48384
773.80        69.47992
774.22        69.63377
774.63        69.97331
775.05        70.32643
775.46        70.50517
775.88        70.43053
776.29        70.19831
776.70        69.90144
777.12        69.71782
777.53        69.70332
777.95        69.77657
778.36        69.92464
778.77        70.10377
779.19        70.29079
779.60        70.58046
780.02        70.85291
780.43        70.94211
780.84        70.87676
781.26        70.63454
781.67        70.39751
782.09        70.85765
782.50        71.76577
782.91        71.78886
783.33        70.97296
783.74        70.59618
784.15        70.71983
784.57        70.59561
784.98        70.26643
785.39        70.16985
785.81        70.34214
786.22        70.66598
786.63         71.0759
787.04        71.46794
787.46        71.78966
787.87        72.02747
788.28        72.22697
788.70        72.41892
789.11        72.59594
789.52        72.86629
789.93        73.08975
790.35        72.82069
790.76        72.17168
791.17        71.70146
791.58        71.57036
792.00        71.62164
792.41         71.8318
792.82        72.25677
793.23        72.75923
793.65        72.87697
794.06        72.71377
794.47        72.97131
794.88        73.51366
795.29        73.58465
795.71        73.13977
796.12        72.62707
796.53        72.23714
796.94        72.15316
797.35        72.46398
797.76        73.00494
798.18        73.74823
798.59        74.14439
799.00        74.13483
799.41        73.81882
799.82        73.36337
800.23        73.05727
800.64        72.99686
801.06        73.07449
801.47        73.25378
801.88         73.4009
802.29        73.46236
802.70        73.46488
803.11        73.44718
803.52          73.469
803.93        73.55242
804.34        73.67088
804.75        73.73965
805.17        73.71413
805.58        73.63062
805.99        73.26659
806.40        72.82034
806.81        73.17616
807.22        74.11674
807.63        74.24672
808.04        73.63398
808.45        73.58967
808.86        74.18126
809.27        74.63421
809.68         74.7999
810.09        74.82941
810.50        74.69495
810.91         74.3464
811.32        73.96097
811.73        73.82897
812.14        74.01271
812.55        74.45467
812.96        74.95979
813.37         75.1506
813.78        74.93482
814.19        74.45867
814.60         73.9267
815.01          73.623
815.42        73.61801
815.83        73.81635
816.24        74.14469
816.65        74.45874
817.05        74.67548
817.46        74.79379
817.87        74.82311
818.28        74.71869
818.69        74.49384
819.10        74.16472
819.51         73.8028
819.92        73.55835
820.33        73.48795
820.74        73.54899
821.14        73.73101
821.55        74.01478
821.96         74.3624
822.37        74.78458
822.78        75.15501
823.19        75.24831
823.60        75.00918
824.00        74.48619
824.41        73.87377
824.82        73.51926
825.23        73.50261
825.64        73.75241
826.04        74.09677
826.45        74.13919
826.86         73.8199
827.27        73.28155
827.68        72.74473
828.08        72.57394
828.49        72.81313
828.90        73.36333
829.31         74.0962
829.72        74.79305
830.12        75.37688
830.53        75.81842
830.94        76.12392
831.35        76.26507
831.75        76.26563
832.16        76.04379
832.57        75.69133
832.97        75.34335
833.38        75.06759
833.79         74.9096
834.20         74.8174
834.60        74.67128
835.01        74.48538
835.42        74.26102
835.82        74.17648
836.23        74.45277
836.64        75.13171
837.04        76.15733
837.45        77.11469
837.86        77.47541
838.26        77.11099
838.67        76.20125
839.08        75.13061
839.48        74.47936
839.89        74.43867
840.29        74.81838
840.70        75.41571
841.11        75.91139
841.51        76.21145
841.92         76.3914
842.33        76.48287
842.73        76.51368
843.14        76.46085
843.54        76.32507
843.95        76.18427
844.35        76.24822
844.76        76.51594
845.17        76.90993
845.57        77.30119
845.98        77.43518
846.38        77.26766
846.79        76.88172
847.19        76.31917
847.60        75.61097
848.00        74.85847
848.41        74.09077
848.81        73.51497
849.22        73.42682
849.62        73.89583
850.03        74.79496
850.43        75.91903
850.84        76.67101
851.24        76.91875
851.65        76.69454
852.05         76.2183
852.46        75.82945
852.86        75.62963
853.27        75.58257
853.67          75.513
854.07        75.37807
854.48        75.10663
854.88        74.76685
855.29        74.37757
855.69        74.18871
856.10        74.17438
856.50        74.38491
856.90        74.60896
857.31        74.57011
857.71        74.27229
858.12         73.7633
858.52        73.31441
858.92        73.31818
859.33        73.83809
859.73         74.7806
860.13        75.84885
860.54        76.57494
860.94        76.85564
861.34        76.71201
861.75         76.2683
862.15        75.82196
862.55        75.45175
862.96        75.13262
863.36        74.71844
863.76        73.99818
864.17        73.00327
864.57        71.88071
864.97        70.93027
865.38        70.53377
865.78        70.79438
866.18         71.5751
866.58        72.63704
866.99        73.46348
867.39        73.87639
867.79        73.94836
868.19        73.75632
868.60        73.43476
869.00        73.06564
869.40        72.60622
869.80        72.22195
870.21        72.19785
870.61        72.63276
871.01        73.42657
871.41        74.30215
871.81        74.80277
872.22        74.79681
872.62        74.38073
873.02        73.78041
873.42        73.39137
873.82        73.33825
874.22        73.54572
874.63        73.77661
875.03        73.66262
875.43         73.1479
875.83        72.35558
876.23        71.66436
876.63        71.68905
877.03        72.53221
877.44        73.93042
877.84        75.41502
878.24        76.11527
878.64        75.83419
879.04        74.89537
879.44        73.71574
879.84        72.90919
880.24        72.64463
880.64        72.70325
881.04        73.02826
881.44        73.52757
881.84        74.11935
882.24        74.87536
882.65        75.51906
883.05        75.68897
883.45        75.27441
883.85        74.41747
884.25        73.54025
884.65        73.30751
885.05        73.83605
885.45        74.87376
885.85         76.1132
886.25        77.01366
886.65        77.35501
887.05        77.31857
887.45        76.85342
887.85        75.90265
888.25        74.62373
888.65         73.1339
889.04        71.83345
889.44        71.32153
889.84        71.62249
890.24        72.61972
890.64        73.97639
891.04        74.93732
891.44        75.19585
891.84        74.94632
892.24        74.49097
892.64        74.27429
893.04        74.40487
893.44        74.73022
893.83         75.1545
894.23        75.44981
894.63        75.56855
895.03        75.59259
895.43        75.58726
895.83        75.63368
896.23        75.74545
896.63         75.8656
897.02        75.93147
897.42        75.91235
897.82         75.7803
898.22        75.59711
898.62        75.35934
899.01        75.06512
899.41        74.72845
899.81        74.35561
900.21        74.08739
900.61        74.13977
901.00        74.52271
901.40        75.16521
901.80        75.78442
902.20        75.91665
902.59        75.46555
902.99        74.57862
903.39        73.58392
903.79         72.9766
904.18        72.87714
904.58        73.17218
904.98        73.62085
905.38        73.85315
905.77        73.74934
906.17        73.42259
906.57        73.06483
906.96        73.00485
907.36        73.28058
907.76        73.80795
908.15        74.33891
908.55        74.34743
908.95        73.80649
909.34        72.89359
909.74        72.07223
910.14        71.91032
910.53        72.55874
910.93        73.77102
911.33        75.27128
911.72         76.6341
912.12        77.59319
912.52        78.25752
912.91        78.64335
913.31        78.77459
913.70        78.69077
914.10        78.33038
914.49        77.73725
914.89        76.98398
915.29        76.15234
915.68        75.31356
916.08        74.60331
916.47        74.06287
916.87        73.77311
917.26        73.69684
917.66        73.86434
918.05        74.33965
918.45        75.02923
918.84        75.90862
919.24         76.7149
919.64        77.16441
920.03        77.17349
920.42        76.80161
920.82        76.21968
921.21         75.6044
921.61        75.06688
922.00        74.60159
922.40        74.28587
922.79        74.33211
923.19           74.72
923.58        75.39215
923.98        76.15417
924.37        76.70235
924.77        76.93825
925.16        76.94407
925.55        76.75467
925.95        76.45068
926.34        76.12037
926.74        75.73799
927.13        75.41421
927.52        75.29887
927.92        75.41463
928.31        75.68745
928.70        76.02341
929.10        76.23753
929.49        76.26368
929.89        76.12626
930.28        75.80692
930.67        75.21548
931.07        74.40491
931.46        73.46617
931.85        72.62061
932.24        72.18688
932.64        72.24316
933.03        72.73644
933.42        73.49922
933.82        74.19849
934.21        74.71291
934.60        75.01329
934.99        75.24143
935.39        75.64127
935.78        76.29422
936.17        77.07885
936.56         77.5527
936.96        77.04958
937.35        75.55257
937.74        73.43569
938.13        71.44864
938.53        70.51927
938.92        70.77288
939.31        71.99106
939.70        73.68741
940.09        74.88944
940.49        75.20158
940.88        74.86576
941.27        74.26269
941.66        73.99952
942.05        74.23766
942.44        74.81819
942.84         75.3642
943.23        75.33127
943.62        74.55811
944.01        73.26965
944.40        72.09235
944.79        71.90863
945.18        72.86159
945.57        74.69857
945.97        76.60872
946.36        77.42073
946.75        76.70289
947.14        74.84458
947.53         72.7213
947.92        71.65599
948.31        71.98767
948.70         73.3834
949.09        75.13208
949.48        75.94721
949.87        75.44519
950.26        74.03749
950.65        72.52797
951.04        72.02588
951.43        72.76027
951.82        74.42764
952.21        76.26487
952.60         76.8956
952.99        75.96393
953.38        73.95994
953.77        71.90636
954.16        71.15656
954.55        71.97121
954.94         74.0465
955.33        76.52023
955.72         77.5251
956.11        76.42458
956.50        73.88798
956.89         71.1667
957.28        69.86571
957.66        70.34892
958.05        72.08255
958.44        74.31905
958.83        75.54366
959.22        75.21949
959.61        73.89004
960.00        72.31078
960.39        71.42863
960.78        71.41959
961.16        71.97774
961.55        72.68098
961.94         72.8401
962.33        72.24546
962.72        71.29263
963.11        70.27909
963.49        69.54192
963.88        69.19221
964.27        69.07884
964.66        69.33702
965.04        70.26595
965.43        71.74934
965.82        73.69577
966.21        75.57215
966.60        76.41053
966.98        75.99612
967.37        74.70135
967.76        73.06083
968.15        71.79611
968.53        71.09025
968.92        70.69544
969.31        70.70191
969.69        71.28444
970.08        72.34302
970.47        73.96712
970.86        75.53075
971.24        75.93046
971.63        74.92993
972.02        72.88777
972.40        70.76273
972.79        70.12296
973.17        71.24357
973.56        73.52597
973.95        76.19539
974.33        77.74637
974.72        77.59682
975.11        76.29986
975.49         74.4754
975.88        73.34319
976.26        73.22665
976.65        73.68767
977.04        74.51387
977.42        75.33356
977.81        75.80322
978.19        76.15477
978.58        76.33158
978.96        76.11443
979.35        75.56532
979.74        74.74261
980.12        73.94314
980.51        73.66016
980.89        74.08782
981.28        74.92004
981.66        76.14253
982.05        77.41174
982.43        78.66899
982.82        79.95209
983.20        80.82437
983.59        80.43474
983.97        78.75661
984.35        76.08412
984.74        73.59523
985.12        72.92844
985.51        74.28157
985.89        77.27224
986.28        80.59087
986.66        82.38209
987.04        81.92697
987.43        79.80058
987.81        76.93701
988.20        75.27829
988.58        75.35939
988.96        76.66589
989.35         78.1422
989.73        78.31892
990.12        76.76508
990.50         74.1328
990.88        71.25721
991.27        69.44207
991.65        69.02582
992.03        69.63106
992.42        70.83704
992.80        72.32233
993.18        73.78932
993.56        75.36168
993.95        76.78189
994.33         77.6991
994.71        77.90677
995.10        77.53095
995.48        76.83266
995.86        76.33257
996.24        76.20968
996.63         76.2526
997.01        76.65788
997.39        77.51728
997.77        78.71795
998.15        80.19809
998.54        81.44663
998.92        81.68693
999.30           80.77
999.68        78.91599
1000.06        76.69473
1000.45        75.20837
1000.83        74.93951
1001.21        75.57795
1001.59        76.84466
1001.97        78.21278
1002.35        79.39334
1002.73        80.52016
1003.12        81.30202
1003.50        81.18319
1003.88        80.19917
1004.26        78.56161
1004.64        76.83059
1005.02        76.02486
1005.40         76.4134
1005.78        77.61406
1006.16        79.32602
1006.54        81.17539
1006.92        82.99695
1007.30        84.90449
1007.69        86.49686
1008.07         87.0622
1008.45        86.28329
1008.83        84.35495
1009.21        81.85783
1009.59        79.86563
1009.97        78.77503
1010.35        78.31659
1010.73         78.5619
1011.11        79.52071
1011.49        80.97915
1011.86        82.96677
1012.24        84.54993
1012.62        84.47249
1013.00        82.47626
1013.38        78.73608
1013.76        74.27283
1014.14         71.4361
1014.52         71.1688
1014.90        72.94537
1015.28        75.54919
1015.66        76.92074
1016.04        76.49083
1016.41         75.0078
1016.79        72.99602
1017.17        71.61398
1017.55        71.39028
1017.93        71.78253
1018.31        72.70808
1018.69        74.38309
1019.06        77.00763
1019.44        80.76926
1019.82        85.60126
1020.20        89.39315
1020.58        90.18491
1020.95        88.24195
1021.33        84.91035
1021.71        81.44624
1022.09        77.85065
1022.46        73.29008
1022.84         68.3982
1023.22        65.21168
1023.60        65.17885
1023.97        67.84527
1024.35         71.2338
1024.73        73.25322
