SpectraSmart Spectrum 2.9.0.0
--------- Device Information -----------
Spectrum Name :  反射率_0
Saving Time :  2024/04/30 00:55:42
Spectro-Module Model Name : SE2030-DUVN
Spectro-Module Serial Number : OS361AC55029948
Wavelength Start : 200
Wavelength End : 1025
Wavelength Unit : Wavelength(nm)
Spectrum Unit : Reflectance(%)
-----------Spectrum Setting ------------
Integration Time : 20ms
Average : 10
Boxcar : 0
Background removal :  enabled
linearity correction :  enabled
SC :  disabled
Intensity correction :  disabled
DWT denoise :  enabled
savitzky-golay :  disabled
FFT :  disabled
Running average :  disabled
Kalman :  disabled
High pass :  disabled
---------------BEGIN--------------------
Wavelength(nm)             Reflectance(%)
200.29               0
200.75         24.4377
201.21        11.50699
201.67        -3.92786
202.13       -15.43918
202.58       -19.87035
203.04       -17.35701
203.50       -8.988356
203.96        2.127657
204.42        13.28705
204.88        23.48146
205.34        32.14058
205.80        38.54876
206.26        42.08201
206.72        43.39181
207.18        41.47138
207.64        34.99809
208.10        24.39802
208.55        9.749634
209.01       -4.862701
209.47        -8.80756
209.93      -0.5117779
210.39        14.26043
210.85        27.54982
211.31        32.94134
211.77        30.28465
212.23        20.09843
212.69        4.827186
213.14       -1.366597
213.60        8.198829
214.06        24.69138
214.52        38.88819
214.98        45.55873
215.44         45.8984
215.90        42.39346
216.36        37.15294
216.81        33.82725
217.27        34.37782
217.73         37.9705
218.19        43.87612
218.65        48.07833
219.11        47.67743
219.57        44.58662
220.02         40.8769
220.48        37.71418
220.94        34.53792
221.40        30.27138
221.86        24.67387
222.32        19.83842
222.77        17.89196
223.23        18.57219
223.69        19.68893
224.15        19.68559
224.61         18.5616
225.06        16.39886
225.52        14.77131
225.98        16.31852
226.44        20.64421
226.90        25.67813
227.36        29.28701
227.81        30.13701
228.27        28.59963
228.73        25.29046
229.19        21.59225
229.65        20.46449
230.10        22.41009
230.56        25.69753
231.02        28.71628
231.48        30.15828
231.93        30.03172
232.39        28.99317
232.85        27.48713
233.31        26.34106
233.77        25.89032
234.22        25.90727
234.68        26.20019
235.14        26.43674
235.60        26.53605
236.05        26.70553
236.51        27.08176
236.97        27.77763
237.43        28.87236
237.88        30.40474
238.34        32.37712
238.80        34.86591
239.26        37.39035
239.71        39.71231
240.17        41.03691
240.63         40.8333
241.08        38.89757
241.54        34.43175
242.00        27.29359
242.46        21.66595
242.91        23.39182
243.37        32.62717
243.83        43.83502
244.28        51.11402
244.74        53.78976
245.20        52.66776
245.66        49.20623
246.11        47.06571
246.57        48.33737
247.03        52.61792
247.48        56.55791
247.94        53.39643
248.40        44.86578
248.85        35.91218
249.31        30.73314
249.77        31.14988
250.22         37.1278
250.68        49.90348
251.14        69.99315
251.59        83.58466
252.05        78.89742
252.51        66.17176
252.96        55.39209
253.42        50.17416
253.88         48.6647
254.33        48.77663
254.79        49.93657
255.25        50.58248
255.70        50.19375
256.16        49.83406
256.62        49.59516
257.07        49.42713
257.53        49.56501
257.99        49.72765
258.44        49.61144
258.90        49.45416
259.35        48.98848
259.81        48.57863
260.27        48.17506
260.72        47.77372
261.18        47.47924
261.63         47.0303
262.09        46.54102
262.55        45.89357
263.00        45.07092
263.46        44.31224
263.91        43.44225
264.37          42.474
264.83        41.37164
265.28          40.126
265.74        39.06276
266.19        38.48265
266.65        38.45592
267.11        38.77782
267.56        39.12632
268.02        39.04182
268.47        38.40626
268.93        37.37384
269.38        36.09803
269.84        34.97103
270.30        34.13071
270.75        33.49722
271.21        33.00038
271.66        32.50476
272.12        31.96393
272.57        31.40321
273.03        30.88908
273.48        30.43207
273.94         30.0768
274.39        29.75507
274.85        29.43194
275.31        29.00488
275.76        28.44815
276.22        27.82258
276.67         27.1791
277.13        26.67312
277.58         26.2855
278.04        26.00343
278.49        25.70855
278.95        25.30956
279.40        24.76092
279.86        24.17948
280.31        23.60069
280.77        23.18004
281.22        22.91459
281.68        22.77539
282.13        22.73002
282.59        22.77531
283.04        22.86659
283.50        22.98591
283.95        23.05235
284.41        22.94765
284.86        22.65623
285.32        22.26691
285.77        21.82671
286.22        21.46801
286.68        21.23941
287.13        21.07267
287.59        21.01523
288.04        21.08387
288.50        21.26811
288.95        21.52382
289.41        21.75407
289.86        21.77889
290.32        21.60046
290.77        21.28379
291.22        20.94239
291.68         20.7578
292.13        20.77682
292.59        20.95954
293.04         21.3107
293.50         21.8577
293.95        22.57445
294.40        23.45517
294.86        24.35334
295.31         25.0526
295.77        25.50077
296.22        25.73582
296.68        25.93039
297.13        26.34309
297.58        27.03851
298.04        27.91308
298.49        28.79678
298.95         29.4183
299.40        29.72044
299.85        29.80292
300.31        29.82953
300.76        29.99049
301.21        30.36033
301.67        30.87447
302.12        31.40929
302.58        31.92095
303.03          32.369
303.48        32.64973
303.94        32.78571
304.39        33.50784
304.84        33.64972
305.30        34.11945
305.75        34.50082
306.20        34.76744
306.66        34.91008
307.11        34.95127
307.57        34.94691
308.02         34.8993
308.47        34.83731
308.93        34.76401
309.38        34.68875
309.83        34.67477
310.29        34.72954
310.74        34.83828
311.19        34.93344
311.65        34.90054
312.10        34.71684
312.55        34.41517
313.00        34.10177
313.46        33.94477
313.91        33.96202
314.36        34.10151
314.82        34.23891
315.27        34.19422
315.72        33.91574
316.18        33.47695
316.63        32.97108
317.08         32.5555
317.53        32.28746
317.99        32.13393
318.44        32.04974
318.89        31.96743
319.35        31.85954
319.80        31.73942
320.25        31.64332
320.70        31.62579
321.16        31.67803
321.61        31.78921
322.06        31.85696
322.51        31.73045
322.97        31.38473
323.42        30.87694
323.87        30.34396
324.32        30.00552
324.78        29.90247
325.23        29.98537
325.68        30.12533
326.13        30.10255
326.59        29.84833
327.04        29.44585
327.49        28.98412
327.94        28.61979
328.39        28.39629
328.85        28.24473
329.30        28.14094
329.75        28.00191
330.20        27.80437
330.66        27.59072
331.11        27.36512
331.56        27.10074
332.01        26.80358
332.46        26.46588
332.92        26.15585
333.37        26.03049
333.82        26.10702
334.27        26.34171
334.72        26.59519
335.17        26.63048
335.63        26.38517
336.08         25.9398
336.53        25.41338
336.98        25.02891
337.43        24.86358
337.88         24.8522
338.34         24.9383
338.79        25.05042
339.24        25.14365
339.69        25.24907
340.14        25.33403
340.59        25.33993
341.05        25.25879
341.50        25.08858
341.95         24.8917
342.40        24.78322
342.85        24.78388
343.30        24.86056
343.75        24.93185
344.20        24.86514
344.66        24.64426
345.11        24.31307
345.56        23.95655
346.01        23.70429
346.46        23.59797
346.91        23.59979
347.36        23.66433
347.81        23.72436
348.26         23.7528
348.72        23.76043
349.17        23.75712
349.62        23.75869
350.07         23.7643
350.52        23.76158
350.97        23.72442
351.42        23.61648
351.87        23.44302
352.32        23.23322
352.77        23.03538
353.22        22.92411
353.67        22.91845
354.13        22.98796
354.58        23.11312
355.03        23.26145
355.48        23.40473
355.93        23.54204
356.38        23.62452
356.83        23.58202
357.28        23.41035
357.73        23.13205
358.18        22.81959
358.63        22.59159
359.08        22.47571
359.53        22.43895
359.98         22.4289
360.43         22.3563
360.88        22.19991
361.33        21.99802
361.78        21.77736
362.23        21.57718
362.68        21.41479
363.13        21.27394
363.58        21.16718
364.03        21.11679
364.48         21.1173
364.93        21.15862
365.38        21.19847
365.83        21.16831
366.28        21.05267
366.73        20.87003
367.18        20.65775
367.63        20.47766
368.08         20.3479
368.53        20.25299
368.98        20.17626
369.43        20.08754
369.88        19.98107
370.33        19.87459
370.78        19.77522
371.23        19.69333
371.68        19.62851
372.13        19.56174
372.58        19.50106
373.03        19.46343
373.48        19.44183
373.93        19.43113
374.38        19.37658
374.83        19.19085
375.28         18.8751
375.72        18.46955
376.17        18.08554
376.62        17.84476
377.07         17.7697
377.52        17.81489
377.97        17.92906
378.42        18.02286
378.87        18.06203
379.32        18.07527
379.77        18.05456
380.22        17.99022
380.67         17.8863
381.11        17.73136
381.56        17.58008
382.01        17.52531
382.46        17.58403
382.91        17.73792
383.36        17.89226
383.81        17.89894
384.26        17.73466
384.71        17.44205
385.15        17.13586
385.60        17.02344
386.05        17.12755
386.50        17.37467
386.95        17.62746
387.40        17.67225
387.85        17.47279
388.29        17.10903
388.74        16.72021
389.19        16.43587
389.64        16.29058
390.09        16.23199
390.54        16.24085
390.98        16.28609
391.43        16.34818
391.88        16.43249
392.33        16.49582
392.78        16.49033
393.23        16.41492
393.67        16.24514
394.12        16.04302
394.57        16.00683
395.02        15.91796
395.47        15.94007
395.91        15.97328
396.36        15.95527
396.81        15.87676
397.26        15.76383
397.71        15.64393
398.15         15.5475
398.60          15.505
399.05        15.46976
399.50        15.43095
399.95        15.44217
400.39        15.41846
400.84        15.35841
401.29        15.25547
401.74        15.19256
402.18        15.18123
402.63        15.17063
403.08        15.16259
403.53        15.17145
403.97        15.19323
404.42        15.22453
404.87        15.24038
405.32        15.20087
405.76        15.09691
406.21        14.94597
406.66        14.79079
407.11        14.70138
407.55        14.69721
408.00        14.75921
408.45        14.83288
408.90        14.81772
409.34        14.68985
409.79        14.48104
410.24        14.27713
410.68        14.20592
411.13        14.29167
411.58        14.49434
412.03        14.71459
412.47        14.78423
412.92        14.65375
413.37        14.39236
413.81        14.10163
414.26        13.95461
414.71        13.97549
415.15        14.11251
415.60        14.28911
416.05        14.39577
416.49        14.39481
416.94        14.32748
417.39        14.21764
417.83        14.09827
418.28        13.99242
418.73        13.88198
419.17        13.79344
419.62        13.77281
420.07        13.82128
420.51        13.92458
420.96        14.03232
421.41        14.05485
421.85        13.97194
422.30        13.82792
422.74          13.663
423.19        13.55987
423.64        13.53114
424.08        13.55972
424.53        13.61363
424.98        13.66339
425.42        13.69656
425.87        13.71225
426.31        13.70946
426.76        13.70776
427.21        13.66426
427.65        13.59986
428.10        13.51883
428.54        13.41049
428.99        13.29477
429.44        13.26519
429.88        13.28907
430.33        13.14553
430.77        12.92387
431.22        13.04619
431.66        13.45678
432.11        13.63968
432.56        13.51841
433.00        13.40287
433.45        13.31715
433.89        13.02069
434.34         12.6857
434.78        12.78657
435.23        13.21576
435.67        13.38337
436.12        13.24352
436.57        13.11745
437.01        13.06242
437.46         13.0388
437.90        13.06104
438.35        13.12747
438.79        13.19925
439.24        13.19279
439.68        13.11473
440.13        13.04853
440.57         12.9849
441.02        12.91503
441.46        12.85014
441.91        12.70195
442.35        12.53807
442.80        12.72454
443.24        13.14337
443.69        13.15897
444.13        12.79741
444.58         12.6478
445.02        12.71127
445.47        12.66583
445.91        12.52627
446.36        12.48156
446.80        12.53626
447.24        12.64257
447.69        12.76247
448.13        12.83676
448.58        12.85062
449.02        12.82392
449.47        12.78653
449.91        12.77722
450.36         12.8073
450.80         12.8599
451.25        12.91494
451.69        12.94091
452.13        12.92853
452.58        12.89828
453.02        12.85719
453.47        12.81514
453.91        12.77415
454.36        12.76574
454.80          12.735
455.24        12.74141
455.69        12.76807
456.13        12.80856
456.58        12.84814
457.02        12.85047
457.46        12.81491
457.91        12.75326
458.35        12.68517
458.79        12.64547
459.24        12.65031
459.68        12.69266
460.13        12.76325
460.57        12.78686
461.01        12.85447
461.46        12.84532
461.90        12.81471
462.34         12.9205
462.79        13.10663
463.23        13.08824
463.68        12.89582
464.12        12.81957
464.56        12.87226
465.01        12.91423
465.45        12.91471
465.89        12.88578
466.34        12.84667
466.78        12.85638
467.22        12.93829
467.67        12.92397
468.11        12.82267
468.55        12.70077
468.99        12.60346
469.44        12.56676
469.88        12.60092
470.32        12.69942
470.77        12.81932
471.21        12.90341
471.65        12.92821
472.10        12.91642
472.54         12.8906
472.98        12.90225
473.42        12.96202
473.87        13.04906
474.31        13.13846
474.75        13.19531
475.20        13.21474
475.64        13.20572
476.08        13.18428
476.52        13.17112
476.97        13.17363
477.41        13.18248
477.85        13.20034
478.29        13.22992
478.74        13.27393
479.18        13.32573
479.62        13.37101
480.06        13.41903
480.50        13.47528
480.95        13.41739
481.39        13.46729
481.83        13.52369
482.27        13.66081
482.72        13.74912
483.16        13.94739
483.60        14.05027
484.04        14.10409
484.48        14.12291
484.93         14.1385
485.37        14.22858
485.81        14.34951
486.25        14.45262
486.69        14.05867
487.14        14.33601
487.58        14.98004
488.02           15.06
488.46        15.07952
488.90        15.27004
489.34        14.86574
489.79        14.88466
490.23        15.02424
490.67        15.32731
491.11         15.6643
491.55        15.68282
491.99        15.46861
492.43        15.51836
492.88        15.85539
493.32        16.15495
493.76        16.35851
494.20        16.55524
494.64        16.73693
495.08        16.87352
495.52        16.96701
495.96        17.06981
496.41        17.19777
496.85        17.23749
497.29        17.22374
497.73        17.52008
498.17        17.85075
498.61        17.94282
499.05        17.76073
499.49        17.71547
499.93        17.84421
500.37        17.98301
500.82        18.10563
501.26        18.21359
501.70        18.29854
502.14        18.38749
502.58        18.49724
503.02        18.63057
503.46        18.78926
503.90         18.9725
504.34        19.15652
504.78        19.30005
505.22        19.39059
505.66        19.43344
506.10         19.4445
506.54        19.47357
506.98        19.53656
507.42         19.5855
507.86        19.59167
508.30        19.72981
508.74        19.63757
509.18        19.61928
509.62        19.60585
510.06        19.66483
510.50        19.80313
510.94         20.0025
511.38        20.21698
511.82        20.35982
512.26        20.40675
512.70        20.38052
513.14        20.31994
513.58        20.28735
514.02        20.30206
514.46        20.34726
514.90         20.4021
515.34        20.43292
515.78        20.43071
516.22         20.4088
516.66        20.38584
517.10        20.38834
517.54        20.41913
517.98        20.46337
518.42        20.49926
518.86        20.49386
519.30        20.44046
519.74        20.35494
520.18        20.25191
520.62        20.15164
521.06        20.06565
521.50         19.9921
521.93        19.94331
522.37        19.93242
522.81        19.96048
523.25        20.01845
523.69        20.08658
524.13         20.1342
524.57        20.15017
525.01        20.13861
525.45        20.09991
525.89        20.03899
526.32        19.95854
526.76        19.86284
527.20        19.76198
527.64        19.67324
528.08        19.60014
528.52        19.54066
528.96        19.48578
529.40        19.41843
529.83        19.33515
530.27        19.24659
530.71         19.1588
531.15        19.08358
531.59        19.02423
532.03        18.97439
532.46        18.93448
532.90        18.91171
533.34        18.90275
533.78        18.90712
534.22        18.90796
534.66        18.87908
535.09        18.81563
535.53        18.73086
535.97        18.64792
536.41         18.6107
536.85        18.62751
537.28        18.68359
537.72         18.7509
538.16        18.78679
538.60        18.78086
539.04        18.75163
539.47        18.71073
539.91        18.69403
540.35        18.70774
540.79        18.74809
541.22          18.817
541.66        18.92128
542.10        19.05581
542.54        19.21703
542.97        19.39477
543.41        19.57385
543.85        19.74716
544.29        19.91932
544.72        20.07451
545.16        20.20526
545.60        20.31121
546.04        20.38818
546.47        20.46737
546.91        20.63025
547.35        20.87098
547.79        21.10499
548.22        21.29916
548.66        21.51702
549.10        21.75791
549.53         21.9148
549.97        21.96728
550.41        22.33558
550.84        22.35542
551.28        22.52462
551.72        22.63827
552.15        22.88837
552.59        22.98793
553.03         23.1654
553.46        23.33325
553.90        23.48153
554.34        23.60316
554.77        23.72857
555.21        23.85567
555.65         23.9166
556.08        23.93476
556.52        24.02778
556.96        24.19227
557.39        24.36522
557.83        24.53544
558.27        24.68463
558.70        24.81963
559.14        24.98163
559.57        25.14489
560.01        25.27647
560.45        25.36343
560.88        25.31492
561.32        25.29639
561.75        25.32271
562.19        25.43053
562.63         25.4874
563.06         25.4932
563.50        25.55548
563.93        25.66133
564.37        25.75639
564.80         25.8309
565.24        25.91514
565.68        26.00751
566.11        26.11746
566.55        26.24629
566.98        26.34853
567.42        26.46564
567.85        26.61283
568.29        26.79595
568.72        27.07757
569.16        27.45232
569.60        27.38494
570.03        27.72177
570.47        27.75698
570.90        27.74449
571.34        28.00705
571.77        28.08189
572.21        28.32468
572.64         28.5278
573.08        28.70318
573.51        28.87704
573.95        28.86498
574.38        28.83633
574.82        29.12074
575.25         29.0354
575.69         28.9351
576.12        28.62527
576.56        29.00282
576.99        29.14334
577.42        29.00482
577.86        28.89418
578.29        28.86743
578.73        29.14871
579.16         28.7788
579.60        28.85796
580.03        28.73558
580.47         28.6019
580.90        28.55542
581.33        28.32325
581.77        28.21934
582.20        28.08486
582.64         27.9158
583.07         27.7467
583.51        27.60249
583.94        27.59789
584.37        27.46382
584.81        27.25694
585.24        27.29253
585.68        27.34454
586.11        27.37717
586.54        26.92705
586.98        26.93421
587.41        27.13979
587.85         27.2319
588.28        26.67438
588.71        26.93395
589.15        26.71301
589.58        26.55654
590.01        26.70051
590.45        26.68147
590.88        26.69544
591.31        26.78377
591.75        26.89613
592.18        26.89921
592.61         26.8465
593.05        26.58728
593.48        26.92832
593.91        27.01414
594.35        26.74377
594.78        26.83678
595.21        27.18825
595.65        27.29712
596.08        27.14865
596.51         27.6301
596.94        27.86946
597.38        28.24118
597.81        28.44938
598.24        28.55196
598.68        28.89699
599.11        29.09401
599.54        29.58029
599.97        29.90511
600.41        30.00108
600.84        30.34346
601.27        30.73431
601.70        31.22652
602.14        31.70976
602.57        32.04251
603.00        32.24476
603.43        32.61675
603.87        33.07007
604.30         33.6371
604.73        33.97158
605.16         34.4521
605.60         34.9432
606.03        35.38353
606.46        35.71467
606.89        36.04377
607.32        36.41465
607.76        36.80717
608.19        37.20046
608.62        37.57817
609.05        37.96634
609.48        38.32254
609.92        38.41854
610.35        39.03854
610.78        39.33207
611.21        39.24997
611.64        39.48658
612.07        39.99668
612.50          40.304
612.94        40.73339
613.37        41.09891
613.80        41.27282
614.23        41.72673
614.66        41.94491
615.09        42.10119
615.52        42.30863
615.96        42.55861
616.39        42.79577
616.82        42.90433
617.25        43.20847
617.68        43.16716
618.11        43.69588
618.54        43.88882
618.97        44.07969
619.40        44.09807
619.84        44.20296
620.27         44.4191
620.70        44.70567
621.13        44.97322
621.56        44.94609
621.99        44.69606
622.42        44.82784
622.85        45.19272
623.28        45.03645
623.71        45.55421
624.14        44.80544
624.57        45.31463
625.00        45.19337
625.43        45.08582
625.86        44.94955
626.29        44.81631
626.72        44.69839
627.15        44.57363
627.58        44.54773
628.01        44.54451
628.44        44.22654
628.87        43.67727
629.30         43.4281
629.73         43.4712
630.16        43.33732
630.59        42.98189
631.02        42.80376
631.45         42.5878
631.88        42.32638
632.31         41.9505
632.74        41.51138
633.17        41.03616
633.60        40.57557
634.03        40.14867
634.46        39.73417
634.89        39.32534
635.32        38.91779
635.75        38.50671
636.18        38.09414
636.61        37.68054
637.04        37.26952
637.47        36.87113
637.89        36.46334
638.32        36.03211
638.75        35.66543
639.18        35.38713
639.61        34.83608
640.04        34.66019
640.47        34.37456
640.90        34.16843
641.33        34.02577
641.76        33.92238
642.18        33.80892
642.61        33.65879
643.04         33.4921
643.47        33.35361
643.90        33.30459
644.33        33.35334
644.76        33.52242
645.18        33.73996
645.61        33.79657
646.04        33.64262
646.47        33.69928
646.90        33.94706
647.33         34.1235
647.75        34.22382
648.18        34.42575
648.61        34.73002
649.04        35.06233
649.47        35.42909
649.89        35.84082
650.32        36.27938
650.75        36.81979
651.18        37.42494
651.61        37.85064
652.03         38.1541
652.46        38.76881
652.89        39.56665
653.32        39.90713
653.74        39.95352
654.17        40.10387
654.60        40.69086
655.03        42.14463
655.46        41.45098
655.88        42.89935
656.31        44.93402
656.74         44.9411
657.16        44.26262
657.59        43.61397
658.02        44.46327
658.45        45.10633
658.87        45.69604
659.30        45.89348
659.73        46.62107
660.15        47.02023
660.58        47.22272
661.01        47.34962
661.44        47.46056
661.86        47.51131
662.29        47.57836
662.72        47.93549
663.14        48.49736
663.57        48.65389
664.00        48.47081
664.42           48.55
664.85        48.93613
665.27        49.26813
665.70        49.49049
666.13        49.70997
666.55        49.91738
666.98        50.07509
667.41         50.1934
667.83        50.28371
668.26        50.34845
668.69        50.39871
669.11        50.44151
669.54         50.4906
669.96        50.55244
670.39         50.6232
670.82        50.70769
671.24        50.81844
671.67          50.944
672.09          51.079
672.52        51.21991
672.94        51.40868
673.37        51.24369
673.80        51.63356
674.22        51.46582
674.65        51.65665
675.07         51.9082
675.50        52.25644
675.92        52.62573
676.35        52.78201
676.77         52.6882
677.20        52.82412
677.62        52.38186
678.05        52.54006
678.47        52.96181
678.90        53.16492
679.32         53.0919
679.75        53.08121
680.17        53.13017
680.60        53.01323
681.02        52.82672
681.45         52.8219
681.87         53.0284
682.30        53.42222
682.72        53.88824
683.15        54.03091
683.57         53.8958
684.00        53.94685
684.42        54.18724
684.85        54.30074
685.27        54.29755
685.70        54.28685
686.12        54.32904
686.54        54.68526
686.97        55.23733
687.39        55.48794
687.82        55.38496
688.24        55.37589
688.66        55.47523
689.09         55.3158
689.51        55.12424
689.94        55.00338
690.36        55.03696
690.78        55.13709
691.21        55.29037
691.63        55.52246
692.06        55.78385
692.48        55.97773
692.90        56.08688
693.33        56.17704
693.75        56.24837
694.17        56.23354
694.60        56.17565
695.02        56.17809
695.44        56.25551
695.87         56.4393
696.29        56.66743
696.71        56.68139
697.14        56.52803
697.56        56.52356
697.98        56.70229
698.41        56.87128
698.83        57.02408
699.25        57.29434
699.68        57.60784
700.10        57.80968
700.52         57.8545
700.94        57.79594
701.37        57.67662
701.79         57.5848
702.21        57.54594
702.64        57.55009
703.06        57.59504
703.48        57.68351
703.90        57.81511
704.33        58.00637
704.75        58.21394
705.17        58.41964
705.59        58.58313
706.01        58.70058
706.44          58.786
706.86         58.8402
707.28        58.85996
707.70        58.94677
708.12        59.07496
708.55        58.95982
708.97        58.71194
709.39        58.87894
709.81        59.40396
710.23        59.70402
710.66        59.71959
711.08        59.78526
711.50        59.92893
711.92        60.07704
712.34        60.23868
712.76        60.42801
713.19        60.58608
713.61         60.6575
714.03        60.61578
714.45        60.48809
714.87        60.34848
715.29        60.30939
715.71        60.39441
716.13        60.57058
716.56        60.76033
716.98        60.90431
717.40          60.947
717.82        60.91711
718.24        60.85431
718.66        60.82271
719.08        60.84198
719.50        60.88872
719.92        60.94599
720.34        60.98861
720.76        61.00927
721.19        61.01585
721.61        61.02407
722.03        61.03249
722.45        61.04282
722.87        61.04829
723.29         61.0602
723.71        61.09773
724.13        61.16415
724.55        61.26043
724.97        61.35718
725.39        61.40424
725.81        61.39619
726.23        61.34855
726.65        61.31419
727.07        61.37986
727.49        61.55762
727.91        61.81066
728.33        62.07673
728.75        62.25065
729.17        62.30081
729.59        62.26648
730.01        62.17438
730.43        62.06801
730.85        61.97974
731.27        61.90552
731.69        61.88536
732.10        61.99153
732.52        62.22048
732.94        62.54932
733.36        62.91635
733.78        63.19247
734.20        63.33311
734.62        63.40967
735.04        63.43455
735.46        63.36304
735.88        63.26182
736.30        63.26646
736.72        63.37538
737.13        63.53879
737.55        63.62307
737.97        63.47822
738.39         63.1713
738.81        62.83898
739.23        62.63492
739.65        62.94053
740.06        63.55346
740.48         63.7865
740.90        63.56468
741.32        63.27143
741.74        63.03997
742.16        62.92838
742.57        62.99906
742.99        63.19882
743.41        63.46621
743.83        63.71918
744.25        63.90817
744.67        63.99846
745.08        64.01017
745.50        64.02623
745.92        64.06817
746.34        64.07077
746.75        64.06787
747.17        64.12397
747.59        64.23915
748.01        64.45206
748.42        64.69286
748.84        64.67944
749.26        64.46138
749.68        64.39124
750.09        64.46252
750.51         64.4314
750.93        64.29546
751.35        64.22012
751.76        64.22858
752.18        64.26784
752.60        64.33544
753.01        64.45553
753.43         64.5849
753.85        64.66743
754.27        64.69812
754.68        64.75188
755.10        64.75798
755.52        64.79222
755.93        64.83212
756.35        64.81363
756.77        64.80643
757.18        64.98048
757.60        65.36449
758.02        65.68385
758.43         66.4337
758.85        66.27087
759.26        65.29934
759.68        64.99552
760.10        65.35422
760.51        65.70599
760.93         65.8931
761.34         65.9696
761.76        65.90359
762.18        65.77186
762.59        65.63923
763.01        65.42725
763.42        65.19826
763.84        65.08102
764.26        65.12936
764.67         65.0956
765.09         65.0529
765.50        65.55035
765.92        66.41534
766.33        66.29298
766.75        65.82666
767.16        65.55434
767.58        65.67377
768.00        65.44114
768.41        64.98957
768.83        65.22668
769.24        65.94505
769.66        66.18592
770.07        65.92186
770.49        65.63707
770.90        65.49248
771.32        65.79107
771.73        66.40166
772.15        66.50568
772.56        66.07878
772.97         65.9379
773.39        65.73853
773.80        65.78943
774.22        65.95118
774.63        66.34462
775.05        66.78223
775.46        67.00546
775.88        66.92778
776.29        66.65837
776.70        66.31578
777.12        66.12123
777.53        66.13951
777.95        66.27778
778.36         66.4967
778.77        66.69685
779.19        66.83878
779.60        67.07244
780.02        67.30585
780.43         67.2916
780.84         67.1154
781.26        67.03503
781.67        67.13199
782.09        67.59892
782.50        68.21989
782.91        68.10882
783.33        67.42138
783.74        67.02105
784.15        67.00241
784.57          66.813
784.98        66.49939
785.39        66.41596
785.81        66.59073
786.22        66.91749
786.63        67.34478
787.04        67.78999
787.46        68.19953
787.87        68.55487
788.28         68.8357
788.70        68.98314
789.11        68.98228
789.52        68.94195
789.93        68.84622
790.35        68.50658
790.76        68.03506
791.17        67.82034
791.58        67.91818
792.00        68.01756
792.41        68.11416
792.82        68.52135
793.23        69.10422
793.65         69.1861
794.06        68.87102
794.47         68.9854
794.88         69.4377
795.29        69.47491
795.71        69.05719
796.12        68.66185
796.53        68.42088
796.94        68.32755
797.35        68.45377
797.76        68.89966
798.18        69.49091
798.59        69.87824
799.00         69.9607
799.41        69.86588
799.82        69.67406
800.23        69.50378
800.64         69.4121
801.06        69.33957
801.47        69.32512
801.88        69.36125
802.29        69.43748
802.70        69.55327
803.11        69.68806
803.52        69.79658
803.93        69.87064
804.34        69.92189
804.75        69.93055
805.17        69.92173
805.58        69.94374
805.99        69.81039
806.40        69.60866
806.81        69.90611
807.22        70.51416
807.63        70.40852
808.04        69.72272
808.45        69.54351
808.86        69.94911
809.27         70.4493
809.68         70.8243
810.09        70.70466
810.50        70.16113
810.91        69.88206
811.32        69.98081
811.73        70.04199
812.14        70.08287
812.55        70.42491
812.96        70.94897
813.37        71.21767
813.78        71.14948
814.19        70.89672
814.60        70.56661
815.01        70.30714
815.42        70.16286
815.83        70.06104
816.24        70.02689
816.65         70.1188
817.05        70.32792
817.46        70.61201
817.87        70.85168
818.28        70.80521
818.69        70.44439
819.10        69.83944
819.51        69.19959
819.92        68.92088
820.33        69.11662
820.74        69.64851
821.14        70.32977
821.55        70.87938
821.96        71.19555
822.37        71.36885
822.78        71.38937
823.19        71.24939
823.60        70.97831
824.00        70.55668
824.41        70.12614
824.82        69.95319
825.23        70.08013
825.64         70.4623
826.04        70.90166
826.45        70.95493
826.86        70.54751
827.27        69.82046
827.68        69.03508
828.08        68.62728
828.49        68.67151
828.90        69.07669
829.31        69.68845
829.72        70.23422
830.12         70.6325
830.53        70.87707
830.94        71.05814
831.35        71.28654
831.75        71.60024
832.16        71.86328
832.57        72.00955
832.97        71.91228
833.38        71.57178
833.79         71.1202
834.20        70.63927
834.60        70.21288
835.01        69.91354
835.42        69.68399
835.82        69.67527
836.23        70.06384
836.64        70.86577
837.04        72.05177
837.45         73.1698
837.86        73.61102
838.26        73.22514
838.67        72.19155
839.08        70.96931
839.48        70.26594
839.89        70.30004
840.29        70.86088
840.70        71.64206
841.11        72.15328
841.51        72.26425
841.92        72.09201
842.33        71.82813
842.73        71.77063
843.14        71.95601
843.54        72.30087
843.95        72.65611
844.35        72.86446
844.76        72.84969
845.17        72.65698
845.57        72.39714
845.98        72.20499
846.38        72.14147
846.79        72.17251
847.19        72.16319
847.60        71.84708
848.00        71.21871
848.41        70.39445
848.81        69.67455
849.22        69.49381
849.62        69.96589
850.03        70.91844
850.43        72.09326
850.84        72.82638
851.24        72.96157
851.65        72.56728
852.05        71.93565
852.46         71.5125
852.86        71.41879
853.27        71.57353
853.67        71.70664
854.07        71.64125
854.48        71.28867
854.88        70.73726
855.29        70.10692
855.69        69.83627
856.10        69.96384
856.50        70.47058
856.90        70.99044
857.31        71.00995
857.71        70.47763
858.12        69.50939
858.52        68.51431
858.92        68.12687
859.33        68.49305
859.73         69.4622
860.13        70.62679
860.54        71.32669
860.94        71.41187
861.34        70.98401
861.75         70.2943
862.15        69.84058
862.55        69.74584
862.96        69.87757
863.36        69.98177
863.76        69.68972
864.17        68.97081
864.57        68.02364
864.97        67.12624
865.38        66.63364
865.78        66.65767
866.18        67.04465
866.58        67.68747
866.99        68.33957
867.39        68.90401
867.79        69.42064
868.19        69.73284
868.60        69.60858
869.00        69.06282
869.40        68.14281
869.80        67.27529
870.21        67.19878
870.61        68.09624
871.01        69.68889
871.41        71.38063
871.81        72.22042
872.22        71.96257
872.62        70.88834
873.02        69.44861
873.42        68.40731
873.82        68.03737
874.22        68.16267
874.63        68.51929
875.03        68.70139
875.43        68.59962
875.83        68.34091
876.23        68.20393
876.63        68.61767
877.03        69.62562
877.44        70.99471
877.84         72.2953
878.24        72.75652
878.64        72.23946
879.04         71.0543
879.44        69.68658
879.84        68.84385
880.24        68.69804
880.64        69.00983
881.04         69.6132
881.44        70.22514
881.84        70.70891
882.24        71.17194
882.65        71.43457
883.05        71.31999
883.45        70.77801
883.85        69.89662
884.25        69.01781
884.65         68.6741
885.05        68.96519
885.45        69.72043
885.85        70.68916
886.25        71.42015
886.65        71.73055
887.05        71.74361
887.45        71.46301
887.85        70.91785
888.25        70.21066
888.65        69.38108
889.04        68.61105
889.44        68.21483
889.84        68.18832
890.24        68.48381
890.64        68.97664
891.04         69.3699
891.44        69.54961
891.84         69.6074
892.24        69.61894
892.64        69.71124
893.04        69.91805
893.44        70.15798
893.83        70.48555
894.23        70.92422
894.63        71.46075
895.03        72.07225
895.43        72.56313
895.83        72.63664
896.23        72.25291
896.63        71.48932
897.02        70.61092
897.42        70.12271
897.82        70.13431
898.22         70.5519
898.62        71.07659
899.01        71.20653
899.41        70.81143
899.81        70.05656
900.21        69.28889
900.61        69.03793
901.00        69.40265
901.40         70.2032
901.80        71.05309
902.20        71.32979
902.59        70.88824
902.99        69.94462
903.39        68.88566
903.79         68.2828
904.18        68.27309
904.58        68.69461
904.98        69.27477
905.38        69.60382
905.77        69.54267
906.17        69.21957
906.57        68.81761
906.96        68.64636
907.36        68.75402
907.76        69.07278
908.15        69.39925
908.55        69.28679
908.95        68.73454
909.34        67.90481
909.74        67.23632
910.14        67.25529
910.53        68.08836
910.93        69.48491
911.33        71.15337
911.72        72.64872
912.12        73.69347
912.52        74.38754
912.91        74.74043
913.31        74.77554
913.70        74.54981
914.10        74.03564
914.49        73.29726
914.89        72.42918
915.29        71.52536
915.68        70.63836
916.08        69.95132
916.47        69.58277
916.87        69.59852
917.26         69.9241
917.66        70.43826
918.05        70.95087
918.45        71.32662
918.84        71.63016
919.24        71.78027
919.64        71.81277
920.03        71.74449
920.42        71.52605
920.82        71.25116
921.21        70.97892
921.61        70.75137
922.00        70.60071
922.40        70.49214
922.79        70.43539
923.19        70.40972
923.58        70.44817
923.98        70.57441
924.37        70.83521
924.77        71.21283
925.16        71.66878
925.55        72.12754
925.95        72.47588
926.34        72.68876
926.74        72.77187
927.13         72.7331
927.52        72.56208
927.92         72.2888
928.31         71.9083
928.70        71.51248
929.10        71.23341
929.49        71.09862
929.89        71.05152
930.28        71.03242
930.67        70.85112
931.07        70.47694
931.46        70.02348
931.85        69.55098
932.24        69.14142
932.64        68.85455
933.03        68.68329
933.42        68.71382
933.82         69.0778
934.21        69.77219
934.60        70.65194
934.99         71.5843
935.39        72.33583
935.78        72.85817
936.17        73.19025
936.56        73.09576
936.96         72.2669
937.35        70.79358
937.74        68.88581
938.13        67.20558
938.53         66.5883
938.92        67.11293
939.31        68.60857
939.70        70.47386
940.09        71.50887
940.49        71.30322
940.88        70.20033
941.27        68.83096
941.66        68.14943
942.05        68.38586
942.44        69.29539
942.84        70.37021
943.23        70.77657
943.62        70.23593
944.01        69.04729
944.40        67.87771
944.79        67.68087
945.18        68.63341
945.57        70.44064
945.97        72.32811
946.36        73.19588
946.75        72.62813
947.14        71.00809
947.53         69.1388
947.92        68.22827
948.31        68.58166
948.70        69.86813
949.09        71.45162
949.48        72.18756
949.87         71.7255
950.26         70.4488
950.65         69.0131
951.04        68.30344
951.43        68.52546
951.82        69.44646
952.21        70.54053
952.60        70.88114
952.99        70.21938
953.38        68.86264
953.77        67.53682
954.16          67.203
954.55        68.03155
954.94        69.82658
955.33        71.81627
955.72        72.36058
956.11        70.96989
956.50        68.26753
956.89        65.50988
957.28        64.30502
957.66        64.99549
958.05        67.06519
958.44        69.72504
958.83        71.32899
959.22         71.2579
959.61        70.05627
960.00         68.4853
960.39        67.51875
960.78        67.35592
961.16        67.68591
961.55        68.13178
961.94        68.09943
962.33         67.4212
962.72        66.46012
963.11        65.50459
963.49        64.86942
963.88        64.63577
964.27        64.66351
964.66        64.98532
965.04          65.718
965.43        66.72869
965.82        67.98884
966.21        69.17155
966.60        69.68001
966.98        69.40794
967.37        68.59922
967.76        67.60287
968.15        66.89936
968.53        66.59544
968.92         66.4831
969.31        66.68256
969.69         67.4093
970.08        68.58517
970.47        70.29897
970.86        71.82797
971.24        71.93185
971.63        70.40211
972.02        67.67453
972.40        65.02165
972.79        64.42976
973.17        66.21164
973.56        69.64007
973.95        73.53798
974.33        75.66662
974.72        75.23819
975.11        73.01748
975.49        70.03052
975.88        68.17384
976.26        67.95531
976.65        68.72926
977.04        70.06239
977.42        71.17272
977.81        71.56639
978.19        71.66042
978.58        71.42439
978.96        70.64047
979.35        69.44033
979.74        67.86897
980.12        66.46661
980.51        66.17919
980.89        67.28139
981.28        69.34482
981.66        71.99461
982.05        74.27209
982.43        75.88927
982.82        76.99012
983.20        77.32044
983.59        76.41427
983.97        74.41754
984.35        71.56448
984.74        68.94328
985.12         68.0611
985.51        69.09819
985.89        71.73518
986.28         74.8399
986.66        76.82343
987.04        76.98848
987.43         75.7897
987.81        73.82205
988.20         72.4586
988.58        72.06277
988.96        72.28984
989.35        72.40078
989.73        71.46507
990.12        69.27478
990.50         66.3774
990.88        63.55204
991.27        61.98206
991.65        61.92037
992.03        63.00501
992.42        64.75777
992.80        66.75984
993.18        68.67354
993.56        70.61778
993.95        72.25187
994.33        73.10003
994.71        72.96185
995.10        72.01328
995.48        70.74783
995.86        70.01918
996.24        70.06359
996.63        70.59502
997.01        71.59223
997.39        72.73512
997.77         73.7796
998.15        74.79573
998.54         75.4425
998.92        75.20686
999.30        74.02081
999.68        72.01698
1000.06        69.75291
1000.45        68.30682
1000.83        68.13892
1001.21        69.01007
1001.59        70.55383
1001.97        72.08521
1002.35        73.27849
1002.73        74.24593
1003.12         74.9006
1003.50        75.03186
1003.88        74.71015
1004.26        74.04469
1004.64        73.17206
1005.02        72.41447
1005.40        71.92102
1005.78        71.56093
1006.16        71.61537
1006.54        72.47903
1006.92        74.16036
1007.30        76.68114
1007.69        79.16504
1008.07        79.86434
1008.45        78.12817
1008.83        74.36697
1009.21          70.129
1009.59        68.08605
1009.97        68.95027
1010.35        71.94205
1010.73        75.73101
1011.11         78.0679
1011.49         78.2673
1011.86        77.13042
1012.24         75.1335
1012.62        73.19811
1013.00        71.63338
1013.38        70.00752
1013.76        68.47194
1014.14        67.50164
1014.52        67.22958
1014.90        67.75489
1015.28        68.40954
1015.66        67.95835
1016.04          66.159
1016.41        63.34353
1016.79         60.4991
1017.17        59.62112
1017.55        61.05812
1017.93        63.79223
1018.31        66.69617
1018.69        68.99829
1019.06        70.89091
1019.44        72.62157
1019.82        74.69491
1020.20        77.48898
1020.58        80.35513
1020.95        82.32121
1021.33        82.82151
1021.71        81.51516
1022.09        78.35486
1022.46        73.07124
1022.84        66.11427
1023.22        59.75976
1023.60        56.45991
1023.97         56.0688
1024.35         57.5942
1024.73        59.83118
