SpectraSmart Spectrum 2.9.0.0
--------- Device Information -----------
Spectrum Name :  反射率_0
Saving Time :  2024/04/30 00:54:26
Spectro-Module Model Name : SE2030-DUVN
Spectro-Module Serial Number : OS361AC55029948
Wavelength Start : 200
Wavelength End : 1025
Wavelength Unit : Wavelength(nm)
Spectrum Unit : Reflectance(%)
-----------Spectrum Setting ------------
Integration Time : 20ms
Average : 10
Boxcar : 0
Background removal :  enabled
linearity correction :  enabled
SC :  disabled
Intensity correction :  disabled
DWT denoise :  enabled
savitzky-golay :  disabled
FFT :  disabled
Running average :  disabled
Kalman :  disabled
High pass :  disabled
---------------BEGIN--------------------
Wavelength(nm)             Reflectance(%)
200.29               0
200.75        14.68215
201.21        1.637898
201.67       -13.29177
202.13       -23.59504
202.58       -26.41544
203.04       -21.62161
203.50       -11.90799
203.96       -3.801861
204.42      -0.7805759
204.88       -2.239897
205.34       -4.023909
205.80      -0.3461808
206.26        7.569899
206.72        16.20665
207.18        21.35077
207.64        20.05654
208.10        13.25054
208.55        2.062649
209.01        -9.19873
209.47       -10.42138
209.93      -0.5534329
210.39        14.50928
210.85        27.64296
211.31        33.48336
211.77        32.08823
212.23        24.02562
212.69        10.95319
213.14        4.017336
213.60        9.103004
214.06        19.91271
214.52        29.42353
214.98         33.1643
215.44        31.89042
215.90        27.86893
216.36        22.53848
216.81        18.35184
217.27         16.9306
217.73        17.17365
218.19         20.3322
218.65         27.9558
219.11        37.49123
219.57        45.87595
220.02        50.36194
220.48        50.59061
220.94        46.92115
221.40        38.80124
221.86        26.55379
222.32        16.34159
222.77        13.17709
223.23        15.11152
223.69        17.69255
224.15        17.75833
224.61        15.30761
225.06        10.91521
225.52        6.982701
225.98        7.987362
226.44        13.78538
226.90        21.09578
227.36        26.58433
227.81        28.18533
228.27        26.40427
228.73        22.13261
229.19        17.34355
229.65        16.16391
230.10           19.16
230.56        23.85676
231.02        27.92526
231.48          29.421
231.93        28.41068
232.39         25.8676
232.85        22.54401
233.31        19.87547
233.77        18.45901
234.22        17.82142
234.68        17.83742
235.14         18.2496
235.60        18.88643
236.05        19.99554
236.51        21.14798
236.97        21.62847
237.43        21.30981
237.88        20.06337
238.34        18.50039
238.80        19.05845
239.26        22.70471
239.71        28.69579
240.17        34.38352
240.63        36.86348
241.08         35.4275
241.54        29.40539
242.00        18.73931
242.46        10.58513
242.91        14.17749
243.37        28.69217
243.83        45.62617
244.28        56.49426
244.74        60.55797
245.20        59.61674
245.66        54.81623
246.11        49.17149
246.57        44.90356
247.03        41.16651
247.48        37.76607
247.94        34.73542
248.40        32.88176
248.85         32.6019
249.31        33.58849
249.77        35.27255
250.22        37.88806
250.68        42.19291
251.14        48.67272
251.59        53.92648
252.05        54.03406
252.51        51.11422
252.96         48.0779
253.42        46.46452
253.88        45.70167
254.33        45.04256
254.79        44.59254
255.25        44.04951
255.70        43.37505
256.16        43.02823
256.62        42.74874
257.07        42.24017
257.53        41.74499
257.99        41.19841
258.44        40.57726
258.90        40.42879
259.35        40.44474
259.81        40.64833
260.27        40.79806
260.72        40.74696
261.18         40.5951
261.63        40.21281
262.09        39.73328
262.55        39.10172
263.00        38.32053
263.46        37.56249
263.91        36.70518
264.37        35.78515
264.83        34.76007
265.28        33.60622
265.74        32.56175
266.19        31.81104
266.65         31.4334
267.11        31.32668
267.56        31.26898
268.02        30.91545
268.47        30.18958
268.93        29.19557
269.38        28.12396
269.84        27.41919
270.30        27.16348
270.75        27.20973
271.21        27.29941
271.66        27.05458
272.12        26.39745
272.57        25.44807
273.03        24.41905
273.48        23.57342
273.94        23.03931
274.39        22.69445
274.85        22.46787
275.31        22.21629
275.76         21.8847
276.22        21.53577
276.67        21.17549
277.13        20.86527
277.58        20.58336
278.04        20.33204
278.49        20.04746
278.95        19.70979
279.40        19.29202
279.86        18.86855
280.31        18.46071
280.77        18.18872
281.22        18.04059
281.68        17.99692
282.13        18.00791
282.59        18.02866
283.04        18.02767
283.50        17.99894
283.95        17.92686
284.41        17.78515
284.86        17.57323
285.32        17.33648
285.77        17.06428
286.22        16.79212
286.68        16.55314
287.13        16.32597
287.59         16.1842
288.04         16.1934
288.50        16.35672
288.95        16.60849
289.41        16.87333
289.86        17.01535
290.32        17.02785
290.77        16.96757
291.22         16.8612
291.68        16.74959
292.13        16.66123
292.59        16.60051
293.04        16.69263
293.50        17.13985
293.95        17.95032
294.40        19.05862
294.86        20.21903
295.31         21.0525
295.77        21.47115
296.22        21.58137
296.68        21.62525
297.13        21.97119
297.58         22.7151
298.04        23.70103
298.49        24.75387
298.95        25.59497
299.40        26.14631
299.85        26.50941
300.31        26.76822
300.76        26.99327
301.21        27.25007
301.67        27.51344
302.12         27.7843
302.58        28.20924
303.03         28.7849
303.48        29.33745
303.94        29.77337
304.39          30.677
304.84        30.79369
305.30        31.13684
305.75        31.36545
306.20        31.58745
306.66         31.8236
307.11        32.04564
307.57        32.25386
308.02        32.37999
308.47        32.42931
308.93         32.4283
309.38        32.40106
309.83        32.42913
310.29        32.52432
310.74           32.66
311.19        32.76572
311.65        32.72581
312.10        32.52264
312.55        32.20232
313.00        31.87059
313.46        31.69061
313.91        31.68446
314.36        31.79944
314.82        31.93869
315.27        31.96618
315.72        31.82829
316.18        31.57411
316.63        31.23757
317.08        30.88437
317.53        30.55125
317.99         30.2352
318.44        29.93988
318.89        29.67609
319.35        29.44701
319.80         29.2527
320.25        29.11744
320.70        29.07386
321.16        29.10378
321.61        29.19961
322.06        29.26899
322.51        29.17319
322.97        28.88198
323.42        28.44092
323.87        27.94795
324.32        27.56471
324.78        27.32788
325.23        27.21156
325.68        27.14306
326.13        27.00054
326.59        26.74486
327.04        26.42612
327.49        26.10012
327.94        25.86548
328.39        25.73751
328.85        25.66194
329.30        25.58867
329.75        25.39697
330.20        25.06402
330.66        24.64523
331.11        24.19812
331.56        23.78648
332.01         23.4407
332.46        23.13383
332.92        22.90538
333.37        22.84804
333.82        22.95577
334.27        23.20213
334.72        23.44607
335.17        23.44964
335.63        23.15423
336.08         22.6285
336.53        22.01364
336.98        21.57573
337.43          21.399
337.88        21.40805
338.34        21.51149
338.79         21.5775
339.24        21.55104
339.69        21.48867
340.14        21.39383
340.59        21.26758
341.05        21.12396
341.50        20.94324
341.95        20.77824
342.40        20.72866
342.85        20.79979
343.30        20.95452
343.75        21.09157
344.20        21.04676
344.66        20.79611
345.11        20.39299
345.56        19.93109
346.01        19.55778
346.46        19.33151
346.91        19.22005
347.36        19.19968
347.81        19.23316
348.26        19.29408
348.72         19.3794
349.17        19.47539
349.62        19.55723
350.07        19.60644
350.52        19.62093
350.97        19.56477
351.42        19.38999
351.87         19.1086
352.32        18.75459
352.77        18.41981
353.22        18.25027
353.67        18.27917
354.13        18.45704
354.58        18.71229
355.03        18.92569
355.48        19.04633
355.93        19.09861
356.38        19.07589
356.83        18.97248
357.28        18.80242
357.73        18.57093
358.18        18.32097
358.63          18.127
359.08        18.00616
359.53        17.93741
359.98        17.90271
360.43         17.8653
360.88         17.8092
361.33        17.75064
361.78        17.66277
362.23        17.50244
362.68        17.27351
363.13        16.99188
363.58        16.72688
364.03        16.59059
364.48         16.6018
364.93        16.72138
365.38        16.87628
365.83        16.94626
366.28         16.8964
366.73        16.76344
367.18        16.58242
367.63        16.41071
368.08        16.27027
368.53         16.1406
368.98        16.02834
369.43        15.94669
369.88        15.89425
370.33        15.87374
370.78        15.85785
371.23        15.79649
371.68        15.67875
372.13        15.51565
372.58        15.33948
373.03        15.20552
373.48        15.12493
373.93        15.07731
374.38        15.03471
374.83        14.95212
375.28        14.82026
375.72        14.65582
376.17        14.48839
376.62        14.32679
377.07         14.1781
377.52        14.03594
377.97        13.91952
378.42        13.86237
378.87        13.86854
379.32        13.92788
379.77        13.99988
380.22        14.02455
380.67        13.98595
381.11        13.89161
381.56        13.78232
382.01        13.72334
382.46        13.73236
382.91        13.79718
383.36        13.85981
383.81        13.83294
384.26        13.70396
384.71        13.49615
385.15        13.29355
385.60        13.25046
386.05        13.37644
386.50        13.61777
386.95        13.84897
387.40        13.87451
387.85        13.66813
388.29        13.30548
388.74        12.93173
389.19        12.69676
389.64        12.63471
390.09        12.68734
390.54        12.81311
390.98        12.94038
391.43        13.03674
391.88        13.12182
392.33         13.1697
392.78        13.15596
393.23        13.08553
393.67        12.93041
394.12        12.75144
394.57        12.72429
395.02        12.67535
395.47        12.73175
395.91          12.789
396.36        12.75192
396.81        12.60911
397.26        12.40213
397.71        12.19027
398.15        12.05122
398.60         12.0192
399.05        12.03644
399.50         12.0709
399.95        12.13175
400.39        12.14177
400.84        12.10929
401.29        12.03012
401.74        11.97118
402.18        11.94489
402.63        11.90984
403.08        11.87463
403.53         11.8634
403.97        11.87615
404.42        11.90687
404.87        11.93331
405.32        11.91798
405.76        11.84911
406.21        11.74155
406.66        11.62408
407.11        11.54436
407.55          11.519
408.00        11.53828
408.45        11.56591
408.90        11.53481
409.34        11.43146
409.79        11.27736
410.24        11.14664
410.68        11.14996
411.13        11.30522
411.58        11.57684
412.03        11.85935
412.47        11.97295
412.92        11.86441
413.37        11.60042
413.81        11.29506
414.26        11.13934
414.71        11.16257
415.15        11.31051
415.60        11.49267
416.05        11.57334
416.49        11.51209
416.94        11.36253
417.39        11.17513
417.83        11.02399
418.28        10.94134
418.73        10.89612
419.17         10.8897
419.62        10.92665
420.07         10.9977
420.51        11.10278
420.96         11.2052
421.41         11.2387
421.85        11.19002
422.30        11.08959
422.74        10.97631
423.19        10.92988
423.64        10.96045
424.08        11.05017
424.53        11.15644
424.98        11.22725
425.42        11.24246
425.87        11.20634
426.31        11.13243
426.76        11.06107
427.21        10.96668
427.65         10.8659
428.10         10.7551
428.54        10.61187
428.99        10.45566
429.44        10.36857
429.88        10.34433
430.33        10.24101
430.77        10.12674
431.22        10.31556
431.66        10.74403
432.11        10.95917
432.56        10.88338
433.00        10.77365
433.45        10.66387
433.89         10.3888
434.34        10.10116
434.78        10.17024
435.23        10.50509
435.67        10.63054
436.12        10.50779
436.57         10.3963
437.01        10.34438
437.46        10.32305
437.90        10.34543
438.35        10.41073
438.79        10.48199
439.24        10.48261
439.68        10.41689
440.13        10.35139
440.57        10.29411
441.02        10.26477
441.46        10.27143
441.91         10.2298
442.35          10.164
442.80        10.33223
443.24        10.63447
443.69        10.57031
444.13        10.19397
444.58        10.02189
445.02        10.06286
445.47        10.04812
445.91        9.975204
446.36        9.971854
446.80        10.03387
447.24        10.13246
447.69        10.23405
448.13        10.28729
448.58        10.28084
449.02        10.22858
449.47        10.16888
449.91        10.15769
450.36        10.20693
450.80        10.29703
451.25        10.38681
451.69        10.41216
452.13        10.35786
452.58        10.25284
453.02        10.13239
453.47        10.05204
453.91        10.02498
454.36        10.06379
454.80        10.09581
455.24        10.12065
455.69        10.11422
456.13        10.08522
456.58        10.05434
457.02        10.04156
457.46        10.05429
457.91        10.08283
458.35        10.10605
458.79        10.09622
459.24         10.0578
459.68        10.00526
460.13        9.967594
460.57        9.940095
461.01        10.00722
461.46        10.05544
461.90         10.1014
462.34         10.2261
462.79        10.37363
463.23        10.33433
463.68        10.14788
464.12        10.06709
464.56        10.10825
465.01        10.15037
465.45        10.16599
465.89        10.16273
466.34        10.15239
466.78        10.18288
467.22        10.26361
467.67        10.24362
468.11         10.1276
468.55        9.975347
468.99        9.837827
469.44         9.76693
469.88        9.777803
470.32        9.861163
470.77         9.97628
471.21        10.06785
471.65        10.11109
472.10        10.12584
472.54        10.12924
472.98        10.16311
473.42        10.23432
473.87        10.32231
474.31        10.40324
474.75        10.44331
475.20        10.43929
475.64        10.40268
476.08        10.35268
476.52        10.31502
476.97        10.29952
477.41        10.29777
477.85        10.31305
478.29        10.34785
478.74        10.40291
479.18        10.47265
479.62        10.54013
480.06        10.60526
480.50        10.66865
480.95        10.63094
481.39        10.67192
481.83        10.72236
482.27         10.8445
482.72        10.93358
483.16        11.10388
483.60         11.1817
484.04         11.1989
484.48        11.15595
484.93        11.11541
485.37        11.22098
485.81        11.39163
486.25        11.61512
486.69          11.051
487.14        11.31906
487.58        12.10731
488.02        11.98887
488.46        11.95005
488.90        12.35699
489.34        11.85422
489.79        12.03527
490.23        12.08167
490.67        12.29054
491.11        12.49002
491.55        12.52247
491.99        12.44924
492.43        12.53245
492.88        12.78769
493.32        13.02964
493.76        13.22026
494.20        13.40857
494.64        13.58792
495.08        13.73679
495.52        13.84987
495.96        13.95873
496.41        14.07346
496.85        14.10592
497.29        14.08433
497.73        14.30625
498.17        14.54857
498.61         14.5887
499.05        14.41498
499.49        14.38642
499.93        14.53697
500.37        14.72814
500.82        14.91217
501.26        15.04776
501.70        15.11845
502.14        15.15715
502.58        15.20752
503.02        15.32103
503.46        15.50891
503.90         15.7537
504.34        16.00376
504.78         16.1716
505.22        16.23385
505.66        16.21485
506.10        16.15405
506.54        16.13439
506.98        16.18133
507.42        16.23907
507.86        16.27621
508.30        16.42633
508.74        16.37994
509.18        16.39565
509.62        16.40165
510.06        16.43031
510.50        16.48655
510.94        16.56289
511.38        16.64923
511.82        16.72194
512.26        16.77336
512.70        16.80848
513.14        16.83443
513.58        16.86261
514.02        16.89665
514.46        16.93301
514.90        16.96512
515.34        16.98325
515.78        16.98558
516.22         16.9756
516.66        16.96291
517.10        16.96214
517.54        16.97438
517.98        16.99229
518.42        17.00351
518.86        16.98834
519.30        16.94328
519.74        16.87873
520.18        16.80325
520.62        16.72791
521.06        16.66099
521.50        16.60401
521.93        16.56729
522.37        16.56196
522.81        16.58913
523.25        16.63892
523.69        16.69945
524.13        16.75341
524.57        16.79046
525.01        16.80959
525.45        16.79846
525.89        16.74076
526.32        16.63582
526.76        16.49658
527.20        16.34488
527.64        16.21466
528.08        16.11614
528.52        16.04393
528.96        15.98929
529.40        15.93538
529.83        15.87606
530.27        15.81874
530.71        15.76405
531.15        15.71491
531.59        15.67028
532.03        15.62426
532.46        15.57482
532.90        15.52518
533.34        15.47574
533.78        15.43151
534.22          15.386
534.66        15.32782
535.09        15.25662
535.53        15.18087
535.97        15.12145
536.41        15.11684
536.85        15.16991
537.28        15.26407
537.72        15.36248
538.16        15.41014
538.60        15.39439
539.04        15.33777
539.47        15.25944
539.91        15.20486
540.35         15.1861
540.79        15.19802
541.22        15.24565
541.66        15.33988
542.10        15.47448
542.54         15.6424
542.97        15.82886
543.41        16.00887
543.85        16.17398
544.29         16.3337
544.72        16.47043
545.16        16.57277
545.60        16.64303
546.04        16.67899
546.47        16.72942
546.91        16.89808
547.35        17.18297
547.79        17.49966
548.22        17.78308
548.66        18.03025
549.10        18.23012
549.53        18.30969
549.97        18.28247
550.41        18.54825
550.84        18.56973
551.28        18.74474
551.72        18.88598
552.15         19.1271
552.59        19.22084
553.03        19.37045
553.46        19.50828
553.90        19.63201
554.34        19.73946
554.77        19.85178
555.21        19.97206
555.65         20.0522
556.08        20.10969
556.52        20.23785
556.96        20.42304
557.39        20.59549
557.83        20.74199
558.27        20.85358
558.70        20.94108
559.14        21.04748
559.57        21.15816
560.01        21.24587
560.45        21.30782
560.88        21.28013
561.32        21.30169
561.75        21.37567
562.19        21.52421
562.63         21.6286
563.06        21.67803
563.50        21.74738
563.93        21.82969
564.37        21.90384
564.80        21.96492
565.24        22.02396
565.68        22.08695
566.11        22.17823
566.55        22.30152
566.98        22.41822
567.42        22.54905
567.85        22.68067
568.29        22.81045
568.72        23.01195
569.16        23.31745
569.60        23.26169
570.03        23.55724
570.47        23.78927
570.90        23.89979
571.34        24.04747
571.77         24.2042
572.21        24.32019
572.64        24.39338
573.08        24.53547
573.51        24.77698
573.95        24.78867
574.38        24.86819
574.82        25.06164
575.25        25.00288
575.69        24.95744
576.12        24.78788
576.56        25.20749
576.99        25.16432
577.42        25.06244
577.86         25.2106
578.29        24.91451
578.73        24.78819
579.16        24.71447
579.60        24.66297
580.03         24.5519
580.47        24.71865
580.90        24.60703
581.33        24.28452
581.77        24.54223
582.20        24.07434
582.64        23.98067
583.07        23.80092
583.51        23.67932
583.94        23.66299
584.37        23.48837
584.81        23.21806
585.24         23.2311
585.68         23.3574
586.11        23.18911
586.54        22.87058
586.98        22.85487
587.41        23.11595
587.85        23.01446
588.28        22.66929
588.71        23.03295
589.15        22.67229
589.58        22.73708
590.01        22.67116
590.45        22.60316
590.88         22.5466
591.31         22.5749
591.75        22.63536
592.18         22.7294
592.61        22.89672
593.05        22.48312
593.48        22.68183
593.91        22.97384
594.35        22.84824
594.78        23.00413
595.21        23.18915
595.65        23.26497
596.08        23.09282
596.51        23.54936
596.94        23.83175
597.38        24.16851
597.81        24.29919
598.24        24.33816
598.68         24.6089
599.11        24.77714
599.54        25.37815
599.97        25.64628
600.41        25.63305
600.84        26.13429
601.27        26.42895
601.70        26.84384
602.14        27.31284
602.57        27.62167
603.00        27.84792
603.43        28.19255
603.87         28.5693
604.30        29.17834
604.73        29.40271
605.16        29.82055
605.60        30.24858
606.03        30.66276
606.46        31.00228
606.89        31.47594
607.32        31.86103
607.76        32.23248
608.19        32.52696
608.62        32.75264
609.05        32.96178
609.48        33.39565
609.92        33.77191
610.35        34.11171
610.78         34.5698
611.21        34.58142
611.64        35.02607
612.07        35.19539
612.50        35.34238
612.94        35.61169
613.37        36.12538
613.80        36.11454
614.23        36.76597
614.66        36.96087
615.09        37.06762
615.52        37.18904
615.96        37.34755
616.39        37.55745
616.82        37.49819
617.25        37.90467
617.68        37.97044
618.11        38.31488
618.54        38.65705
618.97        38.85177
619.40        38.92842
619.84         38.9649
620.27        39.12056
620.70        39.27126
621.13        39.46901
621.56        39.16565
621.99        39.63323
622.42        39.29781
622.85        39.64893
623.28          39.599
623.71        40.05161
624.14        39.33223
624.57        39.81047
625.00        39.67149
625.43        39.57165
625.86        39.42002
626.29        39.21455
626.72        39.19235
627.15        38.93851
627.58        38.77365
628.01        38.56672
628.44        38.45987
628.87        38.21157
629.30        38.02302
629.73        37.83395
630.16        37.63058
630.59        37.40433
631.02        37.24747
631.45        36.97639
631.88         36.6959
632.31        36.35121
632.74        35.95429
633.17        35.52528
633.60        35.10361
634.03        34.70274
634.46        34.31116
634.89        33.92151
635.32        33.52262
635.75         33.1122
636.18        32.69772
636.61        32.28687
637.04        31.89367
637.47        31.52952
637.89        31.17064
638.32        30.80384
638.75        30.50193
639.18        30.28031
639.61        29.82743
640.04        29.68616
640.47        29.42309
640.90        29.19874
641.33        29.00771
641.76        28.84328
642.18        28.68767
642.61        28.52844
643.04        28.37697
643.47        28.27254
643.90        28.26749
644.33          28.364
644.76        28.57991
645.18        28.83804
645.61        28.93119
646.04        28.81228
646.47        28.85316
646.90        29.05115
647.33        29.20534
647.75        29.31734
648.18        29.53029
648.61        29.84978
649.04         30.2007
649.47        30.58021
649.89        31.05529
650.32        31.57772
650.75        32.01121
651.18        32.37387
651.61         32.8021
652.03        33.32227
652.46        33.91248
652.89        34.48894
653.32        34.87917
653.74        35.20048
654.17        35.36881
654.60        35.91736
655.03        36.97488
655.46        36.52497
655.88        37.68841
656.31         39.7545
656.74        40.06346
657.16        40.05041
657.59        39.15958
658.02        39.19816
658.45        40.04081
658.87        40.39597
659.30        40.77905
659.73        41.33423
660.15         41.7738
660.58        41.92226
661.01        42.05242
661.44        42.15463
661.86        42.12943
662.29        42.08391
662.72        42.42855
663.14        43.07193
663.57        43.27014
664.00        43.06962
664.42        43.14365
664.85         43.5281
665.27        43.81465
665.70        43.96034
666.13        44.11588
666.55        44.28159
666.98        44.41282
667.41        44.51253
667.83        44.58134
668.26        44.61639
668.69        44.62878
669.11        44.64436
669.54        44.68721
669.96        44.76265
670.39        44.91264
670.82        45.09333
671.24         45.1237
671.67        45.03718
672.09        45.10532
672.52         45.3314
672.94        45.53996
673.37         45.3741
673.80         45.7776
674.22        45.72604
674.65        45.90233
675.07        46.03529
675.50        46.15755
675.92        46.26855
676.35        46.35442
676.77        46.42765
677.20        46.48426
677.62        46.54883
678.05        46.60451
678.47        46.74268
678.90        46.88416
679.32        47.01906
679.75         47.0959
680.17        47.10004
680.60        47.05405
681.02        46.99258
681.45         46.9663
681.87        46.99211
682.30        47.07516
682.72        47.20501
683.15        47.25254
683.57        47.26104
684.00        47.43206
684.42        47.71329
684.85        47.88715
685.27        47.93936
685.70        47.88151
686.12        47.80512
686.54        48.08973
686.97        48.62385
687.39        48.82954
687.82        48.66528
688.24        48.61951
688.66        48.70176
689.09        48.61322
689.51         48.4011
689.94        48.29661
690.36        48.32468
690.78          48.423
691.21        48.56365
691.63        48.70365
692.06        48.82041
692.48        48.93653
692.90        49.03786
693.33        49.09283
693.75        49.10234
694.17        49.06798
694.60         49.0253
695.02        49.02994
695.44        49.08972
695.87        49.24239
696.29        49.44529
696.71        49.47174
697.14        49.36887
697.56        49.45051
697.98        49.69427
698.41         49.8052
698.83         49.7717
699.25        49.78637
699.68        49.84026
700.10        49.85558
700.52        49.82373
700.94        49.78775
701.37        49.74865
701.79        49.71487
702.21        49.68655
702.64        49.67214
703.06        49.68668
703.48        49.75979
703.90          49.895
704.33        50.08921
704.75        50.28714
705.17        50.45243
705.59        50.55058
706.01        50.58999
706.44        50.59501
706.86        50.61705
707.28        50.66433
707.70        50.72344
708.12        50.78667
708.55        50.83316
708.97        50.83246
709.39        50.86207
709.81        50.69566
710.23        50.76495
710.66        50.99972
711.08        51.31775
711.50         51.6235
711.92        51.83081
712.34        51.91089
712.76         51.8848
713.19        51.78224
713.61        51.69078
714.03        51.62983
714.45        51.58665
714.87        51.56953
715.29         51.5877
715.71        51.63889
716.13        51.72549
716.56         51.8171
716.98        51.91885
717.40        51.99734
717.82        52.05127
718.24        52.07924
718.66         52.0814
719.08        52.05981
719.50        52.02567
719.92        51.98662
720.34        51.92529
720.76         51.8627
721.19        51.86433
721.61        51.92148
722.03        51.93636
722.45        51.89985
722.87        51.85718
723.29        51.83594
723.71        51.86148
724.13        51.93985
724.55        52.06162
724.97        52.18677
725.39        52.24971
725.81        52.23937
726.23           52.18
726.65        52.11544
727.07        52.11819
727.49        52.20293
727.91        52.33626
728.33        52.49358
728.75        52.63298
729.17        52.73404
729.59        52.81636
730.01        52.85081
730.43        52.78946
730.85        52.64124
731.27        52.42849
731.69        52.24223
732.10        52.22811
732.52        52.41026
732.94        52.74657
733.36        53.13994
733.78        53.40762
734.20        53.48479
734.62        53.43521
735.04        53.35503
735.46        53.27279
735.88        53.21521
736.30         53.3924
736.72        53.80367
737.13        53.35233
737.55        53.72728
737.97        53.43555
738.39        53.10991
738.81        52.94773
739.23        53.01358
739.65        53.25261
740.06         53.5085
740.48        53.60493
740.90        53.49087
741.32        53.25472
741.74        53.00264
742.16        52.90237
742.57        53.01003
742.99        53.21834
743.41         53.4541
743.83        53.68751
744.25        53.83776
744.67        53.72682
745.08        53.44747
745.50        53.34105
745.92        53.45921
746.34        53.61981
746.75        53.77594
747.17        53.91565
747.59        54.01869
748.01        54.10867
748.42        54.17599
748.84        54.17274
749.26        54.12296
749.68        54.03607
750.09        53.94872
750.51        54.00797
750.93        54.16255
751.35        54.18445
751.76        54.06989
752.18        54.01059
752.60        54.00988
753.01         53.9362
753.43        53.82032
753.85        53.81863
754.27        53.93278
754.68         54.1606
755.10        54.25943
755.52        54.36406
755.93        54.37554
756.35        54.24302
756.77        54.11254
757.18        54.13539
757.60        54.33168
758.02        54.98251
758.43        55.73804
758.85        55.32218
759.26        54.02127
759.68        53.60163
760.10        54.16288
760.51        54.51087
760.93        54.51504
761.34        54.77712
761.76        55.14988
762.18        54.94502
762.59        54.30481
763.01        54.03788
763.42        54.21374
763.84        54.21035
764.26        54.04326
764.67          54.068
765.09        54.28864
765.50        54.52949
765.92        54.73178
766.33        54.82081
766.75        54.73288
767.16        54.63242
767.58        54.53353
768.00        54.44077
768.41        54.39447
768.83        54.58765
769.24        54.89262
769.66        54.85119
770.07        54.50465
770.49         54.3223
770.90        54.35069
771.32        54.41509
771.73        54.48886
772.15        54.48047
772.56        54.38534
772.97        54.46238
773.39        54.36737
773.80        54.50269
774.22        54.73318
774.63         55.0737
775.05        55.39228
775.46        55.55817
775.88        55.51089
776.29        55.31401
776.70        55.04763
777.12        54.86413
777.53        54.81663
777.95        54.85835
778.36        54.95706
778.77        55.04544
779.19        55.10138
779.60        55.17815
780.02        55.25611
780.43        55.36147
780.84         55.4911
781.26        55.53486
781.67        55.54354
782.09         55.8107
782.50        56.22865
782.91        56.24847
783.33        55.87119
783.74         55.6032
784.15        55.48071
784.57        55.22029
784.98        54.91164
785.39        54.84543
785.81        55.05124
786.22        55.43603
786.63        55.89349
787.04        56.25021
787.46        56.45059
787.87        56.52654
788.28        56.51625
788.70        56.47689
789.11        56.43056
789.52        56.37745
789.93        56.31784
790.35         56.2512
790.76        56.18956
791.17        56.13988
791.58        56.14185
792.00        56.19566
792.41        56.30327
792.82        56.56208
793.23        56.88416
793.65        56.82257
794.06        56.50093
794.47        56.63058
794.88        57.09015
795.29        57.14001
795.71        56.73286
796.12        56.30286
796.53        55.99512
796.94        55.89087
797.35        56.05133
797.76        56.44896
798.18        56.92485
798.59        57.25446
799.00        57.34674
799.41        57.26199
799.82        57.06288
800.23        56.86671
800.64        56.72618
801.06        56.58978
801.47        56.50359
801.88        56.48556
802.29        56.53182
802.70        56.63341
803.11        56.77389
803.52        56.90808
803.93        57.02554
804.34        57.15583
804.75        57.24737
805.17        57.24547
805.58        57.19726
805.99        56.98584
806.40        56.74481
806.81        57.06601
807.22        57.77263
807.63        57.84557
808.04        57.32757
808.45        57.18766
808.86        57.48255
809.27        57.63245
809.68        57.57401
810.09        57.50909
810.50        57.43849
810.91        57.30197
811.32        57.17702
811.73        57.18936
812.14        57.35814
812.55        57.66162
812.96        57.98432
813.37        58.10368
813.78        57.96739
814.19        57.65642
814.60        57.30552
815.01        57.10473
815.42        57.10023
815.83        57.23624
816.24        57.45094
816.65        57.62161
817.05        57.69411
817.46        57.67253
817.87        57.60454
818.28        57.51426
818.69        57.41877
819.10        57.31357
819.51        57.20523
819.92        57.11671
820.33        57.06092
820.74         57.0317
821.14        57.05707
821.55        57.18395
821.96        57.40178
822.37        57.69848
822.78        57.97598
823.19        58.06017
823.60        57.90186
824.00        57.54343
824.41        57.11028
824.82        56.82972
825.23        56.75912
825.64        56.85851
826.04          57.021
826.45        57.00175
826.86         56.7678
827.27          56.406
827.68        56.08107
828.08        56.06713
828.49        56.38115
828.90        56.95576
829.31        57.64461
829.72        58.19712
830.12        58.54191
830.53        58.67645
830.94        58.69433
831.35        58.72898
831.75        58.83607
832.16        58.90756
832.57        58.92356
832.97         58.8269
833.38        58.62066
833.79        58.39621
834.20        58.15897
834.60        57.88261
835.01        57.60736
835.42        57.31361
835.82        57.16539
836.23        57.38065
836.64        57.99475
837.04        58.95345
837.45        59.87729
837.86        60.25895
838.26        59.96341
838.67        59.15478
839.08        58.16211
839.48        57.48588
839.89        57.30752
840.29        57.47847
840.70        57.84737
841.11        58.17656
841.51        58.39587
841.92         58.5539
842.33        58.69748
842.73        58.87815
843.14        59.06282
843.54        59.23119
843.95         59.3448
844.35        59.41775
844.76        59.42403
845.17        59.34753
845.57         59.2184
845.98         59.0524
846.38        58.87579
846.79        58.71067
847.19        58.48327
847.60        58.03728
848.00        57.39921
848.41        56.64963
848.81        56.04502
849.22        55.95614
849.62        56.46756
850.03        57.42904
850.43        58.58523
850.84        59.31815
851.24        59.46336
851.65        59.08736
852.05        58.43994
852.46        57.91833
852.86        57.65572
853.27        57.59296
853.67        57.54113
854.07        57.37056
854.48        57.01897
854.88         56.5566
855.29        56.09124
855.69        55.96028
856.10        56.18914
856.50        56.74761
856.90        57.33887
857.31        57.55186
857.71        57.34946
858.12        56.82076
858.52        56.24353
858.92        56.05024
859.33        56.34284
859.73        57.02051
860.13        57.85415
860.54        58.48133
860.94        58.81745
861.34        58.89022
861.75        58.76299
862.15        58.58638
862.55        58.39645
862.96        58.17307
863.36        57.83765
863.76        57.29511
864.17        56.58076
864.57         55.7958
864.97        55.12107
865.38        54.78017
865.78        54.83647
866.18        55.19286
866.58        55.73945
866.99        56.22699
867.39         56.5602
867.79        56.78175
868.19        56.82605
868.60        56.59984
869.00        56.13723
869.40        55.45916
869.80        54.85128
870.21         54.8063
870.61        55.44562
871.01        56.56158
871.41        57.74874
871.81        58.35749
872.22        58.21499
872.62         57.5216
873.02        56.52617
873.42        55.65976
873.82        55.11457
874.22        54.81099
874.63        54.70995
875.03        54.75462
875.43        54.89851
875.83         55.1706
876.23        55.63344
876.63        56.21113
877.03        56.81739
877.44        57.64205
877.84        58.58876
878.24        57.96107
878.64        58.06173
879.04        57.17467
879.44        56.26076
879.84         55.6553
880.24        55.47069
880.64        55.56641
881.04        55.85788
881.44        56.24633
881.84        56.65696
882.24        57.13691
882.65        57.51397
883.05        57.60962
883.45        57.34493
883.85        56.78051
884.25        56.18621
884.65        55.98742
885.05        56.26116
885.45        56.87135
885.85         57.5775
886.25        57.95903
886.65        57.87546
887.05        57.45813
887.45        56.82692
887.85        56.19529
888.25        55.68439
888.65        55.26246
889.04        54.94556
889.44        54.79591
889.84        54.78194
890.24        54.91502
890.64        55.16735
891.04        55.44433
891.44        55.69977
891.84        55.94285
892.24        56.16881
892.64        56.40689
893.04        56.66458
893.44        56.89677
893.83        57.16077
894.23        57.49341
894.63        57.89183
895.03        58.33559
895.43        58.65225
895.83         58.5811
896.23        58.09382
896.63        57.26637
897.02        56.35715
897.42        55.86198
897.82        55.87891
898.22        56.31043
898.62        56.85421
899.01        57.00058
899.41        56.62139
899.81        55.89328
900.21        55.14796
900.61        54.89232
901.00        55.23013
901.40        55.98644
901.80        56.83895
902.20        57.27396
902.59        57.14466
902.99        56.60092
903.39        55.91587
903.79        55.48782
904.18        55.42543
904.58        55.64252
904.98        55.92427
905.38        55.95316
905.77        55.64297
906.17        55.09145
906.57        54.56622
906.96        54.50674
907.36        54.96354
907.76        55.82508
908.15        56.68654
908.55         56.7641
908.95        55.96849
909.34        54.56201
909.74        53.18855
910.14        52.70672
910.53        53.33749
910.93        54.74603
911.33        56.52636
911.72        58.03705
912.12        58.95247
912.52        59.44379
912.91        59.60007
913.31        59.58543
913.70        59.48616
914.10        59.21448
914.49        58.75855
914.89        58.10307
915.29        57.30946
915.68        56.45409
916.08        55.75372
916.47        55.39085
916.87        55.44318
917.26        55.81192
917.66        56.33552
918.05        56.75016
918.45         56.9175
918.84        56.92445
919.24        56.76722
919.64        56.58448
920.03        56.43463
920.42        56.26275
920.82        56.10159
921.21        55.92218
921.61        55.74479
922.00        55.61395
922.40         55.5597
922.79        55.68869
923.19        55.97667
923.58        56.38012
923.98        56.80984
924.37        57.15365
924.77        57.36087
925.16        57.46774
925.55        57.45368
925.95        57.29853
926.34        57.04142
926.74        56.68312
927.13        56.33019
927.52        56.12343
927.92        56.10188
928.31        56.20985
928.70        56.36342
929.10        56.40373
929.49        56.27383
929.89        55.99697
930.28        55.62808
930.67        55.22182
931.07        54.82342
931.46        54.46115
931.85        54.14365
932.24        53.87803
932.64        53.69216
933.03        53.60939
933.42        53.67694
933.82         53.9517
934.21        54.41823
934.60        54.97047
934.99         55.5628
935.39        56.11765
935.78        56.62398
936.17        57.08599
936.56        57.24166
936.96        56.71041
937.35        55.53193
937.74        53.91492
938.13        52.46093
938.53        51.93758
938.92        52.43516
939.31         53.7917
939.70        55.47486
940.09        56.42395
940.49        56.27054
940.88        55.31937
941.27         54.1463
941.66        53.62284
942.05        53.94534
942.44        54.87564
942.84        55.91636
943.23        56.21673
943.62        55.51866
944.01        54.13957
944.40        52.71613
944.79        52.14911
945.18        52.62151
945.57        53.85953
945.97        55.23848
946.36        55.89223
946.75        55.46447
947.14         54.2594
947.53        52.86688
947.92         52.1629
948.31        52.38192
948.70        53.29866
949.09        54.44107
949.48        54.97044
949.87        54.63995
950.26        53.71453
950.65        52.76291
951.04        52.57211
951.43        53.29656
951.82        54.72444
952.21        56.24957
952.60        56.77633
952.99         56.0136
953.38        54.32716
953.77        52.55244
954.16        51.79369
954.55        52.26323
954.94        53.74252
955.33        55.49957
955.72        55.97168
956.11        54.69427
956.50        52.27292
956.89        49.87683
957.28        49.00341
957.66        49.96152
958.05        52.25782
958.44        55.10236
958.83        56.85262
959.22        56.87461
959.61        55.69187
960.00        54.08116
960.39        53.04245
960.78        52.78769
961.16        53.00908
961.55        53.34212
961.94        53.15848
962.33        52.30985
962.72        51.17613
963.11        50.13342
963.49        49.61457
963.88        49.70322
964.27        50.24117
964.66        51.11705
965.04        52.18052
965.43        53.23657
965.82        54.29605
966.21        55.20857
966.60        55.70632
966.98        55.74694
967.37        55.41689
967.76          54.866
968.15        54.30454
968.53        53.79072
968.92         53.2333
969.31        52.83583
969.69         52.9684
970.08        53.67685
970.47        54.99351
970.86        56.29467
971.24        56.49086
971.63        55.36611
972.02         53.2914
972.40        51.28991
972.79        50.96539
973.17        52.58111
973.56        55.51552
973.95        58.79462
974.33        60.56787
974.72        60.17205
975.11        58.21929
975.49        55.61098
975.88        54.04612
976.26        53.95123
976.65        54.81276
977.04        56.10206
977.42        56.86857
977.81        56.65189
978.19        55.88454
978.58        54.91009
978.96        54.10058
979.35        53.67439
979.74        53.49528
980.12         53.5608
980.51        53.88694
980.89        54.45753
981.28        55.09307
981.66        55.90546
982.05        56.82563
982.43        57.86386
982.82        59.00358
983.20        59.67299
983.59        58.87612
983.97          56.579
984.35        53.21405
984.74        50.14497
985.12        49.28073
985.51        50.83638
985.89        54.32908
986.28        58.27301
986.66        60.50636
987.04        60.21315
987.43        58.05554
987.81        55.01989
988.20        53.22479
988.58        53.24111
988.96        54.50238
989.35        55.96782
989.73        56.18374
990.12        54.72083
990.50        52.23823
990.88        49.49614
991.27        47.64457
991.65        47.01405
992.03        47.30146
992.42        48.20562
992.80        49.60052
993.18        51.22917
993.56        53.13927
993.95        55.06577
994.33        56.53923
994.71        57.29309
995.10        57.45862
995.48        57.14262
995.86        56.65068
996.24        56.14496
996.63         55.4549
997.01        55.06096
997.39        55.64059
997.77        57.24509
998.15        59.67897
998.54        61.98851
998.92        62.69344
999.30        61.47353
999.68        58.69629
1000.06        55.38169
1000.45        53.51728
1000.83        53.80249
1001.21        55.66113
1001.59        58.25309
1001.97        60.12486
1002.35        60.80274
1002.73        60.84404
1003.12        60.38552
1003.50        59.52397
1003.88        58.50853
1004.26        57.24132
1004.64        56.36755
1005.02        57.05131
1005.40        59.30671
1005.78        62.53859
1006.16        65.75623
1006.54        67.60736
1006.92        67.78123
1007.30        66.63274
1007.69         64.3313
1008.07        61.48846
1008.45        58.60652
1008.83        55.72755
1009.21         53.4391
1009.59        52.56522
1009.97        53.23605
1010.35        55.26564
1010.73        58.05416
1011.11        60.48031
1011.49        62.06268
1011.86        62.98862
1012.24         63.0331
1012.62        62.20315
1013.00        60.51817
1013.38        57.79182
1013.76        54.47186
1014.14        51.68296
1014.52        49.98891
1014.90        49.52361
1015.28        49.55178
1015.66        48.59118
1016.04        46.36939
1016.41        43.33526
1016.79        40.93467
1017.17        41.69596
1017.55        45.55724
1017.93        50.74184
1018.31        55.54159
1018.69        58.86589
1019.06        60.95388
1019.44        62.17767
1019.82        62.82351
1020.20        63.24705
1020.58        63.47689
1020.95        63.24682
1021.33        62.37731
1021.71        60.52109
1022.09        57.47481
1022.46        52.89573
1022.84        47.73091
1023.22        44.44494
1023.60         44.6914
1023.97        47.64229
1024.35        51.18152
1024.73        53.28986
