SpectraSmart Spectrum 2.9.0.0
--------- Device Information -----------
Spectrum Name :  反射率_0
Saving Time :  2024/04/30 00:43:00
Spectro-Module Model Name : SE2030-DUVN
Spectro-Module Serial Number : OS361AC55029948
Wavelength Start : 200
Wavelength End : 1025
Wavelength Unit : Wavelength(nm)
Spectrum Unit : Reflectance(%)
-----------Spectrum Setting ------------
Integration Time : 20ms
Average : 10
Boxcar : 0
Background removal :  enabled
linearity correction :  enabled
SC :  disabled
Intensity correction :  disabled
DWT denoise :  enabled
savitzky-golay :  disabled
FFT :  disabled
Running average :  disabled
Kalman :  disabled
High pass :  disabled
---------------BEGIN--------------------
Wavelength(nm)             Reflectance(%)
200.29               0
200.75        63.84416
201.21        46.26936
201.67        26.49865
202.13        11.58914
202.58        5.100951
203.04        5.588849
203.50        14.14832
203.96        31.81974
204.42        56.29888
204.88        85.26455
205.34        107.2764
205.80        107.8155
206.26        91.16026
206.72        68.38834
207.18        48.53527
207.64        36.57663
208.10        30.96126
208.55        28.76428
209.01        29.02442
209.47        30.75934
209.93        32.93591
210.39        35.86818
210.85        38.12457
211.31        38.34314
211.77        36.45956
212.23        31.86885
212.69        25.82022
213.14        25.07348
213.60        31.55556
214.06        41.17756
214.52        49.01448
214.98          52.291
215.44        51.84896
215.90        48.83065
216.36        45.16211
216.81        44.47256
217.27        48.69156
217.73         58.0226
218.19        70.82468
218.65        78.17216
219.11        74.96095
219.57        65.42358
220.02        56.34344
220.48         52.2085
220.94        52.21716
221.40        54.97895
221.86        58.78196
222.32        58.57619
222.77        53.42864
223.23        47.76354
223.69         43.3721
224.15        40.61971
224.61         38.9138
225.06        37.37172
225.52         36.6052
225.98        37.59654
226.44        39.94028
226.90        42.78283
227.36        44.73861
227.81        44.80234
228.27         43.2095
228.73        40.19646
229.19        36.98932
229.65        36.22971
230.10        38.22849
230.56        41.50511
231.02        44.28819
231.48        45.09224
231.93        43.91848
232.39        41.38657
232.85        38.35377
233.31        36.47244
233.77        36.32641
234.22        37.61037
234.68        39.29968
235.14        39.52878
235.60        37.91443
236.05        35.19464
236.51        32.83515
236.97        32.71505
237.43        35.30667
237.88        40.53424
238.34        47.52825
238.80        53.03931
239.26        54.45851
239.71           52.41
240.17         48.2938
240.63        44.27463
241.08        40.77826
241.54        36.68819
242.00        32.40083
242.46        31.82218
242.91        39.00004
243.37        52.69241
243.83        67.30721
244.28        78.86706
244.74        87.73875
245.20        94.26096
245.66        97.67979
246.11        96.70663
246.57        90.91515
247.03        81.44225
247.48        69.77682
247.94        60.45487
248.40        56.75712
248.85        56.96444
249.31        59.92138
249.77        64.85258
250.22        72.45737
250.68        84.91021
251.14        102.3759
251.59        112.0969
252.05        104.5975
252.51         89.9052
252.96        77.41231
253.42         69.9971
253.88        65.29562
254.33        61.50663
254.79        58.20895
255.25        55.12023
255.70        52.67139
256.16        51.34892
256.62         50.8753
257.07        50.90347
257.53        51.48547
257.99        52.38285
258.44        52.85823
258.90        52.57772
259.35        51.38909
259.81        50.00302
260.27         48.8951
260.72        48.52169
261.18        48.84862
261.63        49.33921
262.09        49.66659
262.55        49.14762
263.00        47.80564
263.46         46.2093
263.91         44.5656
264.37        43.33179
264.83        42.46836
265.28        41.75078
265.74        41.26838
266.19        40.96344
266.65        40.84034
267.11        40.86254
267.56        40.81985
268.02        40.39674
268.47        39.52868
268.93        38.30581
269.38        36.95448
269.84         35.9996
270.30        35.56058
270.75         35.4903
271.21         35.5167
271.66        35.20973
272.12        34.48512
272.57        33.47041
273.03        32.39613
273.48        31.54173
273.94        31.03909
274.39        30.73651
274.85        30.54422
275.31        30.27877
275.76        29.87236
276.22        29.40734
276.67        28.90286
277.13        28.46505
277.58        28.07071
278.04        27.72728
278.49        27.34273
278.95        26.87507
279.40         26.2948
279.86        25.70962
280.31        25.16408
280.77        24.83067
281.22        24.69067
281.68        24.69549
282.13        24.77525
282.59        24.88004
283.04         24.9538
283.50        25.00157
283.95        24.94578
284.41        24.68021
284.86        24.20783
285.32        23.62747
285.77        23.02737
286.22        22.59946
286.68        22.39475
287.13        22.32093
287.59        22.37727
288.04        22.50114
288.50        22.66404
288.95        22.84589
289.41        22.97521
289.86        22.90965
290.32        22.66273
290.77        22.28073
291.22        21.88263
291.68        21.66031
292.13        21.65915
292.59        21.84378
293.04        22.18667
293.50        22.66542
293.95         23.2469
294.40        23.93546
294.86        24.63615
295.31        25.21798
295.77        25.64167
296.22        25.91487
296.68        26.13755
297.13        26.45505
297.58        26.90823
298.04        27.43255
298.49        27.93297
298.95        28.25093
299.40        28.36356
299.85        28.34641
300.31        28.30844
300.76        28.35656
301.21        28.54832
301.67        28.84391
302.12        29.18368
302.58        29.61706
303.03        30.11228
303.48        30.51777
303.94         30.7662
304.39        31.47944
304.84        31.43468
305.30        31.61949
305.75        31.69534
306.20        31.77166
306.66        31.86893
307.11        31.96283
307.57        32.05257
308.02        32.06139
308.47        31.99302
308.93        31.87948
309.38        31.73827
309.83        31.64249
310.29        31.60574
310.74        31.60128
311.19        31.58586
311.65        31.48591
312.10        31.28664
312.55           31.02
313.00        30.74216
313.46        30.53796
313.91        30.41609
314.36        30.34981
314.82        30.30053
315.27        30.22696
315.72        30.10114
316.18        29.94493
316.63        29.74536
317.08        29.49207
317.53         29.1994
317.99        28.88607
318.44        28.58597
318.89        28.35741
319.35        28.21411
319.80          28.135
320.25        28.11708
320.70        28.15331
321.16        28.21461
321.61        28.30694
322.06        28.35856
322.51        28.26274
322.97        28.00163
323.42         27.6143
323.87        27.18526
324.32         26.8561
324.78         26.6577
325.23         26.5662
325.68        26.52653
326.13        26.44514
326.59        26.28453
327.04        26.08349
327.49        25.85843
327.94        25.64549
328.39        25.44986
328.85        25.23924
329.30        25.01536
329.75        24.75019
330.20        24.44983
330.66        24.14203
331.11        23.84672
331.56        23.56546
332.01        23.30586
332.46        23.05964
332.92        22.86599
333.37        22.81696
333.82        22.91206
334.27        23.12058
334.72        23.32541
335.17        23.33349
335.63        23.09718
336.08        22.67691
336.53        22.18654
336.98        21.84036
337.43         21.7073
337.88        21.72715
338.34        21.82827
338.79        21.91172
339.24        21.93344
339.69        21.93889
340.14        21.92467
340.59        21.88113
341.05        21.81571
341.50        21.71134
341.95        21.61869
342.40        21.63349
342.85        21.76067
343.30        21.96334
343.75        22.14111
344.20         22.1319
344.66        21.91465
345.11        21.54471
345.56         21.1178
346.01        20.78515
346.46        20.60167
346.91        20.52496
347.36        20.53289
347.81        20.59163
348.26        20.67212
348.72        20.77388
349.17         20.8565
349.62          20.851
350.07        20.74188
350.52        20.55188
350.97        20.30896
351.42        20.05742
351.87        19.82811
352.32        19.62985
352.77        19.49749
353.22        19.48239
353.67         19.5872
354.13         19.7813
354.58        20.03219
355.03        20.28598
355.48        20.50483
355.93        20.68755
356.38        20.78109
356.83        20.71419
357.28        20.49214
357.73        20.14773
358.18        19.77978
358.63        19.54591
359.08        19.48219
359.53        19.54282
359.98        19.65784
360.43        19.70784
360.88        19.65623
361.33        19.54381
361.78        19.38848
362.23         19.2182
362.68        19.05123
363.13        18.87557
363.58        18.71935
364.03        18.63127
364.48         18.6164
364.93        18.66298
365.38        18.72786
365.83        18.73674
366.28        18.67139
366.73        18.55247
367.18        18.41187
367.63         18.3033
368.08         18.2397
368.53        18.19935
368.98        18.16855
369.43        18.12512
369.88         18.0624
370.33        17.99669
370.78        17.91868
371.23        17.81111
371.68         17.6756
372.13        17.51104
372.58        17.35924
373.03        17.29021
373.48        17.30839
373.93        17.38639
374.38        17.45253
374.83        17.38781
375.28        17.17455
375.72        16.86279
376.17        16.53599
376.62        16.27831
377.07        16.11687
377.52        16.01945
377.97        15.99637
378.42        16.06374
378.87        16.20414
379.32        16.40362
379.77         16.5856
380.22        16.63793
380.67        16.53865
381.11        16.31046
381.56        16.03142
382.01        15.83498
382.46        15.76366
382.91        15.79186
383.36        15.84855
383.81         15.8212
384.26        15.68855
384.71        15.48491
385.15        15.29102
385.60        15.25498
386.05        15.38356
386.50        15.61699
386.95        15.83748
387.40         15.8653
387.85         15.6744
388.29        15.33394
388.74        14.97311
389.19        14.71385
389.64        14.58811
390.09         14.5475
390.54        14.57621
390.98        14.64617
391.43        14.73629
391.88        14.85047
392.33        14.93801
392.78        14.94017
393.23        14.85639
393.67        14.67028
394.12        14.45628
394.57        14.41992
395.02        14.36907
395.47         14.4435
395.91        14.53423
396.36         14.5514
396.81        14.47704
397.26        14.34373
397.71        14.19465
398.15        14.08446
398.60        14.04645
399.05        14.02933
399.50        14.00793
399.95        14.00849
400.39        13.95055
400.84        13.84211
401.29        13.69403
401.74        13.61024
402.18        13.60947
402.63        13.63486
403.08        13.67396
403.53        13.71833
403.97         13.7571
404.42        13.79374
404.87        13.80494
405.32        13.75375
405.76        13.63464
406.21        13.46375
406.66        13.29136
407.11        13.19964
407.55        13.20991
408.00        13.30145
408.45        13.41111
408.90        13.42168
409.34        13.30409
409.79        13.09479
410.24        12.88616
410.68        12.81708
411.13        12.91473
411.58        13.13428
412.03        13.37376
412.47        13.46047
412.92        13.34231
413.37        13.08996
413.81        12.80303
414.26        12.64972
414.71        12.65573
415.15        12.77185
415.60        12.92797
416.05        13.02509
416.49        13.02855
416.94        12.97624
417.39        12.88942
417.83        12.79677
418.28        12.71765
418.73        12.63349
419.17        12.56499
419.62        12.54905
420.07        12.58697
420.51        12.66965
420.96        12.75361
421.41        12.76133
421.85        12.67685
422.30        12.53912
422.74        12.39076
423.19        12.31572
423.64        12.32556
424.08        12.40311
424.53        12.50327
424.98        12.57227
425.42        12.59019
425.87         12.5592
426.31        12.50004
426.76        12.46687
427.21        12.42807
427.65        12.39472
428.10        12.34313
428.54         12.2174
428.99        12.03422
429.44        11.90231
429.88        11.82785
430.33         11.6687
430.77        11.51106
431.22        11.70379
431.66         12.1804
432.11        12.44212
432.56        12.39818
433.00        12.33771
433.45        12.26906
433.89        11.94599
434.34         11.5383
434.78        11.49725
435.23        11.75071
435.67        11.81847
436.12        11.67529
436.57        11.58964
437.01        11.60931
437.46        11.69078
437.90         11.8319
438.35         12.0281
438.79        12.20722
439.24        12.23643
439.68        12.11493
440.13        11.93505
440.57        11.73555
441.02        11.59353
441.46        11.54105
441.91        11.47098
442.35        11.40554
442.80        11.62636
443.24        12.01408
443.69        12.00316
444.13        11.63208
444.58        11.45719
445.02        11.48508
445.47        11.41881
445.91        11.26901
446.36        11.20301
446.80        11.22632
447.24        11.30146
447.69        11.40296
448.13        11.48982
448.58         11.5476
449.02        11.58504
449.47         11.6165
449.91         11.6583
450.36        11.71373
450.80        11.77264
451.25        11.81519
451.69        11.81258
452.13        11.75954
452.58        11.67511
453.02         11.5819
453.47        11.51437
453.91        11.48011
454.36        11.50473
454.80        11.51643
455.24        11.53131
455.69        11.52696
456.13        11.50726
456.58        11.48958
457.02        11.48867
457.46        11.50998
457.91        11.54526
458.35        11.57401
458.79        11.57012
459.24         11.5395
459.68         11.4978
460.13        11.47137
460.57        11.44618
461.01        11.51677
461.46        11.55391
461.90        11.58746
462.34        11.72847
462.79        11.91621
463.23          11.906
463.68        11.72248
464.12        11.62501
464.56        11.63043
465.01        11.61305
465.45        11.57072
465.89        11.55233
466.34         11.5775
466.78        11.68766
467.22        11.87131
467.67        11.91333
468.11        11.80291
468.55        11.61846
468.99        11.43451
469.44        11.33666
469.88        11.35041
470.32        11.45771
470.77        11.59918
471.21        11.69017
471.65        11.70084
472.10        11.66379
472.54        11.62036
472.98        11.64867
473.42         11.7612
473.87        11.92268
474.31        12.08331
474.75        12.17047
475.20        12.17203
475.64        12.11284
476.08         12.0284
476.52        11.96941
476.97        11.95366
477.41        11.96327
477.85        11.99918
478.29        12.06082
478.74        12.14513
479.18        12.24581
479.62        12.33719
480.06        12.40837
480.50        12.46022
480.95        12.38323
481.39        12.39344
481.83         12.4178
482.27        12.53123
482.72        12.61051
483.16        12.79591
483.60        12.88865
484.04        12.91207
484.48         12.9061
484.93        12.92526
485.37        12.97165
485.81        12.95889
486.25        13.33886
486.69        12.64304
487.14         12.8906
487.58        13.57823
488.02        13.43732
488.46        13.69137
488.90        14.13361
489.34        13.61054
489.79        13.64586
490.23         13.7654
490.67        13.98653
491.11        14.20292
491.55         14.1906
491.99        14.02758
492.43        14.07789
492.88        14.36138
493.32         14.6334
493.76        14.84513
494.20         15.0598
494.64        15.26658
495.08        15.43743
495.52         15.5636
495.96        15.67741
496.41        15.78958
496.85         15.8018
497.29        15.75095
497.73         15.9768
498.17        16.23259
498.61        16.27161
499.05        16.07632
499.49        16.03895
499.93        16.19505
500.37        16.38909
500.82        16.57961
501.26        16.73927
501.70        16.85022
502.14        16.94243
502.58        17.03761
503.02        17.15011
503.46        17.28695
503.90        17.44513
504.34        17.60353
504.78        17.72572
505.22        17.80212
505.66        17.84029
506.10        17.85759
506.54        17.90257
506.98        17.98802
507.42        18.06446
507.86        18.09968
508.30        18.24724
508.74        18.16805
509.18        18.14556
509.62        18.11191
510.06        18.12355
510.50        18.19048
510.94        18.30256
511.38        18.43346
511.82        18.52937
512.26        18.57496
512.70         18.5824
513.14        18.57804
513.58        18.60369
514.02        18.66872
514.46        18.75958
514.90        18.84672
515.34        18.88333
515.78        18.85972
516.22        18.79249
516.66        18.71705
517.10        18.68773
517.54        18.71539
517.98        18.78023
518.42        18.84914
518.86        18.86899
519.30         18.8264
519.74        18.74181
520.18        18.63859
520.62        18.55025
521.06        18.49117
521.50        18.45585
521.93        18.44303
522.37          18.445
522.81        18.45961
523.25        18.48487
523.69        18.52277
524.13         18.5766
524.57        18.63927
525.01        18.70065
525.45         18.7365
525.89        18.71063
526.32        18.61704
526.76        18.47894
527.20        18.32059
527.64        18.18005
528.08        18.07127
528.52        17.98486
528.96        17.92718
529.40        17.90594
529.83        17.91518
530.27        17.95425
530.71        17.99056
531.15        17.97394
531.59        17.89468
532.03        17.76561
532.46        17.62189
532.90        17.52738
533.34        17.49684
533.78        17.51445
534.22        17.54874
534.66        17.55042
535.09        17.50622
535.53        17.43656
535.97        17.36705
536.41        17.34361
536.85        17.37373
537.28        17.43791
537.72        17.50372
538.16        17.52413
538.60        17.49031
539.04        17.42691
539.47        17.35137
539.91        17.30629
540.35        17.30094
540.79        17.32813
541.22         17.3946
541.66        17.51441
542.10        17.67943
542.54        17.88083
542.97        18.09035
543.41        18.26448
543.85        18.39252
544.29        18.48985
544.72        18.56072
545.16        18.62868
545.60        18.70347
546.04        18.77372
546.47        18.86326
546.91        19.03844
547.35        19.28765
547.79          19.533
548.22        19.73929
548.66        19.95798
549.10        20.18739
549.53        20.33029
549.97        20.36628
550.41        20.68459
550.84        20.67204
551.28         20.7895
551.72        20.86245
552.15        21.08994
552.59        21.21013
553.03        21.42932
553.46        21.64021
553.90        21.79187
554.34        21.87044
554.77        21.91439
555.21        21.95765
555.65        21.99611
556.08        22.06154
556.52        22.24268
556.96         22.4926
557.39        22.68544
557.83        22.79759
558.27        22.83526
558.70         22.8485
559.14          22.945
559.57        23.11844
560.01        23.31393
560.45        23.48478
560.88        23.49632
561.32        23.48952
561.75        23.49288
562.19        23.55926
562.63        23.60341
563.06        23.62943
563.50        23.70461
563.93        23.81501
564.37        23.92868
564.80        24.03256
565.24        24.13988
565.68         24.2472
566.11        24.36472
566.55         24.4923
566.98        24.58988
567.42        24.68686
567.85        24.78068
568.29        24.87228
568.72        25.04612
569.16        25.34056
569.60        25.23791
570.03         25.5103
570.47        25.77829
570.90        25.85218
571.34        26.01053
571.77        26.16946
572.21        26.27767
572.64        26.33019
573.08        26.48608
573.51        26.77458
573.95        26.74769
574.38        26.81043
574.82        27.01372
575.25        26.93517
575.69        26.91373
576.12        26.79732
576.56        27.16946
576.99        27.29033
577.42        27.28614
577.86        27.02518
578.29        26.92673
578.73        27.02542
579.16        26.98095
579.60        26.90721
580.03        26.75329
580.47        26.78909
580.90        26.63769
581.33        26.36678
581.77        26.42816
582.20         26.2237
582.64        26.09927
583.07        25.93849
583.51        25.80136
583.94        25.79715
584.37        25.64233
584.81        25.40108
585.24        25.46945
585.68        25.63089
586.11        25.53974
586.54        25.06159
586.98         25.0575
587.41        25.42183
587.85        25.23257
588.28        24.92596
588.71        25.21019
589.15        24.87833
589.58        24.90021
590.01        24.94975
590.45        24.86381
590.88        24.73999
591.31        24.79939
591.75        24.99039
592.18        25.17045
592.61        25.34903
593.05        24.86999
593.48        25.25963
593.91          25.201
594.35        25.07779
594.78        25.12908
595.21        25.34075
595.65        25.45325
596.08        25.28611
596.51        25.81031
596.94        26.11565
597.38        26.48374
597.81        26.62777
598.24        26.64302
598.68        26.66814
599.11        27.11922
599.54         27.6056
599.97        27.95873
600.41        28.07845
600.84        28.52407
601.27        28.82639
601.70        29.21029
602.14         29.5341
602.57        29.86035
603.00        30.18433
603.43         30.6006
603.87        31.02364
604.30        31.46789
604.73          31.921
605.16        32.33289
605.60        32.71354
606.03        33.24221
606.46        33.80714
606.89        34.26728
607.32          34.506
607.76        34.85194
608.19        35.29161
608.62        35.50132
609.05        35.90236
609.48        36.26926
609.92        36.65622
610.35        37.07679
610.78        37.44991
611.21        37.46516
611.64        37.93143
612.07        38.53186
612.50        38.62069
612.94         39.0215
613.37        39.55424
613.80        39.55244
614.23        40.07465
614.66        40.29641
615.09        40.56053
615.52        40.75008
615.96        40.98047
616.39        41.19281
616.82        41.42165
617.25        41.44749
617.68        41.54313
618.11        41.87977
618.54        42.44327
618.97        42.77031
619.40        42.85334
619.84        43.04507
620.27        43.38002
620.70        43.67843
621.13        43.56806
621.56        43.90201
621.99        44.06047
622.42        43.69328
622.85        43.91085
623.28        44.13688
623.71        44.45108
624.14        43.69053
624.57        44.39119
625.00        44.19419
625.43        44.19862
625.86         44.0398
626.29        43.83661
626.72        43.87768
627.15        43.60926
627.58        43.52507
628.01        43.43156
628.44        43.19969
628.87        42.86327
629.30        42.67555
629.73        42.62118
630.16        42.42514
630.59        42.06166
631.02        41.78488
631.45        41.42286
631.88        41.04561
632.31        40.59268
632.74        40.27313
633.17        39.75616
633.60        39.29646
634.03        38.80388
634.46        38.28815
634.89        37.77891
635.32        37.33315
635.75        36.96249
636.18        36.64361
636.61        36.34018
637.04        35.99768
637.47        35.60833
637.89        35.16705
638.32        34.68279
638.75         34.2781
639.18        33.98725
639.61        33.44968
640.04        33.27516
640.47         32.9796
640.90        32.73938
641.33        32.54847
641.76        32.38931
642.18        32.22228
642.61        32.02672
643.04        31.81976
643.47        31.64714
643.90        31.57194
644.33        31.60262
644.76        31.76113
645.18        31.97292
645.61        32.02788
646.04        31.87697
646.47        31.92143
646.90        32.15125
647.33        32.33553
647.75         32.4707
648.18        32.70846
648.61        33.03831
649.04        33.38803
649.47        33.74936
649.89        34.10977
650.32        34.46703
650.75        34.92168
651.18        35.45971
651.61        35.90599
652.03        36.29855
652.46        36.92775
652.89        37.70098
653.32        38.19716
653.74        38.46829
654.17        38.85482
654.60        38.92547
655.03        40.34047
655.46        39.72689
655.88        41.09906
656.31        42.62708
656.74        43.22304
657.16          42.783
657.59        42.49986
658.02        42.72173
658.45        43.75024
658.87        44.21423
659.30        44.86094
659.73         45.3688
660.15        45.84659
660.58        45.85785
661.01        46.16667
661.44        46.63569
661.86         46.7069
662.29        46.49697
662.72         46.7378
663.14        47.38454
663.57         47.5905
664.00        47.41337
664.42        47.53904
664.85        48.01016
665.27        48.45652
665.70        48.80449
666.13        49.11539
666.55        49.37364
666.98        49.56694
667.41        49.71122
667.83         49.8222
668.26        49.89802
668.69        49.94274
669.11        49.99785
669.54        50.06734
669.96        50.14687
670.39        50.44246
670.82        50.75305
671.24        50.66694
671.67        50.28988
672.09        50.45213
672.52        51.08506
672.94        51.45464
673.37        51.13396
673.80        51.48304
674.22        51.40109
674.65        51.60879
675.07        51.81458
675.50        52.06219
675.92         52.3105
676.35        52.48562
676.77        52.58736
677.20        52.61974
677.62        52.63037
678.05        52.68616
678.47          52.779
678.90        52.95441
679.32        53.20105
679.75        53.27299
680.17        53.10329
680.60        53.66499
681.02        53.40218
681.45        53.46476
681.87        53.44675
682.30        53.60749
682.72        53.92118
683.15         54.0953
683.57          54.165
684.00        54.36401
684.42        54.64582
684.85        54.83084
685.27        54.91562
685.70        54.83621
686.12        54.70395
686.54        55.15299
686.97        55.80148
687.39        56.16832
687.82        56.10608
688.24        56.14967
688.66        56.30369
689.09        56.24277
689.51        56.01552
689.94        55.90996
690.36        55.96922
690.78        56.01149
691.21        56.07052
691.63        56.44724
692.06         57.0099
692.48        57.20583
692.90        57.04706
693.33        57.03094
693.75        57.17411
694.17          57.161
694.60        57.06368
695.02        57.05207
695.44        57.12481
695.87        57.51281
696.29        58.13093
696.71        57.76341
697.14        57.59774
697.56        57.72514
697.98        58.38393
698.41        58.69412
698.83        58.62343
699.25         58.6586
699.68        58.78882
700.10        58.83566
700.52        58.79023
700.94        58.72364
701.37        58.66153
701.79        58.65833
702.21        58.72163
702.64        58.83923
703.06        59.00227
703.48        59.20958
703.90        59.45142
704.33        59.73098
704.75        59.98733
705.17        60.18352
705.59        60.28456
706.01        60.30513
706.44        60.28278
706.86        60.27879
707.28        60.31174
707.70        60.39587
708.12         60.5248
708.55        60.61893
708.97        60.69883
709.39        60.89222
709.81        61.18024
710.23        61.42639
710.66        61.60098
711.08        61.78004
711.50        61.94514
711.92        62.07188
712.34        62.16238
712.76        62.22537
713.19        62.25219
713.61        62.25624
714.03        62.23027
714.45        62.21001
714.87        62.23114
715.29        62.21453
715.71         62.3917
716.13        62.52501
716.56         62.7114
716.98         62.8811
717.40        63.01372
717.82        63.12441
718.24        63.20741
718.66         63.2112
719.08        63.22423
719.50        63.17823
719.92        63.13593
720.34        63.15707
720.76        63.25328
721.19          63.403
721.61        63.56347
722.03        63.63887
722.45        63.60712
722.87        63.49359
723.29        63.35866
723.71        63.30136
724.13        63.34807
724.55        63.47228
724.97        63.62082
725.39        63.70403
725.81        63.70472
726.23        63.66056
726.65        63.62143
727.07        63.66786
727.49        63.81549
727.91        64.01617
728.33        64.24392
728.75        64.46911
729.17        64.66011
729.59        64.80677
730.01        64.86498
730.43        64.79788
730.85        64.61941
731.27        64.32925
731.69        64.03446
732.10        64.02782
732.52        64.15506
732.94        64.51346
733.36        64.95479
733.78        65.29336
734.20        65.45675
734.62        65.54211
735.04        65.59023
735.46         65.5554
735.88        65.51656
736.30        65.71355
736.72        66.07977
737.13        66.28658
737.55        66.13605
737.97          66.077
738.39        65.13247
738.81        64.93429
739.23        65.20033
739.65        65.59663
740.06        65.92254
740.48        66.12418
740.90        66.14584
741.32        65.98474
741.74        65.75868
742.16        65.69849
742.57        65.86805
742.99        66.13538
743.41        66.41984
743.83        66.68012
744.25        66.83596
744.67        66.72195
745.08        66.43927
745.50        66.33418
745.92        66.45673
746.34        66.61175
746.75        66.76257
747.17        66.89167
747.59        66.97159
748.01         67.1097
748.42        67.24376
748.84        67.05158
749.26        66.65175
749.68        66.48571
750.09        66.57662
750.51        66.76305
750.93        66.94061
751.35        66.92882
751.76        66.77505
752.18        66.78802
752.60        66.97298
753.01        67.12985
753.43        67.20387
753.85        67.20464
754.27        67.13346
754.68        67.20627
755.10        67.10506
755.52        67.12887
755.93        67.17397
756.35        67.14893
756.77        67.15784
757.18        67.41074
757.60        67.95487
758.02        68.46239
758.43        69.54269
758.85        69.07993
759.26        67.77881
759.68        66.63705
760.10        67.46748
760.51        67.87951
760.93        68.15877
761.34        68.46168
761.76        68.64868
762.18        68.57339
762.59        68.34045
763.01        67.75693
763.42        67.75549
763.84        67.58339
764.26        67.55128
764.67        67.65228
765.09        67.88793
765.50          68.353
765.92        68.95775
766.33        68.93191
766.75         69.0431
767.16        68.86852
767.58        68.71855
768.00        68.46075
768.41        68.22735
768.83        68.45738
769.24        68.93744
769.66          68.952
770.07        68.46052
770.49          68.096
770.90        67.99052
771.32         68.2674
771.73        68.80806
772.15        69.00573
772.56        68.80921
772.97        68.81263
773.39        68.63669
773.80        68.76247
774.22        69.03587
774.63        69.47058
775.05        69.87292
775.46        70.04107
775.88        69.89743
776.29          69.541
776.70        69.10669
777.12        68.84353
777.53        68.82295
777.95        68.94981
778.36        69.18384
778.77        69.39972
779.19        69.54824
779.60        69.83938
780.02        70.16157
780.43        70.10755
780.84        69.81871
781.26        69.84885
781.67        70.23332
782.09        70.83671
782.50        71.40526
782.91        71.25106
783.33        70.48174
783.74        70.05499
784.15        70.04253
784.57        69.97639
784.98        69.67942
785.39        69.65036
785.81         69.8406
786.22        70.21862
786.63        70.59386
787.04        70.91853
787.46        71.11991
787.87        71.20921
788.28        71.25355
788.70        71.33979
789.11        71.48077
789.52        71.71094
789.93        71.93513
790.35        71.88794
790.76        71.60149
791.17        71.36756
791.58        71.29171
792.00        71.23375
792.41        71.21893
792.82        71.54948
793.23        72.07391
793.65        71.94085
794.06        71.35386
794.47        71.56668
794.88        72.39687
795.29        72.60885
795.71        72.12955
796.12        71.67602
796.53        71.42614
796.94        71.36341
797.35        71.56443
797.76         72.0783
798.18        72.70348
798.59        73.10583
799.00        73.17844
799.41        73.02608
799.82        72.76402
800.23        72.58587
800.64        72.56322
801.06        72.61187
801.47        72.72544
801.88        72.82549
802.29        72.87315
802.70        72.86745
803.11        72.84026
803.52        72.84425
803.93        72.90456
804.34        73.01319
804.75        73.05823
805.17        72.98984
805.58        72.85516
805.99        72.30181
806.40        71.62009
806.81        72.16499
807.22        73.58216
807.63        73.69383
808.04        72.61351
808.45        72.38693
808.86        73.12363
809.27        73.69337
809.68         73.8876
810.09        73.76559
810.50        73.38965
810.91        73.16772
811.32        73.21038
811.73        73.25307
812.14        73.31611
812.55        73.65846
812.96        74.13367
813.37        74.29653
813.78        74.07135
814.19        73.61462
814.60        73.12597
815.01        72.88287
815.42        72.95078
815.83        73.24299
816.24        73.64706
816.65        73.94341
817.05        74.04138
817.46        73.96942
817.87        73.82536
818.28        73.70116
818.69        73.63168
819.10        73.58142
819.51        73.54916
819.92        73.54482
820.33        73.56518
820.74        73.61156
821.14        73.67699
821.55        73.74805
821.96        73.81152
822.37        73.87749
822.78        73.91705
823.19        73.88658
823.60        73.77908
824.00        73.59827
824.41         73.4117
824.82        73.35897
825.23        73.46144
825.64         73.6945
826.04        73.94663
826.45        73.94094
826.86        73.65216
827.27        73.16638
827.68        72.67722
828.08        72.51244
828.49        72.70484
828.90        73.19406
829.31        73.82875
829.72        74.34088
830.12        74.66052
830.53        74.77173
830.94        74.79335
831.35        74.88779
831.75        75.11432
832.16        75.33573
832.57        75.47456
832.97        75.37186
833.38        75.01551
833.79         74.5436
834.20        74.05036
834.60        73.63552
835.01        73.37691
835.42         73.2153
835.82        73.27106
836.23        73.67274
836.64        74.42363
837.04        75.49151
837.45        76.49284
837.86        76.94175
838.26        76.71201
838.67        75.96004
839.08        74.99762
839.48        74.30244
839.89         74.0632
840.29        74.13885
840.70        74.44292
841.11        74.84305
841.51        75.28708
841.92         75.7856
842.33        76.27646
842.73        76.62094
843.14        76.73031
843.54        76.65276
843.95        76.46909
844.35        76.39954
844.76        76.47084
845.17        76.60238
845.57        76.74817
845.98        76.79572
846.38        76.72507
846.79        76.57955
847.19        76.30521
847.60        75.75761
848.00        74.98496
848.41        74.07404
848.81        73.28054
849.22         72.9728
849.62        73.25743
850.03        73.99315
850.43        75.00833
850.84        75.77412
851.24        76.16296
851.65        76.17454
852.05        75.98084
852.46        75.83121
852.86        75.78732
853.27        75.82907
853.67        75.72151
854.07        75.44897
854.48        74.97402
854.88        74.15305
855.29        73.05829
855.69        73.34548
856.10        73.10812
856.50        73.88679
856.90        74.69012
857.31         75.0016
857.71        74.73036
858.12          74.034
858.52        73.24406
858.92         72.8077
859.33        72.86156
859.73         73.3012
860.13        73.95376
860.54        74.55912
860.94        75.05169
861.34        75.41356
861.75        75.59841
862.15        75.58025
862.55        75.33225
862.96        74.90455
863.36        74.26251
863.76        73.38971
864.17        72.37816
864.57         71.3063
864.97         70.4405
865.38        70.12302
865.78        70.43586
866.18        71.26449
866.58        72.36254
866.99         73.1784
867.39        73.53638
867.79        73.53925
868.19        73.26923
868.60        72.87022
869.00        72.43822
869.40        71.91694
869.80        71.55405
870.21         71.7724
870.61        72.66038
871.01         74.0417
871.41        75.44446
871.81        76.10974
872.22         75.8467
872.62          74.861
873.02        73.54101
873.42        72.56099
873.82        72.15923
874.22        72.19747
874.63        72.42966
875.03        72.46249
875.43        72.20406
875.83        71.78725
876.23        71.49948
876.63        71.78962
877.03        72.71222
877.44        74.02737
877.84        75.34178
878.24        75.93256
878.64        75.64952
879.04        74.77384
879.44        73.68752
879.84        72.95382
880.24        72.72133
880.64        72.78638
881.04        73.10118
881.44        73.57852
881.84         74.1416
882.24        74.86945
882.65         75.4566
883.05        75.49996
883.45         74.8943
883.85        73.79743
884.25        72.72872
884.65        72.49251
885.05        73.21857
885.45        74.61362
885.85        76.22354
886.25        77.25443
886.65         77.4247
887.05        76.99249
887.45        76.06952
887.85        74.88097
888.25        73.65332
888.65        72.39458
889.04        71.38005
889.44        71.04731
889.84        71.38035
890.24        72.31749
890.64        73.53831
891.04        74.32256
891.44        74.40416
891.84        73.97658
892.24        73.37596
892.64        73.09229
893.04        73.23222
893.44        73.62897
893.83        74.16872
894.23        74.57827
894.63        74.79334
895.03        74.91957
895.43        74.98985
895.83        75.04282
896.23        75.09061
896.63        75.06485
897.02        75.01266
897.42        75.08777
897.82        75.28492
898.22         75.6179
898.62        75.86508
899.01        75.66225
899.41         74.9596
899.81        73.88835
900.21        72.87605
900.61        72.57845
901.00        73.10409
901.40        74.24796
901.80        75.49293
902.20        75.98122
902.59        75.49714
902.99        74.31123
903.39        72.92022
903.79        72.06985
904.18        71.95719
904.58        72.39826
904.98        73.04597
905.38        73.37234
905.77        73.22044
906.17        72.75163
906.57        72.28895
906.96        72.36116
907.36        73.03143
907.76        74.13503
908.15        75.21344
908.55        75.39478
908.95        74.56894
909.34        73.02936
909.74        71.46769
910.14        70.80033
910.53        71.28284
910.93        72.59202
911.33        74.31535
911.72        75.79828
912.12         76.7103
912.52        77.22701
912.91        77.49828
913.31        77.76381
913.70         78.0967
914.10        78.33574
914.49        78.32085
914.89        77.83433
915.29        76.90417
915.68        75.69861
916.08        74.54256
916.47        73.77713
916.87        73.54919
917.26        73.71528
917.66        74.16877
918.05        74.74205
918.45        75.28085
918.84        75.87206
919.24         76.3042
919.64         76.3784
920.03         76.0735
920.42        75.41012
920.82        74.67715
921.21        74.23904
921.61         74.1991
922.00        74.48682
922.40        74.91412
922.79        75.22834
923.19        75.31307
923.58        75.27892
923.98        75.20741
924.37        75.23701
924.77        75.39066
925.16        75.59254
925.55        75.79475
925.95        75.93956
926.34        76.01461
926.74        76.03299
927.13         75.9562
927.52        75.67905
927.92        75.22158
928.31        74.62248
928.70        74.03909
929.10        73.70683
929.49        73.68524
929.89        73.88072
930.28         74.2075
930.67        74.41984
931.07        74.43948
931.46        74.36562
931.85        74.21762
932.24         74.0359
932.64        73.86895
933.03        73.70683
933.42        73.66424
933.82        73.92517
934.21        74.52101
934.60        75.32675
934.99        76.18336
935.39        76.80025
935.78        77.13425
936.17        77.23867
936.56        76.99979
936.96        76.31017
937.35        75.25321
937.74        73.92285
938.13        72.76513
938.53        72.33012
938.92        72.65442
939.31        73.67297
939.70        74.91686
940.09        75.46293
940.49        75.03881
940.88         73.9188
941.27        72.71638
941.66        72.36039
942.05         73.0423
942.44         74.5215
942.84        76.16982
943.23        76.92277
943.62        76.40945
944.01        74.97223
944.40        73.38531
944.79        72.77969
945.18        73.39348
945.57        74.90192
945.97        76.53096
946.36        77.18581
946.75        76.45728
947.14        74.75365
947.53        72.87566
947.92        72.00972
948.31        72.44583
948.70        73.84299
949.09        75.54491
949.48        76.37339
949.87        75.96991
950.26        74.73302
950.65         73.3218
951.04        72.63712
951.43        72.88886
951.82         73.8167
952.21        74.94911
952.60        75.44968
952.99        75.06252
953.38        74.06587
953.77        73.02307
954.16        72.66733
954.55        73.14547
954.94        74.31229
955.33        75.61446
955.72        75.90121
956.11        74.84106
956.50        72.86813
956.89        70.94012
957.28        70.28345
957.66        71.16688
958.05        73.19553
958.44        75.62238
958.83        76.90443
959.22        76.51176
959.61         74.9553
960.00        73.11755
960.39         72.1343
960.78        72.21503
961.16         73.0542
961.55        74.07843
961.94        74.27869
962.33        73.36478
962.72        71.83265
963.11        70.26897
963.49        69.41427
963.88        69.43422
964.27        70.05745
964.66        71.09774
965.04        72.29182
965.43        73.35231
965.82        74.33837
966.21        75.07292
966.60        75.23672
966.98        74.81992
967.37        73.99783
967.76        72.97531
968.15         72.0234
968.53        71.22353
968.92        70.45241
969.31         70.0171
969.69        70.47894
970.08        71.86821
970.47        74.16263
970.86        76.44254
971.24        77.11867
971.63        75.82867
972.02        73.08279
972.40        70.21713
972.79        69.32032
973.17        70.76657
973.56        73.83179
973.95        77.36793
974.33        79.21085
974.72        78.60999
975.11        76.31056
975.49        73.43327
975.88        72.00361
976.26        72.52425
976.65        74.31388
977.04         76.6183
977.42        78.07539
977.81        78.04065
978.19        77.09827
978.58        75.68299
978.96         74.3367
979.35        73.37542
979.74        72.62675
980.12        72.27876
980.51        72.64304
980.89        73.77599
981.28        75.42569
981.66        77.41196
982.05        79.08295
982.43        80.30321
982.82         81.1433
983.20         81.3137
983.59         80.3005
983.97         78.2235
984.35        75.30852
984.74        72.75449
985.12        72.20074
985.51         73.8116
985.89        77.23346
986.28        80.99076
986.66        82.93097
987.04        82.26965
987.43        79.62587
987.81         76.1778
988.20        74.33072
988.58        74.73491
988.96        76.73543
989.35        78.97266
989.73        79.46249
990.12        77.64292
990.50        74.35698
990.88        70.67094
991.27        68.26358
991.65        67.60915
992.03        68.20604
992.42         69.5979
992.80        71.41844
993.18        73.31949
993.56        75.45427
993.95        77.43169
994.33        78.61642
994.71        78.73077
995.10        77.98404
995.48        76.81345
995.86        76.02949
996.24        75.87635
996.63        76.02736
997.01        76.66917
997.39        77.85339
997.77        79.40773
998.15        81.31704
998.54        82.83768
998.92        82.82154
999.30        81.06818
999.68        77.84557
1000.06        74.19231
1000.45          72.128
1000.83        72.41089
1001.21        74.52199
1001.59        77.51154
1001.97        79.72273
1002.35        80.58508
1002.73        80.56078
1003.12        79.97639
1003.50        79.26983
1003.88        78.69955
1004.26        78.09307
1004.64        77.53886
1005.02        77.28021
1005.40        77.35371
1005.78        77.70597
1006.16         78.2674
1006.54        78.90434
1006.92        79.54902
1007.30        80.23344
1007.69        80.69801
1008.07        80.56898
1008.45        79.71165
1008.83        78.31464
1009.21        76.83667
1009.59        76.05132
1009.97        76.19398
1010.35        77.00016
1010.73        78.35619
1011.11        80.03233
1011.49         81.7674
1011.86         83.5932
1012.24        84.86172
1012.62        84.80796
1013.00        83.28221
1013.38        80.37512
1013.76        76.78323
1014.14         74.1356
1014.52        73.16541
1014.90        73.65651
1015.28        74.83409
1015.66        75.29027
1016.04        74.63354
1016.41        73.32177
1016.79        71.95368
1017.17        71.69256
1017.55        72.73536
1017.93        74.41241
1018.31        76.13705
1018.69        77.59657
1019.06        78.99518
1019.44        80.44638
1019.82        82.31651
1020.20        84.68179
1020.58        86.90679
1020.95        88.28468
1021.33         88.5947
1021.71        87.79789
1022.09        85.89497
1022.46        82.64668
1022.84        78.22644
1023.22        73.68932
1023.60         70.6719
1023.97        69.47906
1024.35        69.79583
1024.73        71.00905
