SpectraSmart Spectrum 2.9.0.0
--------- Device Information -----------
Spectrum Name :  反射率_0
Saving Time :  2024/04/30 00:42:25
Spectro-Module Model Name : SE2030-DUVN
Spectro-Module Serial Number : OS361AC55029948
Wavelength Start : 200
Wavelength End : 1025
Wavelength Unit : Wavelength(nm)
Spectrum Unit : Reflectance(%)
-----------Spectrum Setting ------------
Integration Time : 20ms
Average : 10
Boxcar : 0
Background removal :  enabled
linearity correction :  enabled
SC :  disabled
Intensity correction :  disabled
DWT denoise :  enabled
savitzky-golay :  disabled
FFT :  disabled
Running average :  disabled
Kalman :  disabled
High pass :  disabled
---------------BEGIN--------------------
Wavelength(nm)             Reflectance(%)
200.29               0
200.75        28.96228
201.21        22.44186
201.67        13.18919
202.13        4.681938
202.58       -1.456452
203.04       -5.649607
203.50       -7.434443
203.96       -5.533555
204.42       -0.224633
204.88        7.547731
205.34        15.53728
205.80        19.75968
206.26        19.95539
206.72        18.66525
207.18        15.71279
207.64        10.40597
208.10        2.937743
208.55        -7.21662
209.01       -16.34489
209.47       -15.60246
209.93        -4.71229
210.39        11.04186
210.85        24.32304
211.31         29.4501
211.77        26.39267
212.23        15.11542
212.69       -1.926198
213.14       -9.608562
213.60      -0.3621708
214.06        17.01966
214.52        31.80385
214.98        37.27118
215.44        34.69884
215.90        26.87518
216.36        17.33335
216.81        12.63013
217.27        16.21692
217.73        27.61229
218.19        44.80779
218.65        56.24115
219.11        54.27071
219.57        43.92207
220.02        33.18854
220.48        27.07503
220.94        24.69016
221.40        24.00956
221.86        23.17135
222.32        18.92649
222.77        12.51053
223.23        7.769478
223.69         5.17255
224.15        4.267585
224.61        4.631488
225.06         5.61773
225.52        8.469213
225.98        14.13826
226.44        20.86728
226.90        27.02809
227.36        30.94477
227.81        31.76982
228.27        30.04907
228.73        26.18872
229.19        21.74488
229.65        20.16455
230.10        22.08075
230.56        25.65909
231.02        28.88457
231.48        29.99453
231.93        29.00878
232.39        26.72742
232.85          23.978
233.31        22.30957
233.77        22.29743
234.22        23.54251
234.68        25.41569
235.14        26.71984
235.60        27.07398
236.05        26.89873
236.51        26.81317
236.97        27.64961
237.43        29.71292
237.88        33.01686
238.34        37.28567
238.80        41.36708
239.26        43.94341
239.71         45.0526
240.17        44.80517
240.63        43.93868
241.08        42.68072
241.54        40.29634
242.00        36.98371
242.46        35.61412
242.91        39.36195
243.37        47.67657
243.83        56.05832
244.28        60.13395
244.74         59.5479
245.20        54.77163
245.66        47.35631
246.11        41.81489
246.57        40.91059
247.03         43.6028
247.48        48.31225
247.94        50.44489
248.40        49.24785
248.85          47.132
249.31        45.61625
249.77        44.91428
250.22        44.89319
250.68         44.9411
251.14        45.77895
251.59        48.91417
252.05        52.91354
252.51        56.07418
252.96        56.92443
253.42          55.521
253.88        52.24519
254.33        47.21379
254.79        42.64686
255.25         42.3299
255.70        45.81011
256.16        50.50478
256.62        54.16683
257.07        55.49349
257.53        55.22518
257.99        53.98177
258.44        52.21921
258.90        51.18867
259.35        50.74489
259.81         50.7642
260.27         50.8174
260.72        50.60945
261.18        50.27109
261.63        49.66623
262.09        49.05366
262.55        48.45533
263.00        47.83229
263.46        47.33858
263.91        46.65869
264.37        45.67915
264.83        44.35443
265.28         42.7238
265.74        41.24204
266.19         40.3896
266.65        40.28457
267.11        40.69035
267.56        41.13244
268.02        40.93328
268.47         39.9472
268.93        38.38367
269.38        36.63208
269.84        35.48592
270.30         35.1318
270.75        35.30854
271.21        35.58376
271.66        35.31401
272.12        34.37325
272.57        32.97175
273.03        31.46235
273.48        30.30996
273.94        29.70131
274.39        29.43217
274.85        29.32311
275.31         29.0707
275.76        28.58442
276.22        27.98335
276.67        27.36392
277.13        26.93468
277.58        26.67778
278.04        26.54679
278.49        26.35161
278.95        25.91261
279.40        25.18715
279.86        24.33855
280.31         23.5111
280.77        23.02147
281.22        22.88082
281.68        22.98415
282.13        23.19389
282.59        23.35932
283.04        23.40691
283.50        23.38151
283.95        23.23979
284.41        22.92184
284.86         22.4463
285.32        21.88714
285.77        21.33338
286.22        20.97741
286.68        20.86526
287.13        20.91032
287.59        21.08246
288.04        21.27436
288.50        21.44955
288.95        21.59623
289.41        21.69043
289.86        21.66544
290.32        21.54345
290.77        21.34921
291.22        21.13307
291.68         20.9761
292.13        20.90737
292.59        20.93519
293.04        21.11626
293.50        21.55058
293.95        22.23009
294.40        23.11683
294.86        24.05545
295.31        24.81661
295.77        25.33443
296.22         25.6543
296.68        25.90704
297.13        26.28473
297.58        26.84528
298.04        27.50163
298.49        28.15956
298.95        28.66831
299.40        28.99195
299.85        29.19237
300.31        29.34734
300.76        29.51464
301.21        29.74373
301.67        30.01734
302.12        30.29066
302.58        30.63644
303.03        31.04236
303.48        31.36306
303.94        31.56187
304.39        32.29639
304.84        32.35834
305.30        32.70186
305.75        32.95368
306.20        33.15967
306.66        33.32315
307.11        33.44047
307.57         33.5164
308.02        33.48275
308.47        33.35654
308.93        33.16713
309.38        32.97102
309.83        32.90429
310.29         32.9859
310.74        33.16776
311.19        33.34375
311.65        33.34115
312.10         33.1231
312.55        32.75033
313.00        32.33465
313.46        32.05054
313.91        31.92989
314.36        31.91916
314.82        31.93829
315.27        31.87973
315.72        31.69812
316.18        31.43947
316.63        31.12635
317.08        30.80095
317.53        30.49205
317.99        30.20173
318.44        29.93206
318.89        29.69443
319.35        29.48846
319.80        29.30195
320.25        29.16462
320.70        29.12171
321.16        29.15407
321.61        29.25459
322.06        29.30098
322.51        29.10346
322.97        28.63322
323.42        27.96461
323.87         27.2583
324.32        26.77055
324.78        26.55847
325.23        26.56378
325.68        26.67012
326.13        26.67679
326.59        26.50981
327.04        26.23725
327.49        25.91104
327.94        25.62631
328.39        25.40837
328.85        25.20411
329.30        24.99874
329.75          24.741
330.20          24.426
330.66        24.08786
331.11        23.75821
331.56        23.45333
332.01        23.18306
332.46        22.93601
332.92        22.72476
333.37         22.5983
333.82        22.55053
334.27        22.56503
334.72        22.57874
335.17        22.48705
335.63        22.26524
336.08        21.95261
336.53        21.60155
336.98        21.31843
337.43        21.14207
337.88        21.04151
338.34        21.00105
338.79        21.01348
339.24        21.05436
339.69        21.13163
340.14        21.19552
340.59        21.16328
341.05        21.02036
341.50        20.77976
341.95        20.51539
342.40        20.35405
342.85        20.32091
343.30         20.3788
343.75        20.44114
344.20         20.3684
344.66        20.14118
345.11        19.80309
345.56        19.44291
346.01          19.197
346.46        19.10533
346.91        19.12415
347.36        19.19605
347.81        19.23701
348.26         19.2174
348.72        19.15541
349.17        19.07138
349.62        19.00236
350.07        18.95734
350.52        18.92159
350.97        18.86592
351.42        18.74715
351.87        18.56765
352.32        18.35876
352.77        18.16885
353.22        18.07156
353.67        18.08471
354.13        18.17598
354.58        18.32147
355.03        18.48443
355.48        18.63447
355.93        18.76904
356.38        18.84531
356.83        18.80242
357.28        18.63844
357.73        18.37696
358.18        18.07841
358.63        17.84184
359.08        17.69454
359.53        17.61094
359.98        17.56461
360.43         17.5069
360.88        17.42177
361.33        17.33124
361.78        17.22846
362.23        17.10004
362.68        16.94999
363.13        16.77794
363.58        16.61971
364.03        16.53559
364.48        16.53235
364.93        16.58854
365.38        16.65307
365.83        16.64312
366.28         16.5384
366.73        16.36456
367.18        16.16022
367.63        15.98749
368.08        15.86456
368.53        15.77174
368.98         15.6938
369.43        15.60585
369.88        15.50008
370.33        15.39023
370.78        15.27704
371.23         15.1588
371.68         15.0377
372.13        14.91025
372.58         14.7891
373.03        14.69672
373.48        14.63333
373.93         14.5896
374.38        14.54289
374.83        14.45587
375.28        14.32484
375.72        14.16421
376.17        14.00712
376.62        13.87101
377.07        13.76248
377.52        13.66947
377.97        13.60771
378.42        13.60298
378.87         13.6533
379.32        13.75022
379.77        13.84098
380.22        13.84828
380.67        13.75742
381.11        13.58228
381.56        13.39138
382.01        13.29644
382.46        13.32454
382.91        13.44838
383.36        13.57963
383.81        13.58312
384.26        13.43568
384.71        13.17759
385.15        12.91132
385.60        12.82057
386.05        12.92377
386.50        13.15448
386.95        13.38647
387.40        13.42343
387.85        13.23574
388.29        12.90311
388.74         12.5541
389.19        12.31456
389.64        12.21798
390.09        12.21266
390.54         12.2865
390.98         12.4175
391.43        12.57945
391.88        12.77086
392.33        12.92727
392.78        12.97135
393.23        12.89948
393.67        12.70285
394.12         12.4698
394.57        12.41278
395.02        12.37386
395.47        12.46761
395.91        12.57356
396.36        12.56769
396.81        12.42954
397.26        12.20698
397.71        11.98175
398.15        11.86368
398.60         11.8882
399.05        11.98481
399.50        12.08689
399.95        12.15457
400.39        12.10481
400.84        11.96314
401.29        11.76697
401.74        11.65674
402.18         11.6649
402.63        11.72442
403.08        11.80496
403.53        11.87058
403.97        11.90341
404.42        11.91794
404.87        11.90105
405.32        11.82945
405.76        11.70381
406.21        11.53663
406.66         11.3725
407.11        11.28619
407.55        11.29542
408.00        11.37866
408.45        11.48309
408.90        11.50826
409.34        11.42721
409.79        11.27433
410.24        11.11324
410.68        11.03944
411.13        11.07632
411.58        11.19174
412.03        11.33289
412.47        11.41289
412.92        11.39445
413.37        11.31054
413.81        11.19885
414.26        11.13747
414.71        11.13259
415.15        11.16455
415.60        11.19271
416.05        11.16878
416.49        11.08284
416.94        10.96199
417.39        10.83474
417.83        10.74043
418.28        10.69695
418.73        10.68572
419.17        10.70776
419.62        10.76424
420.07        10.84491
420.51        10.94463
420.96         11.0294
421.41        11.04123
421.85        10.97055
422.30        10.84989
422.74        10.71574
423.19        10.64157
423.64         10.6381
424.08        10.69024
424.53         10.7669
424.98        10.83502
425.42          10.878
425.87        10.89369
426.31        10.87839
426.76        10.84503
427.21        10.76199
427.65        10.65306
428.10        10.52602
428.54        10.37882
428.99        10.23495
429.44        10.16479
429.88        10.15878
430.33         10.0728
430.77        9.970666
431.22        10.16578
431.66        10.58767
432.11        10.77416
432.56        10.64816
433.00        10.46586
433.45        10.28279
433.89        9.984089
434.34        9.728144
434.78        9.855756
435.23        10.25308
435.67         10.4144
436.12        10.29026
436.57        10.14783
437.01         10.0545
437.46        10.01696
437.90        10.05612
438.35        10.15576
438.79        10.26387
439.24        10.28155
439.68        10.20672
440.13        10.11639
440.57        10.02169
441.02        9.947287
441.46        9.908663
441.91        9.824577
442.35        9.731905
442.80        9.895754
443.24        10.22033
443.69        10.21762
444.13        9.913489
444.58        9.773049
445.02        9.798285
445.47        9.737971
445.91        9.605742
446.36        9.550553
446.80        9.578003
447.24        9.656058
447.69         9.75001
448.13        9.806403
448.58        9.811902
449.02        9.780798
449.47        9.751221
449.91        9.777739
450.36        9.868924
450.80        10.00243
451.25        10.12762
451.69        10.16769
452.13        10.10555
452.58        9.973783
453.02        9.820074
453.47        9.720197
453.91        9.692704
454.36        9.744555
454.80        9.794878
455.24        9.825355
455.69        9.808825
456.13        9.760773
456.58        9.710202
457.02        9.689737
457.46        9.709262
457.91        9.753043
458.35        9.795259
458.79        9.801266
459.24        9.773241
459.68        9.728993
460.13        9.696276
460.57        9.669126
461.01        9.730817
461.46        9.770198
461.90        9.810021
462.34         9.93995
462.79        10.10607
463.23        10.09853
463.68        9.943116
464.12        9.868453
464.56          9.8878
465.01        9.892068
465.45        9.862432
465.89        9.815849
466.34        9.769084
466.78        9.767667
467.22        9.826535
467.67        9.812487
468.11        9.729976
468.55         9.62833
468.99        9.547918
469.44        9.525119
469.88        9.567569
470.32        9.668995
470.77        9.779669
471.21         9.83171
471.65         9.80407
472.10        9.724796
472.54         9.63809
472.98        9.626962
473.42        9.706573
473.87        9.843986
474.31        9.993276
474.75        10.08354
475.20        10.10033
475.64        10.06585
476.08        10.00676
476.52        9.961478
476.97        9.944137
477.41        9.939282
477.85        9.952293
478.29        9.990905
478.74        10.05524
479.18        10.14039
479.62        10.22055
480.06        10.27908
480.50        10.31555
480.95        10.24186
481.39        10.24438
481.83        10.27542
482.27        10.39928
482.72        10.51104
483.16        10.71384
483.60         10.8157
484.04        10.82712
484.48        10.80626
484.93        10.82194
485.37        10.85332
485.81        10.82636
486.25         11.3032
486.69        10.70445
487.14          10.953
487.58        11.54947
488.02        11.46741
488.46        11.46091
488.90        11.89853
489.34        11.40282
489.79        11.46218
490.23        11.57108
490.67        11.80873
491.11        12.06654
491.55         12.0713
491.99        11.90156
492.43        11.94299
492.88        12.21626
493.32        12.46878
493.76        12.64812
494.20        12.81217
494.64        12.95196
495.08        13.04747
495.52        13.10642
495.96        13.17968
496.41        13.28206
496.85        13.32259
497.29        13.32377
497.73        13.56079
498.17        13.81917
498.61        13.88931
499.05        13.74564
499.49        13.71345
499.93        13.82075
500.37        13.92875
500.82        14.02288
501.26        14.12376
501.70        14.22534
502.14        14.33924
502.58        14.46706
503.02        14.59581
503.46        14.72259
503.90        14.85015
504.34        14.97166
504.78        15.07458
505.22        15.15527
505.66        15.21438
506.10        15.25183
506.54        15.28667
506.98        15.32679
507.42        15.33887
507.86        15.31837
508.30        15.43013
508.74        15.39506
509.18        15.44193
509.62        15.48853
510.06        15.54445
510.50        15.60694
510.94         15.6752
511.38        15.74732
511.82        15.81183
512.26        15.86485
512.70        15.90838
513.14        15.93941
513.58        15.95455
514.02        15.95627
514.46        15.94678
514.90        15.93803
515.34        15.95009
515.78        15.98584
516.22        16.03724
516.66        16.09078
517.10        16.12438
517.54        16.13125
517.98        16.11819
518.42        16.08765
518.86        16.04458
519.30        15.99415
519.74        15.93622
520.18         15.8818
520.62        15.84683
521.06        15.83511
521.50         15.8461
521.93        15.86754
522.37        15.87248
522.81        15.85633
523.25        15.82358
523.69        15.79087
524.13        15.78557
524.57        15.80921
525.01        15.84745
525.45        15.87596
525.89         15.8571
526.32        15.78072
526.76        15.66641
527.20        15.53141
527.64        15.40148
528.08        15.28859
528.52        15.18978
528.96        15.10891
529.40        15.05145
529.83        15.01521
530.27        14.99844
530.71        14.99324
531.15        14.98773
531.59         14.9748
532.03        14.95422
532.46        14.91675
532.90        14.85438
533.34        14.76972
533.78         14.6717
534.22        14.57655
534.66        14.50839
535.09        14.47187
535.53        14.46386
535.97        14.47884
536.41        14.51137
536.85        14.55363
537.28        14.60383
537.72        14.64537
538.16        14.65579
538.60        14.63316
539.04        14.58992
539.47        14.53754
539.91        14.51024
540.35        14.51436
540.79         14.5462
541.22        14.61095
541.66        14.71809
542.10        14.86082
542.54        15.03286
542.97        15.21206
543.41        15.36369
543.85        15.47979
544.29        15.57196
544.72         15.6443
545.16        15.71832
545.60        15.80107
546.04        15.88202
546.47        15.97667
546.91        16.13376
547.35        16.34262
547.79        16.54051
548.22        16.70339
548.66        16.88317
549.10         17.0808
549.53        17.21079
549.97        17.25494
550.41        17.54049
550.84        17.54572
551.28        17.66254
551.72        17.73834
552.15        17.93541
552.59        18.03078
553.03        18.20239
553.46        18.36784
553.90        18.49739
554.34        18.58226
554.77        18.65125
555.21        18.72506
555.65        18.78533
556.08        18.85495
556.52        19.01408
556.96        19.22975
557.39        19.40591
557.83        19.52463
558.27        19.58635
558.70        19.62712
559.14        19.72849
559.57        19.88243
560.01        20.04573
560.45        20.18356
560.88        20.18748
561.32        20.18131
561.75        20.18806
562.19        20.25171
562.63        20.29664
563.06        20.32499
563.50         20.3941
563.93        20.49403
564.37        20.59997
564.80        20.70029
565.24        20.80545
565.68        20.90561
566.11        20.99883
566.55        21.08517
566.98        21.13601
567.42        21.18956
567.85        21.26045
568.29         21.3478
568.72        21.53136
569.16        21.84125
569.60        21.77141
570.03         21.9746
570.47        22.32425
570.90        22.35069
571.34        22.46158
571.77        22.61881
572.21        22.68161
572.64        22.69173
573.08        22.84485
573.51        23.18826
573.95        23.16397
574.38        23.41853
574.82         23.6543
575.25        23.28563
575.69        23.39188
576.12        23.31142
576.56        23.39885
576.99        23.54073
577.42        23.66703
577.86        23.51847
578.29        23.48153
578.73        23.49617
579.16        23.48569
579.60        23.37677
580.03        23.16716
580.47        23.23634
580.90        23.14996
581.33        23.02002
581.77        22.95499
582.20        22.90656
582.64        22.71078
583.07         22.4381
583.51        22.28468
583.94        22.37323
584.37        22.33597
584.81        22.15887
585.24         22.1663
585.68        22.21938
586.11         22.0036
586.54        21.68199
586.98        21.68348
587.41        21.97794
587.85        21.74364
588.28        21.68398
588.71        21.61625
589.15        21.54056
589.58        21.53818
590.01        21.42765
590.45        21.35923
590.88        21.32919
591.31        21.38004
591.75        21.47137
592.18        21.56183
592.61        21.64746
593.05          21.479
593.48        21.65871
593.91        21.66368
594.35        21.70348
594.78        21.76006
595.21         21.8664
595.65        21.86293
596.08        21.78815
596.51        22.25649
596.94        22.52027
597.38        22.84366
597.81        22.98298
598.24        22.95685
598.68        22.96622
599.11        23.41304
599.54          23.822
599.97        24.13307
600.41        24.25167
600.84        24.55041
601.27        24.95755
601.70        25.39062
602.14         25.7865
602.57        26.08428
603.00        26.29707
603.43        26.63138
603.87        27.02152
604.30        27.49665
604.73        27.83009
605.16        28.28555
605.60        28.76939
606.03        29.18342
606.46        29.49269
606.89        29.90058
607.32        30.41149
607.76        30.81214
608.19        31.08821
608.62        31.38326
609.05        31.74515
609.48        32.07784
609.92        32.35202
610.35        32.83691
610.78        33.17474
611.21        33.25794
611.64         33.7534
612.07        33.98902
612.50        34.18703
612.94        34.51173
613.37         35.0339
613.80        35.04365
614.23        35.67752
614.66        35.90021
615.09        36.06627
615.52        36.26194
615.96        36.51935
616.39        36.75201
616.82        36.91805
617.25        37.33888
617.68        37.32355
618.11         37.6485
618.54        38.05547
618.97         38.2723
619.40        38.31709
619.84        38.47687
620.27        38.80375
620.70         39.0817
621.13        39.22283
621.56        39.47478
621.99        39.45977
622.42        39.16257
622.85        39.54086
623.28         39.4445
623.71        39.85851
624.14        39.25652
624.57        39.76922
625.00        39.70394
625.43        39.63058
625.86        39.45174
626.29        39.18665
626.72        39.24101
627.15        38.93743
627.58        38.90137
628.01        38.87429
628.44        38.58663
628.87         38.1067
629.30        37.90843
629.73        37.97266
630.16        37.83424
630.59        37.46523
631.02        37.21139
631.45        36.90837
631.88        36.57814
632.31        36.17107
632.74        35.72468
633.17        35.25443
633.60        34.79045
634.03        34.34554
634.46        33.90821
634.89        33.47812
635.32        33.05803
635.75        32.64641
636.18        32.24313
636.61         31.8457
637.04        31.45155
637.47        31.06447
637.89        30.67466
638.32        30.27759
638.75        29.92675
639.18        29.63093
639.61        29.21792
640.04        29.01471
640.47        28.73135
640.90        28.45241
641.33        28.35093
641.76          28.113
642.18         27.9551
642.61        27.77486
643.04        27.59043
643.47        27.44253
643.90        27.39263
644.33        27.44789
644.76        27.62015
645.18        27.83391
645.61        27.88642
646.04        27.73377
646.47        27.73947
646.90        27.90102
647.33         28.0256
647.75        28.11487
648.18         28.3033
648.61        28.60531
649.04        28.95721
649.47        29.35541
649.89         29.8787
650.32        30.45254
650.75        30.85843
651.18        31.11866
651.61        31.47053
652.03        31.97655
652.46         32.5249
652.89        33.04329
653.32        33.59276
653.74        34.25694
654.17        34.26342
654.60        34.70087
655.03        35.81985
655.46        35.63776
655.88        36.60857
656.31        38.56185
656.74        39.24335
657.16        38.98135
657.59        37.95053
658.02        38.45537
658.45        39.15025
658.87         39.7897
659.30          39.958
659.73        40.52826
660.15        41.10519
660.58        41.35266
661.01        41.68297
661.44        41.94238
661.86        41.93309
662.29         41.7921
662.72        42.13607
663.14        42.88946
663.57        43.15081
664.00        42.97306
664.42        43.13829
664.85        43.68661
665.27        44.16549
665.70        44.50753
666.13        44.83046
666.55        45.10792
666.98        45.34199
667.41        45.55951
667.83        45.65917
668.26         45.6174
668.69         46.0106
669.11        45.89136
669.54        46.04354
669.96        46.18128
670.39        46.39184
670.82        46.65894
671.24        46.70884
671.67        46.87686
672.09        47.06521
672.52        47.34776
672.94        47.59307
673.37        47.42839
673.80        47.78988
674.22        47.65052
674.65        47.83374
675.07        48.07523
675.50        48.37777
675.92        48.68322
676.35        48.88969
676.77         48.9889
677.20        48.99483
677.62        48.97922
678.05        49.05533
678.47        49.24612
678.90        49.52087
679.32        49.80487
679.75        49.98842
680.17        50.03656
680.60         49.9915
681.02        49.92144
681.45        49.91025
681.87        49.98451
682.30        50.18307
682.72         50.4552
683.15        50.49425
683.57        50.38015
684.00        50.58097
684.42        51.03771
684.85        51.28498
685.27        51.29808
685.70        51.27327
686.12        51.28479
686.54        51.52954
686.97        51.93559
687.39        52.16847
687.82        52.17245
688.24        52.21556
688.66        52.29321
689.09        52.22892
689.51        52.06842
689.94        51.98293
690.36        51.99755
690.78        52.07067
691.21        52.18165
691.63        52.29905
692.06         52.4074
692.48        52.52771
692.90        52.65923
693.33        52.77287
693.75        52.86245
694.17        52.95621
694.60         53.0766
695.02        53.06551
695.44        53.21115
695.87        53.35798
696.29        53.55984
696.71        53.52583
697.14        53.35138
697.56        53.50352
697.98        53.92374
698.41        54.13848
698.83        54.11672
699.25        54.13163
699.68        54.19265
700.10        54.23357
700.52        54.25101
700.94        54.27157
701.37        54.28817
701.79        54.30597
702.21        54.32019
702.64        54.34081
703.06        54.37678
703.48        54.45069
703.90        54.56602
704.33        54.72041
704.75          54.874
705.17        55.01979
705.59        55.13011
706.01        55.21287
706.44        55.26687
706.86        55.29854
707.28        55.31243
707.70        55.30696
708.12        55.31368
708.55        55.38179
708.97        55.51318
709.39        55.66502
709.81          55.821
710.23        55.99301
710.66        56.16003
711.08        56.31086
711.50        56.43028
711.92        56.53645
712.34        56.63144
712.76        56.71001
713.19        56.74979
713.61         56.7506
714.03        56.70273
714.45        56.62682
714.87        56.55708
715.29        56.55381
715.71         56.6406
716.13        56.78313
716.56        56.89398
716.98        57.19655
717.40        57.05738
717.82        57.08942
718.24        57.11852
718.66        57.08563
719.08         56.9969
719.50        56.90297
719.92        56.84074
720.34        56.83075
720.76        56.88127
721.19        56.98306
721.61        57.10764
722.03        57.17378
722.45        57.15057
722.87        57.09842
723.29        57.06961
723.71        57.01017
724.13        56.90581
724.55        57.31155
724.97        57.19962
725.39        57.32046
725.81        57.36604
726.23         57.3876
726.65        57.39251
727.07        57.41264
727.49         57.4645
727.91        57.51438
728.33        57.58687
728.75         57.7226
729.17        57.91756
729.59        58.16605
730.01        58.37754
730.43        58.40249
730.85        58.22822
731.27        57.91461
731.69        57.60873
732.10        57.54115
732.52         57.7562
732.94        58.18136
733.36        58.69286
733.78        59.04793
734.20        59.15696
734.62        59.13564
735.04         59.0499
735.46        58.87701
735.88        58.72262
736.30        58.84766
736.72        59.14972
737.13        59.25856
737.55        59.05024
737.97        58.65056
738.39        58.06826
738.81        57.90732
739.23        58.17306
739.65        58.66163
740.06        59.13797
740.48        59.38876
740.90        59.33369
741.32        59.02494
741.74        58.62835
742.16        58.43384
742.57        58.52996
742.99         58.8259
743.41        59.19169
743.83        59.38712
744.25        59.36946
744.67        59.26815
745.08        59.17799
745.50        59.17982
745.92        59.30879
746.34        59.53081
746.75        59.78528
747.17        59.92708
747.59        59.91881
748.01        59.92118
748.42        59.95598
748.84        59.63552
749.26        59.46518
749.68        59.44227
750.09         59.6357
750.51        59.77859
750.93        59.79186
751.35        59.66008
751.76        59.44569
752.18        59.35589
752.60        59.41627
753.01        59.50354
753.43        59.56713
753.85        59.61543
754.27         59.6471
754.68        59.68414
755.10         59.7347
755.52        59.81385
755.93        59.90171
756.35        59.95938
756.77        60.05447
757.18        60.20996
757.60        60.42134
758.02        60.94749
758.43        61.52399
758.85        61.17078
759.26        60.13269
759.68        59.76606
760.10         60.1703
760.51        60.52839
760.93        60.69046
761.34        60.89365
761.76        61.02506
762.18        60.79203
762.59        60.30807
763.01        59.95316
763.42        59.83566
763.84        59.77786
764.26        59.80355
764.67         59.9053
765.09        60.06173
765.50        60.52352
765.92        60.94839
766.33         61.0937
766.75        60.75399
767.16        61.08343
767.58        60.78679
768.00        60.56367
768.41        60.16422
768.83        60.26236
769.24        60.70881
769.66        60.73848
770.07        60.38773
770.49        60.19233
770.90        60.25516
771.32        60.57747
771.73        61.02608
772.15        61.18248
772.56        61.01621
772.97          60.867
773.39        60.39815
773.80        60.75301
774.22         60.7298
774.63        61.20696
775.05        61.65807
775.46        61.86454
775.88        61.73001
776.29        61.38111
776.70         60.9524
777.12        60.65246
777.53        60.55806
777.95        60.58671
778.36        60.72105
778.77        60.90615
779.19        61.10981
779.60        61.43235
780.02        61.75792
780.43        61.87138
780.84         61.8055
781.26         61.6521
781.67        61.54253
782.09        61.89907
782.50        62.58768
782.91         62.5349
783.33        62.23653
783.74        61.94771
784.15        61.85034
784.57        61.51304
784.98        61.05676
785.39        60.89449
785.81        61.07209
786.22        61.46494
786.63        61.95546
787.04        62.35713
787.46        62.60507
787.87        62.73204
788.28        62.77935
788.70        62.80497
789.11        62.82806
789.52        62.84692
789.93        62.83696
790.35        62.76892
790.76         62.6543
791.17        62.48531
791.58        62.35194
792.00        62.39132
792.41        62.59386
792.82        62.91033
793.23        63.23704
793.65        63.18278
794.06         62.8913
794.47        63.11505
794.88         63.7098
795.29        63.83618
795.71        63.43724
796.12        63.02948
796.53        62.76421
796.94        62.65697
797.35        62.81567
797.76        63.28476
798.18         63.8463
798.59        64.28821
799.00        64.55399
799.41        63.87883
799.82        63.95624
800.23        63.68059
800.64        63.59291
801.06        63.57834
801.47        63.64502
801.88        63.70979
802.29        63.72379
802.70        63.71598
803.11        63.69949
803.52        63.68953
803.93        63.70918
804.34        63.76753
804.75        63.80062
805.17        63.80703
805.58        63.82865
805.99        63.54503
806.40        63.14669
806.81        63.69634
807.22        64.87262
807.63          64.853
808.04          63.769
808.45        63.42411
808.86        63.94064
809.27        64.33817
809.68        64.44953
810.09        64.35358
810.50        64.09488
810.91        63.98848
811.32        64.10249
811.73        64.19862
812.14        64.28146
812.55        64.55077
812.96        64.90775
813.37        65.03778
813.78        64.88783
814.19        64.57026
814.60        64.20976
815.01        63.97666
815.42        63.91476
815.83        63.96849
816.24        64.09401
816.65        64.20912
817.05        64.27429
817.46        64.28296
817.87         64.2612
818.28         64.1944
818.69        64.09257
819.10        63.96379
819.51        63.84018
819.92        63.78912
820.33        63.83224
820.74        63.94127
821.14        64.11832
821.55        64.37457
821.96        64.68894
822.37        65.06157
822.78         65.3914
823.19        65.50031
823.60        65.33971
824.00        64.94582
824.41        64.47084
824.82        64.18793
825.23        64.16198
825.64        64.34702
826.04        64.58867
826.45        64.54447
826.86        64.16605
827.27        63.56822
827.68        62.99493
828.08        62.84506
828.49        63.16531
828.90        63.86343
829.31        64.71468
829.72        65.33144
830.12        65.60525
830.53        65.55847
830.94        65.38148
831.35        65.36772
831.75        65.61485
832.16        65.96226
832.57        66.27113
832.97        66.27848
833.38        65.94378
833.79        65.44189
834.20        64.91211
834.60        64.52174
835.01        64.35744
835.42        64.32782
835.82        64.52269
836.23        65.03249
836.64        65.83824
837.04         66.9164
837.45        67.87996
837.86         68.2242
838.26        67.82865
838.67        66.86079
839.08        65.67516
839.48        64.81458
839.89        64.48249
840.29        64.52984
840.70        64.83224
841.11        65.18902
841.51        65.52668
841.92        65.87243
842.33        66.20813
842.73        66.47216
843.14        66.59937
843.54        66.61198
843.95        66.52412
844.35        66.44316
844.76        66.38023
845.17        66.29716
845.57        66.23627
845.98        66.22973
846.38        66.28982
846.79        66.41667
847.19        66.47842
847.60        66.20748
848.00         65.5983
848.41        64.76196
848.81        63.98074
849.22        63.67137
849.62        63.94765
850.03        64.64657
850.43         65.5766
850.84        66.20839
851.24        66.41466
851.65        66.24642
852.05        65.87353
852.46        65.53935
852.86        65.32705
853.27        65.21651
853.67        65.08699
854.07         64.9354
854.48        64.71511
854.88        64.47485
855.29        64.23089
855.69        64.17513
856.10        64.26988
856.50        64.54481
856.90        64.82373
857.31        64.88441
857.71        64.72868
858.12        64.38288
858.52        64.02181
858.92        63.89072
859.33        64.03774
859.73        64.43479
860.13        64.92229
860.54        65.25209
860.94        65.38971
861.34        65.31911
861.75        65.11432
862.15         64.9521
862.55        64.85335
862.96        64.79955
863.36        64.62557
863.76        64.09589
864.17         63.2282
864.57        62.16162
864.97        61.18871
865.38        60.70271
865.78        60.81167
866.18        61.38092
866.58        62.21631
866.99        62.88867
867.39        63.24609
867.79        63.37609
868.19        63.29802
868.60         63.0493
869.00        62.69023
869.40        62.18703
869.80        61.77056
870.21        61.84322
870.61        62.50282
871.01        63.58715
871.41         64.6972
871.81        65.19147
872.22         64.9081
872.62        64.02649
873.02        62.87627
873.42        62.02204
873.82        61.66937
874.22        61.71287
874.63        61.93649
875.03        62.00042
875.43        61.82627
875.83         61.5209
876.23        61.36262
876.63        61.79345
877.03         62.8507
877.44         64.2841
877.84        65.67628
878.24        66.27271
878.64        65.91962
879.04        64.92234
879.44         63.6658
879.84        62.71228
880.24        62.22978
880.64        62.03083
881.04        62.13106
881.44        62.54341
881.84        63.21247
882.24        64.18636
882.65        65.08907
883.05        65.37399
883.45         64.8734
883.85        63.74889
884.25        62.55615
884.65        62.15817
885.05        62.71334
885.45        63.94836
885.85         65.3587
886.25        66.07016
886.65        65.81586
887.05        64.88403
887.45        63.61417
887.85        62.58776
888.25        62.04146
888.65        61.80865
889.04        61.78854
889.44        61.91939
889.84        62.12122
890.24        62.45552
890.64        62.87385
891.04        63.22313
891.44        63.43681
891.84        63.52148
892.24        63.53081
892.64        63.57805
893.04        63.69606
893.44        63.85003
893.83        64.06851
894.23        64.32284
894.63         64.6161
895.03         64.9522
895.43        65.25737
895.83        65.42288
896.23        65.42084
896.63        65.24512
897.02         64.9904
897.42        64.88311
897.82        64.95054
898.22        65.18484
898.62          65.372
899.01        65.16456
899.41        64.50724
899.81        63.52194
900.21        62.60617
900.61        62.36609
901.00        62.89257
901.40        63.99063
901.80        65.14813
902.20         65.5195
902.59        64.91124
902.99        63.60929
903.39        62.12895
903.79        61.24292
904.18        61.15156
904.58        61.64247
904.98        62.38905
905.38        62.89167
905.77         62.9753
906.17        62.78346
906.57        62.52583
906.96        62.55177
907.36        62.90485
907.76        63.48044
908.15        63.98836
908.55        63.85768
908.95        63.06181
909.34        61.81222
909.74        60.65783
910.14        60.29068
910.53        60.89102
910.93        62.18824
911.33        63.82788
911.72        65.24703
912.12         66.1506
912.52        66.68327
912.91        66.93788
913.31         67.0837
913.70        67.18753
914.10        67.13274
914.49         66.8727
914.89        66.34486
915.29         65.5947
915.68        64.72356
916.08        63.92293
916.47        63.33141
916.87        63.04847
917.26        63.00422
917.66        63.16812
918.05        63.49459
918.45        63.88454
918.84        64.36527
919.24        64.76608
919.64        64.93946
920.03        64.84677
920.42        64.49786
920.82        64.03027
921.21        63.58087
921.61        63.21889
922.00        62.93582
922.40        62.73098
922.79        62.67073
923.19        62.73445
923.58        62.94241
923.98         63.2174
924.37        63.44547
924.77        63.58097
925.16         63.6334
925.55        63.65357
925.95        63.73946
926.34        63.92623
926.74        64.17177
927.13        64.37682
927.52         64.3545
927.92         64.0893
928.31        63.62732
928.70        63.16173
929.10        62.98642
929.49        63.16261
929.89        63.58428
930.28        64.06437
930.67        64.21101
931.07        63.93061
931.46        63.38982
931.85        62.77721
932.24        62.37281
932.64        62.27754
933.03        62.41816
933.42        62.76245
933.82         63.2386
934.21        63.79004
934.60        64.36143
934.99        64.93066
935.39        65.44306
935.78        65.90823
936.17        66.30581
936.56         66.3882
936.96        65.81591
937.35        64.63033
937.74        63.03349
938.13        61.58936
938.53         61.0049
938.92        61.34959
939.31        62.47226
939.70        63.88448
940.09         64.6205
940.49        64.35874
940.88        63.40046
941.27        62.24848
941.66        61.66026
942.05        61.81565
942.44        62.50498
942.84        63.35101
943.23        63.73759
943.62        63.43858
944.01        62.67236
944.40        61.87684
944.79        61.67409
945.18        62.18725
945.57          63.221
945.97        64.27389
946.36        64.72102
946.75        64.28208
947.14        63.18491
947.53        61.94558
947.92        61.33385
948.31        61.53709
948.70        62.35131
949.09        63.31353
949.48        63.59971
949.87        62.98708
950.26        61.76667
950.65        60.48243
951.04        59.86417
951.43        60.07627
951.82        60.94004
952.21        62.00768
952.60        62.47329
952.99        62.09461
953.38        61.09731
953.77        60.09349
954.16        59.91018
954.55        60.70152
954.94        62.32327
955.33        64.06107
955.72        64.41286
956.11        62.95844
956.50        60.26903
956.89        57.61349
957.28        56.61926
957.66        57.61315
958.05        60.10696
958.44         63.1637
958.83        64.83747
959.22        64.44613
959.61        62.63617
960.00        60.45425
960.39        59.24754
960.78        59.27736
961.16        60.15257
961.55        61.27636
961.94        61.55168
962.33        60.65115
962.72         59.1024
963.11        57.52499
963.49        56.69742
963.88        56.78613
964.27         57.5151
964.66        58.65997
965.04        59.88085
965.43        60.90826
965.82        61.84665
966.21        62.59069
966.60        62.94133
966.98        62.89238
967.37        62.49135
967.76        61.92709
968.15        61.48272
968.53         61.2085
968.92        60.99204
969.31        60.91628
969.69        61.11765
970.08        61.56446
970.47        62.37357
970.86        63.06777
971.24        62.83427
971.63        61.54855
972.02        59.48747
972.40        57.63546
972.79        57.54464
973.17        59.43234
973.56        62.71474
973.95        66.27313
974.33        67.99167
974.72        67.17324
975.11        64.52061
975.49        61.23013
975.88        59.48112
976.26        59.82272
976.65        61.60736
977.04         64.0561
977.42         65.7231
977.81         65.9353
978.19        65.25365
978.58        64.12775
978.96        63.13158
979.35        62.55986
979.74          62.187
980.12        62.06369
980.51        62.30234
980.89        62.91437
981.28        63.74355
981.66        64.76776
982.05        65.63145
982.43        66.29965
982.82        66.81358
983.20        66.87013
983.59        65.92855
983.97        64.05955
984.35        61.51851
984.74        59.35569
985.12        59.02106
985.51         60.6382
985.89        63.86185
986.28        67.39555
986.66         69.4054
987.04        69.16611
987.43        67.21023
987.81        64.42757
988.20        62.74232
988.58        62.67553
988.96        63.76549
989.35          64.966
989.73        64.80629
990.12        62.88828
990.50         59.8572
990.88        56.68515
991.27        54.87741
991.65        54.78953
992.03        55.99282
992.42        57.80021
992.80        59.47388
993.18        60.62816
993.56        61.47735
993.95        62.09995
994.33         62.7536
994.71        63.41961
995.10        63.99156
995.48        64.33056
995.86        64.37653
996.24        64.15746
996.63        63.63236
997.01        63.19207
997.39        63.32848
997.77        64.11353
998.15        65.39948
998.54        66.56262
998.92        66.64839
999.30        65.44389
999.68        63.21976
1000.06         60.7141
1000.45        59.29629
1000.83        59.51219
1001.21        61.05167
1001.59        63.28211
1001.97        65.11662
1002.35        66.16634
1002.73        66.66356
1003.12        66.92716
1003.50        67.39999
1003.88        68.22291
1004.26        69.21019
1004.64        69.97948
1005.02        69.96339
1005.40        69.09771
1005.78        67.64774
1006.16        66.21036
1006.54        65.56357
1006.92        65.84837
1007.30        66.91708
1007.69        68.20371
1008.07        68.57547
1008.45        67.59844
1008.83        65.62112
1009.21        63.44867
1009.59        62.43885
1009.97        62.94902
1010.35        64.48341
1010.73         66.4585
1011.11        67.92034
1011.49        68.52251
1011.86        68.65978
1012.24        68.19703
1012.62         67.1385
1013.00        65.53285
1013.38        63.19536
1013.76        60.68809
1014.14        59.30102
1014.52        59.46906
1014.90        61.02459
1015.28         62.7724
1015.66        62.68176
1016.04        60.35667
1016.41        56.46026
1016.79        52.43309
1017.17        51.11459
1017.55        53.01015
1017.93        56.55027
1018.31        60.38562
1018.69        63.69947
1019.06        66.70227
1019.44        69.87032
1019.82         73.2765
1020.20        75.72511
1020.58        75.99542
1020.95         74.1006
1021.33        71.02378
1021.71         67.5843
1022.09        63.68203
1022.46        58.71021
1022.84        53.28709
1023.22        49.32153
1023.60        48.41677
1023.97        50.10836
1024.35        52.86136
1024.73        55.13415
