SpectraSmart Spectrum 2.9.0.0
--------- Device Information -----------
Spectrum Name :  反射率_0
Saving Time :  2024/04/30 01:21:10
Spectro-Module Model Name : SE2030-DUVN
Spectro-Module Serial Number : OS361AC55029948
Wavelength Start : 200
Wavelength End : 1025
Wavelength Unit : Wavelength(nm)
Spectrum Unit : Reflectance(%)
-----------Spectrum Setting ------------
Integration Time : 20ms
Average : 10
Boxcar : 0
Background removal :  enabled
linearity correction :  enabled
SC :  disabled
Intensity correction :  disabled
DWT denoise :  enabled
savitzky-golay :  disabled
FFT :  disabled
Running average :  disabled
Kalman :  disabled
High pass :  disabled
---------------BEGIN--------------------
Wavelength(nm)             Reflectance(%)
200.29               0
200.75        71.98612
201.21        51.29568
201.67        29.33831
202.13        15.98918
202.58         15.7797
203.04        27.72894
203.50        48.29821
203.96         68.1088
204.42        81.03748
204.88         87.3563
205.34        86.95406
205.80        82.05868
206.26        75.49331
206.72         68.3017
207.18        61.27217
207.64        54.09675
208.10        46.25208
208.55        37.46975
209.01        29.10085
209.47        25.74009
209.93        28.33574
210.39         34.4446
210.85        40.31804
211.31        42.91248
211.77        42.08921
212.23        38.03493
212.69        32.06179
213.14        30.82918
213.60        36.55922
214.06        45.34142
214.52        52.61276
214.98        55.85858
215.44        55.98183
215.90        54.26191
216.36         52.8027
216.81        55.51458
217.27        64.59235
217.73        80.79227
218.19        102.7592
218.65        118.9294
219.11        120.5304
219.57        111.1967
220.02        100.0575
220.48        94.31178
220.94        93.33591
221.40        95.51029
221.86        98.56142
222.32        96.59827
222.77         89.1809
223.23        81.82823
223.69        77.13922
224.15        76.00402
224.61        77.70796
225.06        81.48819
225.52        86.38972
225.98        89.43574
226.44        89.57358
226.90        88.20023
227.36        86.76135
227.81        86.32274
228.27         86.9954
228.73        88.10777
229.19        89.28815
229.65         89.7239
230.10        89.15923
230.56        88.52023
231.02        87.65851
231.48        86.36697
231.93        84.58781
232.39        82.34367
232.85         80.3874
233.31         80.3141
233.77        82.48071
234.22        86.64792
234.68        90.99573
235.14          92.269
235.60        89.71194
236.05        84.37318
236.51        78.81783
236.97        76.30433
237.43        77.60326
237.88        82.59947
238.34        89.80235
238.80        94.79035
239.26        94.48108
239.71        89.95762
240.17        83.94559
240.63        80.36002
241.08        80.34724
241.54        83.47183
242.00         89.9346
242.46        95.86854
242.91        96.20593
243.37        90.73223
243.83        84.08389
244.28        81.26061
244.74        82.49796
245.20        86.27676
245.66        91.10959
246.11        93.43394
246.57        91.41857
247.03        87.09325
247.48        80.27706
247.94        71.92319
248.40        65.38076
248.85        60.64317
249.31        59.63679
249.77        63.40941
250.22        72.55265
250.68        89.91248
251.14        115.2859
251.59        128.5224
252.05        116.5423
252.51        95.45995
252.96         79.8762
253.42        74.89371
253.88        77.31501
254.33        84.10448
254.79        92.50488
255.25        95.90928
255.70        93.11661
256.16        88.62608
256.62        84.71957
257.07        82.58144
257.53        82.31373
257.99        82.79183
258.44        83.08827
258.90        82.87634
259.35        81.73873
259.81        80.63269
260.27        79.70935
260.72        79.09944
261.18        79.01485
261.63        78.92245
262.09        78.81099
262.55        78.22769
263.00        77.10629
263.46        75.91705
263.91         74.6438
264.37        73.71114
264.83        73.00777
265.28        72.36997
265.74        71.85284
266.19         71.2328
266.65        70.58731
267.11        69.91719
267.56        69.24562
268.02        68.64572
268.47        68.06221
268.93        67.47082
269.38        66.79772
269.84        66.03974
270.30        65.19236
270.75        64.28809
271.21        63.35098
271.66        62.31698
272.12        61.21239
272.57        60.01292
273.03        58.85716
273.48        57.85734
273.94        57.11121
274.39        56.49954
274.85        55.97376
275.31        55.32002
275.76        54.46897
276.22        53.54752
276.67         52.5638
277.13        51.69767
277.58        50.90541
278.04        50.20024
278.49        49.48555
278.95        48.77895
279.40           48.01
279.86        47.29601
280.31        46.56292
280.77        45.86507
281.22        45.16022
281.68        44.48896
282.13        43.89266
282.59        43.53254
283.04        43.35393
283.50        43.31004
283.95        43.19745
284.41        42.75867
284.86        41.94739
285.32        40.94096
285.77        39.88287
286.22        39.07505
286.68        38.59351
287.13        38.29405
287.59        38.14814
288.04        38.03319
288.50        37.91983
288.95        37.79738
289.41        37.62786
289.86        37.28206
290.32        36.78627
290.77        36.17126
291.22        35.54141
291.68        35.07167
292.13        34.80206
292.59        34.71348
293.04        34.79842
293.50        35.07912
293.95        35.51957
294.40        36.12343
294.86        36.75522
295.31        37.21666
295.77        37.46661
296.22        37.53934
296.68        37.60339
297.13        37.90738
297.58        38.50673
298.04        39.28759
298.49        40.08044
298.95        40.62607
299.40        40.85599
299.85        40.86807
300.31        40.78649
300.76        40.73186
301.21        40.78536
301.67        40.92162
302.12         41.0952
302.58          41.382
303.03        41.75787
303.48         42.1076
303.94        42.39104
304.39        43.12635
304.84        43.29113
305.30        43.69024
305.75        43.99649
306.20        44.25074
306.66        44.45961
307.11        44.60174
307.57        44.69747
308.02        44.68809
308.47         44.5942
308.93        44.43996
309.38        44.25756
309.83        44.15243
310.29        44.14777
310.74        44.21718
311.19        44.28015
311.65        44.19979
312.10        43.94828
312.55        43.57378
313.00        43.20452
313.46        43.04034
313.91        43.10243
314.36        43.32387
314.82         43.5574
315.27        43.58852
315.72        43.35281
316.18         42.9335
316.63        42.42645
317.08        41.99639
317.53        41.70432
317.99        41.50983
318.44        41.38216
318.89        41.27946
319.35        41.17696
319.80        41.08661
320.25        41.00957
320.70        40.94177
321.16        40.86216
321.61        40.77846
322.06        40.64339
322.51        40.40397
322.97        40.05715
323.42        39.63095
323.87        39.19438
324.32         38.8585
324.78        38.63905
325.23        38.53182
325.68        38.45982
326.13        38.29451
326.59         37.9995
327.04        37.62914
327.49        37.26146
327.94        37.03938
328.39        36.98931
328.85        37.04312
329.30         37.1329
329.75        37.08156
330.20        36.84029
330.66        36.46201
331.11        36.02903
331.56        35.64064
332.01        35.34101
332.46        35.10684
332.92        34.92448
333.37        34.81631
333.82        34.76294
334.27        34.76018
334.72        34.79344
335.17        34.83255
335.63        34.85434
336.08        34.87373
336.53         34.8378
336.98        34.68711
337.43        34.42376
337.88        34.07171
338.34        33.72541
338.79        33.55608
339.24        33.59037
339.69        33.78556
340.14        34.03754
340.59        34.16563
341.05        34.12162
341.50        33.95978
341.95        33.75202
342.40        33.62173
342.85        33.59848
343.30         33.6243
343.75        33.66362
344.20        33.66685
344.66        33.62389
345.11        33.55933
345.56        33.44943
346.01        33.24723
346.46        32.96824
346.91        32.63498
347.36        32.35061
347.81        32.27103
348.26        32.41438
348.72        32.72404
349.17        33.07865
349.62        33.26388
350.07        33.21686
350.52        33.00218
350.97        32.71153
351.42        32.48507
351.87        32.37129
352.32         32.3369
352.77        32.35166
353.22        32.37035
353.67        32.37214
354.13         32.3602
354.58        32.36214
355.03        32.41796
355.48        32.51735
355.93        32.63276
356.38        32.67194
356.83        32.50052
357.28        32.11203
357.73        31.57018
358.18        31.00233
358.63        30.60637
359.08        30.43179
359.53        30.41624
359.98         30.4851
360.43        30.51455
360.88        30.45852
361.33        30.35473
361.78        30.20336
362.23        30.00315
362.68        29.76769
363.13        29.49587
363.58         29.2274
364.03        29.03238
364.48        28.92437
364.93        28.88212
365.38        28.87513
365.83         28.8497
366.28         28.7834
366.73        28.68773
367.18        28.55407
367.63        28.37046
368.08        28.14072
368.53        27.86952
368.98        27.58762
369.43        27.34651
369.88        27.16498
370.33        27.04011
370.78        26.95236
371.23        26.86423
371.68        26.76327
372.13        26.65346
372.58         26.5543
373.03         26.4989
373.48        26.48368
373.93        26.48478
374.38        26.45636
374.83        26.32921
375.28        26.09704
375.72        25.78962
376.17        25.47316
376.62        25.19279
377.07        24.96504
377.52        24.76906
377.97        24.62636
378.42        24.57242
378.87        24.60186
379.32        24.70193
379.77        24.79416
380.22        24.76018
380.67        24.57919
381.11        24.28043
381.56        23.95508
382.01        23.75779
382.46        23.73083
382.91         23.8331
383.36         23.9714
383.81         24.0025
384.26        23.89358
384.71        23.68389
385.15        23.45383
385.60        23.35826
386.05        23.40792
386.50        23.54338
386.95        23.66043
387.40        23.60105
387.85        23.34759
388.29        22.96583
388.74        22.58094
389.19        22.28688
389.64        22.11057
390.09        22.00707
390.54        21.98141
390.98         22.0384
391.43        22.16421
391.88        22.34622
392.33        22.49502
392.78        22.50721
393.23        22.37761
393.67        22.08894
394.12        21.76008
394.57         21.7096
395.02        21.64956
395.47        21.78819
395.91        21.94975
396.36        21.98203
396.81        21.85666
397.26        21.63463
397.71        21.39736
398.15        21.25282
398.60        21.24902
399.05        21.28972
399.50        21.33084
399.95        21.40789
400.39        21.39153
400.84        21.29616
401.29        21.10354
401.74        20.91366
402.18         20.7516
402.63        20.55831
403.08        20.38644
403.53        20.32888
403.97        20.39209
404.42        20.55261
404.87        20.72556
405.32         20.7703
405.76        20.65088
406.21        20.41371
406.66        20.15168
407.11        20.01533
407.55        20.04618
408.00        20.19993
408.45        20.38445
408.90        20.43278
409.34        20.30211
409.79         20.0469
410.24        19.79243
410.68        19.72456
411.13        19.87887
411.58        20.19223
412.03        20.52898
412.47        20.66009
412.92        20.51516
413.37        20.18678
413.81        19.80055
414.26        19.56866
414.71        19.52518
415.15        19.60848
415.60        19.74009
416.05        19.81123
416.49        19.78507
416.94        19.70836
417.39        19.59931
417.83        19.47678
418.28        19.36206
418.73        19.23978
419.17        19.14882
419.62        19.15788
420.07        19.26846
420.51        19.45259
420.96        19.64298
421.41        19.72099
421.85         19.6566
422.30        19.50878
422.74        19.32073
423.19        19.18834
423.64        19.12766
424.08         19.1195
424.53        19.13911
424.98         19.1773
425.42        19.22546
425.87        19.27326
426.31        19.29923
426.76        19.29586
427.21        19.19549
427.65        19.03994
428.10        18.85198
428.54        18.64672
428.99        18.45968
429.44        18.41247
429.88        18.45394
430.33        18.26619
430.77        17.97244
431.22        18.16414
431.66        18.76048
432.11        19.06689
432.56        18.97574
433.00        18.84071
433.45        18.69425
433.89        18.38268
434.34        18.05433
434.78        18.01095
435.23        18.18352
435.67        18.20136
436.12        18.04416
436.57        17.91164
437.01        17.85339
437.46        17.86352
437.90        17.94746
438.35        18.09542
438.79         18.2452
439.24        18.27023
439.68        18.17688
440.13        18.07731
440.57        17.98659
441.02        17.92848
441.46        17.92049
441.91        17.83936
442.35        17.73138
442.80        17.98302
443.24        18.53319
443.69        18.41361
444.13        17.76492
444.58        17.49907
445.02        17.63351
445.47          17.692
445.91        17.63197
446.36        17.62118
446.80        17.64552
447.24        17.67042
447.69        17.69703
448.13        17.72375
448.58         17.7507
449.02        17.77551
449.47        17.80341
449.91        17.83187
450.36        17.86211
450.80          17.892
451.25        17.91251
451.69        17.90562
452.13        17.86735
452.58        17.81045
453.02        17.74592
453.47        17.68987
453.91        17.64275
454.36        17.65197
454.80        17.62097
455.24        17.59754
455.69        17.55826
456.13        17.50998
456.58        17.47193
457.02        17.45603
457.46        17.46968
457.91        17.50354
458.35        17.54715
458.79        17.59505
459.24         17.6515
459.68         17.7233
460.13        17.80386
460.57        17.80265
461.01        17.85307
461.46        17.78525
461.90        17.68535
462.34        17.79094
462.79        18.02918
463.23         18.0062
463.68        17.75562
464.12        17.65793
464.56        17.72668
465.01        17.77543
465.45        17.76631
465.89        17.72189
466.34        17.66984
466.78        17.68681
467.22        17.80649
467.67        17.80029
468.11        17.68022
468.55        17.53659
468.99         17.4214
469.44        17.36881
469.88        17.39161
470.32        17.48421
470.77         17.6027
471.21        17.68921
471.65        17.71818
472.10        17.71201
472.54        17.69003
472.98        17.70129
473.42        17.75536
473.87        17.83279
474.31        17.90713
474.75         17.9441
475.20        17.94239
475.64        17.91284
476.08        17.87591
476.52        17.85759
476.97        17.86644
477.41        17.88899
477.85        17.93073
478.29        17.99835
478.74          18.093
479.18         18.2005
479.62        18.28907
480.06        18.35327
480.50        18.39847
480.95        18.26584
481.39        18.27469
481.83        18.30448
482.27        18.46526
482.72        18.58693
483.16        18.87143
483.60        19.01558
484.04        19.06709
484.48        19.04801
484.93        19.04064
485.37        19.08748
485.81        19.15814
486.25        19.35783
486.69        19.25168
487.14        19.19037
487.58        19.53864
488.02         19.5261
488.46        19.90555
488.90        20.32468
489.34        19.53325
489.79         19.4855
490.23        19.74948
490.67        20.02564
491.11        20.20352
491.55        20.16444
491.99        19.99673
492.43        20.05393
492.88        20.35552
493.32         20.6467
493.76        20.86498
494.20        21.06722
494.64        21.24166
495.08        21.36097
495.52        21.43001
495.96        21.51285
496.41        21.62827
496.85        21.65243
497.29        21.60864
497.73        21.87963
498.17        22.13439
498.61        22.13931
499.05        21.87451
499.49        21.79488
499.93        21.94713
500.37        22.16721
500.82        22.39412
501.26        22.55612
501.70        22.62874
502.14        22.66763
502.58        22.70786
503.02        22.77702
503.46        22.88836
503.90        23.03238
504.34        23.18987
504.78        23.32744
505.22        23.43245
505.66        23.51162
506.10        23.56137
506.54        23.60307
506.98        23.64657
507.42        23.63906
507.86        23.57543
508.30        23.71598
508.74        23.63328
509.18        23.67634
509.62        23.72066
510.06        23.78231
510.50        23.85779
510.94        23.94939
511.38        24.04699
511.82        24.12126
512.26        24.16539
512.70        24.18332
513.14           24.19
513.58        24.21107
514.02        24.25197
514.46         24.3046
514.90        24.35323
515.34        24.37205
515.78        24.35641
516.22        24.31802
516.66        24.27296
517.10        24.24525
517.54        24.24077
517.98        24.24931
518.42        24.26437
518.86        24.27556
519.30        24.27759
519.74        24.27543
520.18        24.26196
520.62        24.22415
521.06        24.16493
521.50        24.09257
521.93        24.02886
522.37        24.00292
522.81        24.02379
523.25        24.07634
523.69        24.14668
524.13        24.21429
524.57        24.26646
525.01        24.30397
525.45        24.31166
525.89        24.26643
526.32        24.16673
526.76         24.0323
527.20        23.88655
527.64        23.76788
528.08        23.68791
528.52        23.63592
528.96        23.61194
529.40        23.61333
529.83        23.63085
530.27        23.66662
530.71        23.69141
531.15        23.66225
531.59        23.57209
532.03        23.43214
532.46          23.278
532.90        23.17587
533.34        23.14114
533.78        23.16093
534.22        23.20097
534.66        23.20658
535.09         23.1639
535.53        23.09492
535.97        23.03339
536.41        23.03944
536.85        23.12094
537.28        23.25117
537.72        23.38062
538.16         23.4353
538.60        23.39962
539.04        23.30515
539.47        23.18495
539.91        23.11032
540.35         23.0965
540.79        23.13169
541.22        23.20852
541.66        23.31886
542.10        23.45141
542.54        23.60743
542.97        23.77787
543.41        23.94982
543.85         24.1161
544.29        24.28067
544.72         24.4228
545.16        24.53104
545.60        24.60487
546.04        24.63946
546.47        24.67759
546.91        24.82539
547.35        25.07658
547.79        25.32692
548.22        25.52583
548.66        25.73302
549.10        25.94309
549.53        26.03194
549.97        25.98863
550.41        26.33283
550.84        26.28639
551.28        26.43036
551.72        26.51132
552.15        26.73276
552.59        26.75779
553.03        26.86619
553.46        26.96664
553.90        27.06361
554.34        27.15257
554.77        27.25807
555.21        27.38231
555.65        27.45632
556.08        27.50261
556.52        27.65309
556.96        27.87239
557.39        28.03885
557.83        28.13398
558.27        28.15246
558.70         28.1508
559.14        28.25509
559.57        28.45302
560.01        28.68224
560.45        28.87855
560.88        28.86268
561.32        28.80664
561.75        28.74986
562.19        28.76357
562.63        28.75586
563.06        28.73723
563.50         28.7877
563.93         28.8887
564.37        28.99894
564.80        29.10039
565.24        29.20889
565.68        29.32052
566.11        29.44707
566.55        29.58779
566.98         29.6957
567.42        29.80038
567.85        29.88836
568.29        29.95907
568.72        30.12497
569.16        30.45526
569.60        30.31444
570.03        30.62121
570.47        31.03076
570.90        31.21466
571.34        31.25426
571.77        31.48233
572.21        31.55497
572.64        31.64432
573.08        31.67356
573.51        31.65887
573.95        32.08304
574.38        32.22775
574.82        32.25878
575.25        32.19704
575.69        32.20916
576.12        32.05997
576.56        32.30403
576.99        32.33894
577.42        32.38043
577.86        32.48803
578.29        32.47363
578.73        32.46481
579.16        32.21046
579.60        32.18142
580.03        31.89721
580.47        32.06668
580.90        32.02468
581.33        31.86124
581.77        32.21053
582.20        31.76478
582.64        31.69791
583.07        31.48624
583.51         31.2773
583.94        31.13978
584.37        31.01278
584.81        30.96148
585.24        31.02269
585.68        30.96324
586.11        31.15048
586.54        30.68384
586.98        30.75447
587.41        31.00014
587.85        30.88061
588.28        30.61357
588.71        30.85289
589.15        30.56903
589.58        30.53876
590.01        30.46635
590.45        30.43087
590.88        30.46836
591.31        30.56301
591.75          30.641
592.18        30.69115
592.61        30.78281
593.05        30.37381
593.48          30.731
593.91        30.90568
594.35        30.68458
594.78        30.64858
595.21         30.6309
595.65        30.91401
596.08        30.84349
596.51        31.16823
596.94        31.57415
597.38        31.87485
597.81        31.98033
598.24        31.99951
598.68        32.26347
599.11        32.30055
599.54        32.97201
599.97        33.58126
600.41        33.15424
600.84        33.47199
601.27        33.86704
601.70         34.3961
602.14        34.84572
602.57        34.95948
603.00        34.85052
603.43        35.18808
603.87        35.82241
604.30        36.44206
604.73        36.57113
605.16        36.86796
605.60        37.21883
606.03        37.62752
606.46        38.01484
606.89         38.3499
607.32        38.64587
607.76        38.93989
608.19        39.24402
608.62        39.50922
609.05        39.77822
609.48        40.15906
609.92        40.45521
610.35        40.89433
610.78        41.43286
611.21        41.38742
611.64        41.74003
612.07        41.83655
612.50        41.99313
612.94        42.22602
613.37        42.69911
613.80        42.76349
614.23        43.38406
614.66        43.66103
615.09        43.86483
615.52        44.01849
615.96        44.12071
616.39        44.30104
616.82        44.05217
617.25        44.45872
617.68        44.52276
618.11        44.92012
618.54        45.30595
618.97        45.45955
619.40        45.42714
619.84        45.55118
620.27        45.86317
620.70        46.09222
621.13        46.20916
621.56        46.20768
621.99        46.34212
622.42        46.27981
622.85          46.411
623.28        46.36997
623.71        46.88289
624.14        46.27973
624.57        46.82574
625.00        46.74622
625.43        46.67647
625.86        46.33185
626.29        46.21962
626.72         46.0494
627.15        45.95208
627.58        45.96563
628.01         46.0206
628.44         45.8816
628.87        45.56021
629.30        45.38155
629.73        45.34975
630.16        45.20036
630.59        44.91287
631.02        44.77303
631.45        44.57536
631.88        44.30152
632.31         43.8628
632.74        43.70909
633.17        43.14304
633.60        42.77132
634.03         42.3951
634.46        42.01802
634.89        41.63848
635.32        41.27366
635.75        40.92942
636.18        40.59363
636.61         40.2583
637.04        39.91372
637.47        39.56618
637.89        39.19592
638.32        38.79293
638.75        38.46062
639.18          38.226
639.61        37.69326
640.04        37.55832
640.47        37.29041
640.90        37.09295
641.33        36.95219
641.76        36.84209
642.18        36.70896
642.61        36.52618
643.04        36.31699
643.47        36.13702
643.90        36.06401
644.33        36.10765
644.76        36.28746
645.18        36.51856
645.61        36.56054
646.04         36.3588
646.47        36.37848
646.90        36.59348
647.33        36.71932
647.75        36.75154
648.18        36.85929
648.61        37.07236
649.04        37.37891
649.47        37.75764
649.89        38.17444
650.32        38.57681
650.75        38.89533
651.18        39.16038
651.61        39.52092
652.03        39.98577
652.46        40.46011
652.89        40.89337
653.32        41.23665
653.74        41.56049
654.17        41.89108
654.60         41.9552
655.03        43.06107
655.46        42.53033
655.88        43.77673
656.31        47.13173
656.74        47.80333
657.16         46.7048
657.59        45.20365
658.02        45.44843
658.45        45.91199
658.87        46.40294
659.30        46.19833
659.73        46.83171
660.15        47.10523
660.58        47.23648
661.01        47.44366
661.44        47.66547
661.86        47.79178
662.29        47.85127
662.72        48.06176
663.14        48.41097
663.57        48.58352
664.00        48.61208
664.42        48.76207
664.85        49.06573
665.27        49.36241
665.70        49.61683
666.13         49.8672
666.55        50.10806
666.98        50.32245
667.41        50.50842
667.83        50.65645
668.26        50.75948
668.69        50.82657
669.11        50.88432
669.54        50.95566
669.96        51.04567
670.39        51.22175
670.82        51.44615
671.24        51.47604
671.67        51.37889
672.09        51.58622
672.52        52.03889
672.94        52.33237
673.37        52.03991
673.80        52.33965
674.22        52.12873
674.65        52.27322
675.07        52.49263
675.50        52.79733
675.92        53.11769
676.35        53.34245
676.77        53.46029
677.20        53.45939
677.62        53.41592
678.05        53.51704
678.47        53.75597
678.90        53.95332
679.32        54.07332
679.75        54.19748
680.17        54.31148
680.60        54.36509
681.02        54.38196
681.45        54.44164
681.87        54.56016
682.30        54.69264
682.72        54.84634
683.15        55.00049
683.57         55.1656
684.00         55.3549
684.42        55.52791
684.85        55.65527
685.27        55.73594
685.70        55.65813
686.12        55.52699
686.54        55.85934
686.97        56.53225
687.39         56.8127
687.82        56.62019
688.24        56.71955
688.66         56.7304
689.09        56.60147
689.51        56.33274
689.94        56.22004
690.36        56.30802
690.78        56.50682
691.21        56.75679
691.63        56.97026
692.06        57.10537
692.48        57.16908
692.90        57.18901
693.33        57.23973
693.75        57.33358
694.17        57.41303
694.60        57.50737
695.02        57.64006
695.44        57.79638
695.87        58.14035
696.29        58.56197
696.71        58.43652
697.14        57.92896
697.56         58.0322
697.98        58.69361
698.41        58.95817
698.83         58.7704
699.25        59.02019
699.68        59.05683
700.10        59.15795
700.52        59.11563
700.94        59.02449
701.37         58.9213
701.79        58.89555
702.21        58.96536
702.64        59.09833
703.06        59.26363
703.48        59.42663
703.90        59.57197
704.33        59.71868
704.75        59.83366
705.17         59.9259
705.59        59.98286
706.01        60.01201
706.44        60.03801
706.86        60.11863
707.28        60.25957
707.70        60.41183
708.12        60.58117
708.55        60.82793
708.97         61.1001
709.39        61.28966
709.81        61.25119
710.23        61.32413
710.66        61.47005
711.08        61.57532
711.50        61.63457
711.92        61.73425
712.34        61.88004
712.76        62.04924
713.19         62.1912
713.61        62.25838
714.03        62.22454
714.45        62.12177
714.87        62.01259
715.29        61.98778
715.71        62.06989
716.13        62.23367
716.56        62.42184
716.98          62.611
717.40        62.74919
717.82        62.84744
718.24        62.91697
718.66        62.97841
719.08        63.03817
719.50        63.08551
719.92        63.11079
720.34        63.10309
720.76        63.06369
721.19        62.99549
721.61        62.93244
722.03        62.90116
722.45        62.91032
722.87        62.95417
723.29        63.01316
723.71        63.05269
724.13        63.06572
724.55         63.0652
724.97        63.07104
725.39        63.11404
725.81        63.20274
726.23        63.32526
726.65        63.46659
727.07        63.60793
727.49        63.73687
727.91        63.84571
728.33        63.93925
728.75        64.02825
729.17        64.11695
729.59        64.19919
730.01        64.23473
730.43        64.20087
730.85        64.11536
731.27        63.83851
731.69        63.76981
732.10         63.8229
732.52        64.10853
732.94        64.55825
733.36        65.06925
733.78        65.46336
734.20        65.66713
734.62         65.7187
735.04        65.64837
735.46        65.64954
735.88        65.34784
736.30        65.36266
736.72        65.58752
737.13         65.3603
737.55        65.66381
737.97         65.3506
738.39        64.88991
738.81        64.66518
739.23         64.7813
739.65        65.20304
740.06        65.70246
740.48        65.92364
740.90        65.79197
741.32        65.48814
741.74        65.17329
742.16        65.05664
742.57        65.21487
742.99         65.5573
743.41        65.96397
743.83        66.24724
744.25        66.34423
744.67        66.28406
745.08        66.14595
745.50        66.07246
745.92        66.11234
746.34        66.19674
746.75        66.30017
747.17         66.4007
747.59        66.48392
748.01        66.56803
748.42         66.6454
748.84        66.67196
749.26        66.65486
749.68        66.59812
750.09        66.52892
750.51        66.52753
750.93        66.59351
751.35        66.70947
751.76        66.84015
752.18        66.90754
752.60        66.87558
753.01        66.83558
753.43        66.82584
753.85        66.72973
754.27        66.53788
754.68        67.09746
755.10        66.93974
755.52        67.12891
755.93        67.19635
756.35        67.16143
756.77        67.14966
757.18        67.28114
757.60        67.57072
758.02        68.32563
758.43        69.12993
758.85         68.7499
759.26        67.03049
759.68        66.80345
760.10        67.79597
760.51        68.63044
760.93        67.98065
761.34        67.96127
761.76         68.2041
762.18        68.26083
762.59        68.10297
763.01        67.67226
763.42         67.1544
763.84        66.94034
764.26        67.09864
764.67        67.36554
765.09        67.68095
765.50        68.04846
765.92        68.40145
766.33         68.5975
766.75        68.54101
767.16        68.50446
767.58        68.48032
768.00        68.10981
768.41         67.5942
768.83        67.88251
769.24        68.71918
769.66        68.76602
770.07         68.0882
770.49        67.75868
770.90        67.91174
771.32        68.27855
771.73        68.71655
772.15        68.87125
772.56        68.70589
772.97        68.58574
773.39        68.18106
773.80        68.38205
774.22        68.92728
774.63        69.16258
775.05        68.98845
775.46        68.94635
775.88        69.01531
776.29         68.8863
776.70        68.60321
777.12        68.44893
777.53        68.46038
777.95        68.52877
778.36        68.66293
778.77        68.83146
779.19        69.01349
779.60        69.36653
780.02         69.7411
780.43        69.76218
780.84         69.5264
781.26        69.37688
781.67         69.4435
782.09        70.03888
782.50        70.87413
782.91        70.77975
783.33        69.85555
783.74         69.4121
784.15        69.53244
784.57        69.46664
784.98        69.21968
785.39        69.13126
785.81        69.24722
786.22        69.57387
786.63        70.05704
787.04         70.5033
787.46        70.86104
787.87        71.18505
788.28        71.46968
788.70        71.63985
789.11        71.68124
789.52        71.71457
789.93        71.70762
790.35        71.42178
790.76        70.96664
791.17        70.78059
791.58        70.91105
792.00        70.97748
792.41        70.96572
792.82        71.27259
793.23        71.77814
793.65        71.67011
794.06        71.14719
794.47        71.39692
794.88        72.22462
795.29        72.39661
795.71        71.83186
796.12          71.312
796.53        71.01508
796.94        70.74306
797.35        70.66766
797.76        71.28397
798.18        72.31084
798.59         72.8662
799.00        72.79339
799.41        72.49228
799.82        72.13296
800.23        71.87197
800.64        71.80167
801.06        71.83904
801.47        71.97102
801.88        72.10591
802.29        72.20156
802.70        72.28017
803.11        72.33703
803.52         72.3549
803.93        72.34981
804.34        72.32981
804.75        72.28377
805.17        72.29291
805.58        72.41457
805.99         72.3316
806.40        72.15038
806.81        72.72507
807.22        73.74552
807.63        73.60036
808.04        72.46597
808.45        72.08448
808.86        72.60212
809.27        73.04633
809.68        73.21972
810.09        73.26549
810.50        73.12969
810.91        72.77684
811.32        72.39455
811.73        72.28056
812.14        72.50064
812.55        72.98679
812.96        73.53986
813.37        73.78289
813.78        73.61601
814.19        73.17611
814.60         72.6701
815.01        72.38646
815.42        72.39668
815.83        72.61306
816.24        72.93825
816.65        73.18208
817.05        73.26723
817.46        73.22345
817.87        73.13064
818.28        73.04761
818.69        73.00351
819.10         72.9745
819.51        72.97338
819.92        73.03395
820.33        73.15489
820.74        73.31799
821.14        73.50436
821.55        73.69011
821.96        73.85291
822.37        74.00027
822.78        74.08148
823.19        74.01734
823.60        73.79552
824.00        73.43581
824.41        73.04033
824.82        72.79718
825.23         72.7471
825.64        72.86662
826.04        73.04086
826.45        72.98237
826.86         72.6646
827.27        72.17814
827.68        71.72781
828.08         71.6584
828.49        71.99706
828.90        72.66505
829.31        73.47449
829.72        74.09878
830.12        74.45074
830.53         74.5332
830.94        74.48837
831.35        74.52187
831.75        74.71606
832.16        74.92683
832.57         75.0969
832.97        75.09594
833.38        74.90514
833.79        74.64404
834.20        74.35628
834.60        74.07021
835.01        73.84376
835.42         73.6276
835.82        73.57074
836.23        73.85223
836.64        74.49893
837.04        75.48225
837.45        76.39384
837.86        76.70631
838.26        76.29269
838.67        75.32259
839.08        74.19337
839.48        73.50674
839.89        73.45969
840.29        73.87038
840.70        74.49868
841.11        74.96422
841.51        75.16322
841.92        75.17637
842.33        75.12673
842.73        75.19682
843.14        75.38818
843.54        75.65451
843.95          75.908
844.35        76.09238
844.76        76.15643
845.17        76.10835
845.57        76.01377
845.98        75.93601
846.38        75.91408
846.79        75.93718
847.19        75.88925
847.60        75.52922
848.00         74.8674
848.41        74.01316
848.81        73.27332
849.22        73.09449
849.62        73.59448
850.03        74.60117
850.43        75.85349
850.84        76.66382
851.24        76.87231
851.65        76.54661
852.05        75.98073
852.46        75.62312
852.86        75.58863
853.27        75.78916
853.67        75.95465
854.07        75.92803
854.48        75.61883
854.88        75.12028
855.29        74.52161
855.69        74.22066
856.10        74.24217
856.50         74.5956
856.90        74.96526
857.31        74.91224
857.71        74.40625
858.12        73.54735
858.52        72.71117
858.92        72.46849
859.33        72.93269
859.73           73.95
860.13        75.13323
860.54         75.8639
860.94        75.99397
861.34        75.60362
861.75        74.86904
862.15        74.17332
862.55        73.64147
862.96        73.22363
863.36        72.79828
863.76        72.19157
864.17        71.42322
864.57        70.62336
864.97        70.01463
865.38        69.86768
865.78        70.25424
866.18        71.04423
866.58        72.05592
866.99        72.88905
867.39        73.40604
867.79        73.66549
868.19        73.64299
868.60        73.32294
869.00        72.76859
869.40        71.97192
869.80        71.27828
870.21         71.2739
870.61        72.10118
871.01        73.54813
871.41        75.05096
871.81        75.70409
872.22        75.28393
872.62        74.03912
873.02        72.47158
873.42        71.43771
873.82        71.20776
874.22        71.57639
874.63        72.15134
875.03         72.3158
875.43        71.93766
875.83        71.23306
876.23        70.62523
876.63        70.79164
877.03        71.85032
877.44        73.47163
877.84        75.18586
878.24        76.14326
878.64        76.12875
879.04        75.46169
879.44        74.47926
879.84        73.67599
880.24        73.21674
880.64        72.92442
881.04        72.87391
881.44        73.19015
881.84        73.84692
882.24        74.86224
882.65        75.82262
883.05        76.11932
883.45        75.56609
883.85        74.37792
884.25        73.10614
884.65         72.6012
885.05        73.02707
885.45        74.08664
885.85        75.37684
886.25        76.19874
886.65        76.30224
887.05        75.92892
887.45        75.17345
887.85        74.20985
888.25        73.22232
888.65        72.21085
889.04        71.39551
889.44        71.15609
889.84        71.46922
890.24        72.26688
890.64        73.29198
891.04        73.96087
891.44         74.0565
891.84        73.75661
892.24        73.28265
892.64        72.95679
893.04        72.87058
893.44        72.90575
893.83        73.11143
894.23        73.50118
894.63        74.05436
895.03        74.75024
895.43        75.39928
895.83        75.70228
896.23        75.60368
896.63        75.17147
897.02        74.58081
897.42        74.20039
897.82        74.11701
898.22        74.26444
898.62        74.49385
899.01        74.55847
899.41        74.37623
899.81        74.02988
900.21        73.68206
900.61        73.57378
901.00        73.74589
901.40        74.12085
901.80        74.46326
902.20        74.40488
902.59        73.87973
902.99        73.01714
903.39         72.1354
903.79        71.69838
904.18        71.80505
904.58        72.34976
904.98        73.02794
905.38        73.37208
905.77        73.24381
906.17        72.76469
906.57        72.23104
906.96        72.14809
907.36        72.58517
907.76        73.41009
908.15        74.22648
908.55        74.25378
908.95         73.4141
909.34        71.98376
909.74        70.60541
910.14        70.11578
910.53        70.73869
910.93        72.15311
911.33        73.96661
911.72        75.56554
912.12        76.61681
912.52        77.26764
912.91        77.60682
913.31         77.7798
913.70        77.85292
914.10        77.72292
914.49        77.31657
914.89        76.53832
915.29         75.4578
915.68        74.21535
916.08        73.12308
916.47        72.49632
916.87        72.45975
917.26        72.87366
917.66        73.58824
918.05        74.36228
918.45        75.02246
918.84         75.6623
919.24        76.10844
919.64        76.24095
920.03        76.05387
920.42        75.53063
920.82        74.93221
921.21         74.5831
921.61        74.57364
922.00        74.85542
922.40        75.22215
922.79         75.3912
923.19         75.2542
923.58         74.9357
923.98        74.59471
924.37        74.48328
924.77        74.65201
925.16        75.01387
925.55        75.42714
925.95        75.67288
926.34        75.70215
926.74        75.55994
927.13        75.33636
927.52        75.14268
927.92        75.02067
928.31        74.91022
928.70        74.78221
929.10        74.57624
929.49        74.28598
929.89        73.93297
930.28        73.56684
930.67        73.18671
931.07        72.82566
931.46        72.51545
931.85        72.30977
932.24        72.28725
932.64        72.47115
933.03        72.86192
933.42        73.38566
933.82        73.88898
934.21        74.31992
934.60        74.60866
934.99        74.87515
935.39        75.31884
935.78        76.00886
936.17        76.86083
936.56        77.43063
936.96        77.03397
937.35        75.63572
937.74         73.5766
938.13        71.62295
938.53        70.74155
938.92        71.05269
939.31        72.32909
939.70        73.99988
940.09         74.9466
940.49        74.77564
940.88        73.82305
941.27        72.63213
941.66        72.01542
942.05        72.17823
942.44        72.91362
942.84        73.78351
943.23        74.10192
943.62         73.6336
944.01         72.6228
944.40        71.68569
944.79        71.70619
945.18        72.83532
945.57        74.79964
945.97        76.79865
946.36        77.69755
946.75        77.06287
947.14         75.2621
947.53        73.16116
947.92        72.06529
948.31        72.30463
948.70        73.56269
949.09        75.09818
949.48        75.57514
949.87         74.6451
950.26        72.78612
950.65        70.90094
951.04         70.2224
951.43        70.99586
951.82        72.86333
952.21        75.03481
952.60        76.06263
952.99        75.50978
953.38        73.84914
953.77        72.00687
954.16        71.21609
954.55        71.73359
954.94        73.27995
955.33        75.12151
955.72        75.70928
956.11        74.55417
956.50        72.25021
956.89        69.92303
957.28        69.00256
957.66        69.79755
958.05        71.81717
958.44        74.28876
958.83        75.63213
959.22        75.29305
959.61        73.83355
960.00        72.05637
960.39        70.97369
960.78        70.78828
961.16        71.19086
961.55        71.81218
961.94        72.05416
962.33        71.70746
962.72        71.10275
963.11        70.44305
963.49        69.94553
963.88        69.68503
964.27        69.53527
964.66        69.60784
965.04        70.17474
965.43        71.14488
965.82        72.45638
966.21        73.71497
966.60        74.19576
966.98        73.76477
967.37        72.73961
967.76        71.51912
968.15        70.63538
968.53        70.21452
968.92        70.02863
969.31        70.21933
969.69        71.04924
970.08        72.43362
970.47        74.43805
970.86        76.27767
971.24        76.60615
971.63        75.16196
972.02        72.39072
972.40        69.58187
972.79         68.7568
973.17        70.25361
973.56        73.36288
973.95         76.9279
974.33          78.755
974.72        78.08788
975.11         75.6879
975.49        72.64456
975.88        70.94014
976.26        71.08499
976.65        72.41393
977.04        74.32774
977.42         75.7312
977.81        76.05141
978.19        75.80672
978.58        75.18382
978.96        74.33691
979.35        73.47427
979.74        72.48283
980.12        71.79711
980.51        72.15914
980.89        73.75032
981.28        76.24127
981.66        79.09055
982.05        81.03959
982.43        81.79609
982.82        81.53931
983.20        80.55193
983.59        79.32447
983.97        78.16793
984.35        76.94679
984.74        76.00699
985.12        75.75342
985.51        76.16246
985.89         77.3125
986.28        78.50708
986.66        78.89365
987.04        78.08358
987.43        76.33284
987.81        74.28348
988.20        73.37521
988.58        73.90512
988.96        75.53176
989.35        77.17708
989.73        77.30336
990.12        75.52851
990.50        72.51369
990.88        69.25848
991.27        67.38863
991.65        67.30733
992.03        68.50609
992.42         70.5119
992.80        72.91485
993.18        75.34788
993.56        77.97977
993.95        80.23943
994.33        81.21376
994.71        80.57921
995.10        78.62206
995.48           76.23
995.86        74.83878
996.24        74.82743
996.63        75.82322
997.01        77.46672
997.39        78.78719
997.77        79.37512
998.15        79.48757
998.54        79.31583
998.92        79.17451
999.30        79.16188
999.68        79.16991
1000.06        79.08286
1000.45        78.70382
1000.83        78.06013
1001.21        77.22517
1001.59        76.56355
1001.97        76.60156
1002.35        77.40287
1002.73        78.80129
1003.12        80.19348
1003.50        80.54201
1003.88        79.70233
1004.26        78.03756
1004.64        76.22241
1005.02        75.41936
1005.40        75.93478
1005.78        77.31303
1006.16         79.0816
1006.54        80.65852
1006.92        81.82615
1007.30        82.68626
1007.69        83.14371
1008.07        83.12394
1008.45        82.56243
1008.83        81.59634
1009.21        80.17986
1009.59        78.27801
1009.97        76.08399
1010.35        73.70075
1010.73         72.1073
1011.11        72.79561
1011.49        75.81749
1011.86        80.56647
1012.24        85.26299
1012.62        87.42113
1013.00         86.3788
1013.38        82.62775
1013.76        77.29867
1014.14        73.03518
1014.52        71.08751
1014.90        70.97544
1015.28        71.84324
1015.66        72.10377
1016.04        71.32504
1016.41        70.22283
1016.79        69.40508
1017.17        69.85395
1017.55        71.56799
1017.93        73.66344
1018.31        75.76667
1018.69        77.93736
1019.06        80.49987
1019.44        83.75509
1019.82        87.56327
1020.20         90.0696
1020.58        89.77968
1020.95        86.95498
1021.33        83.50402
1021.71        81.24944
1022.09        80.26978
1022.46        80.11653
1022.84        80.19909
1023.22        78.44026
1023.60        74.79739
1023.97        70.85594
1024.35        68.07518
1024.73        67.51941
