SpectraSmart Spectrum 2.9.0.0
--------- Device Information -----------
Spectrum Name :  反射率_0
Saving Time :  2024/04/30 00:45:45
Spectro-Module Model Name : SE2030-DUVN
Spectro-Module Serial Number : OS361AC55029948
Wavelength Start : 200
Wavelength End : 1025
Wavelength Unit : Wavelength(nm)
Spectrum Unit : Reflectance(%)
-----------Spectrum Setting ------------
Integration Time : 20ms
Average : 10
Boxcar : 0
Background removal :  enabled
linearity correction :  enabled
SC :  disabled
Intensity correction :  disabled
DWT denoise :  enabled
savitzky-golay :  disabled
FFT :  disabled
Running average :  disabled
Kalman :  disabled
High pass :  disabled
---------------BEGIN--------------------
Wavelength(nm)             Reflectance(%)
200.29               0
200.75        56.81363
201.21        43.97986
201.67        27.43441
202.13        13.17361
202.58        4.208302
203.04      -0.7577084
203.50      -0.2904631
203.96        8.127378
204.42        23.85978
204.88        45.49715
205.34        64.71935
205.80        69.49143
206.26        61.59354
206.72         48.9576
207.18        37.20333
207.64        29.55768
208.10        25.34208
208.55        22.46637
209.01        21.75567
209.47         25.4281
209.93        32.33154
210.39        40.70826
210.85        47.06524
211.31        48.55857
211.77        45.10538
212.23        36.04961
212.69        22.89947
213.14        16.56884
213.60        22.56672
214.06        35.01109
214.52        46.12634
214.98         50.9464
215.44        50.43614
215.90        46.69308
216.36        42.10084
216.81        41.12009
217.27        46.04375
217.73        56.39686
218.19        71.04758
218.65        81.72601
219.11        82.24468
219.57        76.01041
220.02        67.85194
220.48        60.93267
220.94         54.3703
221.40        45.93616
221.86         36.4375
222.32        31.81615
222.77        34.22937
223.23        40.51316
223.69        45.39758
224.15        45.67133
224.61        41.84916
225.06        34.67435
225.52        26.99325
225.98        25.22021
226.44         30.1837
226.90        37.83886
227.36        44.19857
227.81        46.70832
228.27        45.82781
228.73        42.53793
229.19        38.54385
229.65        37.30501
230.10        39.40714
230.56        43.01335
231.02        46.01484
231.48        46.63239
231.93        44.90029
232.39        41.60817
232.85        37.91972
233.31        36.02843
233.77        36.64975
234.22        39.25192
234.68        42.45879
235.14        43.73325
235.60        42.40751
236.05        39.40813
236.51        36.34204
236.97        35.23054
237.43        36.59548
237.88        40.23045
238.34        45.46601
238.80         49.9826
239.26        51.81616
239.71        51.44247
240.17         49.6778
240.63        48.09261
241.08        47.16123
241.54        46.12304
242.00        45.40692
242.46        47.06106
242.91        52.56845
243.37        60.88638
243.83        68.14716
244.28        71.26338
244.74        70.09586
245.20        64.37001
245.66        55.92485
246.11        50.05669
246.57        49.89254
247.03        55.14813
247.48        62.11533
247.94        62.02226
248.40        55.14018
248.85        46.64226
249.31        41.22327
249.77        40.95851
250.22        45.71709
250.68        56.13774
251.14        72.05487
251.59        81.07716
252.05        74.47742
252.51        62.28579
252.96        52.64064
253.42        48.03872
253.88        46.72294
254.33         46.8788
254.79        48.43153
255.25        50.38474
255.70        51.77923
256.16        53.09871
256.62        53.97302
257.07        54.14817
257.53        54.12146
257.99        53.82154
258.44         53.3498
258.90        53.48801
259.35        53.80792
259.81         54.3039
260.27        54.61207
260.72        54.47986
261.18         54.1229
261.63        53.44318
262.09        52.66942
262.55        51.77597
263.00        50.78403
263.46        49.91088
263.91        49.01758
264.37        48.21629
264.83        47.42818
265.28        46.58442
265.74        45.89346
266.19         45.4445
266.65        45.29109
267.11         45.3217
267.56        45.30704
268.02        44.92422
268.47        44.09777
268.93        42.94693
269.38        41.65667
269.84        40.67162
270.30        40.10298
270.75        39.81511
271.21        39.63696
271.66        39.28311
272.12        38.67634
272.57        37.87897
273.03        36.98704
273.48         36.0632
273.94         35.2213
274.39        34.42073
274.85         33.7095
275.31        33.07317
275.76        32.49467
276.22        32.00938
276.67        31.61379
277.13        31.39306
277.58         31.2789
278.04        31.25285
278.49        31.16796
278.95        30.91979
279.40        30.44629
279.86        29.86621
280.31        29.20724
280.77        28.63425
281.22        28.15991
281.68        27.79092
282.13        27.51982
282.59        27.38413
283.04        27.34738
283.50         27.3897
283.95        27.43691
284.41        27.38698
284.86        27.20465
285.32        26.95908
285.77        26.64571
286.22        26.33633
286.68        26.06784
287.13        25.78788
287.59        25.56787
288.04        25.45906
288.50        25.47443
288.95        25.56353
289.41        25.64825
289.86        25.56464
290.32        25.31851
290.77        24.97198
291.22        24.61963
291.68        24.40903
292.13        24.37677
292.59        24.49197
293.04        24.77291
293.50        25.27511
293.95        25.97325
294.40        26.85125
294.86        27.74662
295.31        28.41792
295.77        28.81112
296.22        28.97937
296.68        29.10982
297.13        29.48112
297.58        30.16625
298.04        31.05411
298.49        31.98065
298.95          32.686
299.40         33.1058
299.85        33.33303
300.31         33.5008
300.76        33.74917
301.21        34.14682
301.67        34.64698
302.12        35.15855
302.58        35.69094
303.03        36.21142
303.48        36.60724
303.94        36.88343
304.39        37.69321
304.84        37.93672
305.30         38.4803
305.75        38.92955
306.20        39.25891
306.66        39.46481
307.11        39.55957
307.57        39.62125
308.02        39.68023
308.47        39.76844
308.93        39.87965
309.38        39.98087
309.83        40.07304
310.29         40.1518
310.74         40.2179
311.19        40.25354
311.65        40.22027
312.10        40.11213
312.55         39.9468
313.00        39.78195
313.46        39.70809
313.91        39.72858
314.36        39.81617
314.82        39.90911
315.27        39.92826
315.72        39.83736
316.18         39.6685
316.63         39.4339
317.08        39.16663
317.53        38.89185
317.99        38.61401
318.44        38.35023
318.89        38.13354
319.35        37.96898
319.80        37.84735
320.25        37.76986
320.70        37.73248
321.16        37.71323
321.61        37.73013
322.06        37.72116
322.51        37.59905
322.97        37.35017
323.42        37.00114
323.87        36.64305
324.32        36.42997
324.78        36.38167
325.23        36.47184
325.68        36.58391
326.13        36.52245
326.59        36.23188
327.04        35.78867
327.49        35.30043
327.94        34.95791
328.39        34.80838
328.85        34.77547
329.30        34.79979
329.75        34.71868
330.20        34.48766
330.66        34.16796
331.11        33.81229
331.56        33.47071
332.01        33.17144
332.46        32.88577
332.92        32.64594
333.37        32.55568
333.82        32.61086
334.27        32.78802
334.72        32.97354
335.17        32.97089
335.63        32.72965
336.08        32.32096
336.53        31.84519
336.98        31.49993
337.43        31.35127
337.88        31.33759
338.34        31.41313
338.79        31.52365
339.24        31.62619
339.69        31.74619
340.14        31.83034
340.59        31.78632
341.05        31.60772
341.50        31.31547
341.95        31.00538
342.40        30.84459
342.85        30.86315
343.30        31.00048
343.75        31.16553
344.20        31.20856
344.66        31.09781
345.11        30.88585
345.56        30.60515
346.01        30.30321
346.46        30.02166
346.91        29.75384
347.36        29.56398
347.81        29.55095
348.26        29.71566
348.72        30.01768
349.17        30.35755
349.62        30.55556
350.07        30.55737
350.52        30.41566
350.97        30.19034
351.42        29.97786
351.87        29.81993
352.32        29.69485
352.77        29.62003
353.22        29.62579
353.67         29.7052
354.13        29.84037
354.58        29.99235
355.03        30.09289
355.48        30.11397
355.93        30.06991
356.38         29.9458
356.83        29.72475
357.28        29.42323
357.73        29.05863
358.18        28.70235
358.63        28.46618
359.08        28.37128
359.53        28.38315
359.98        28.43867
360.43        28.43175
360.88        28.32942
361.33        28.16264
361.78        27.95264
362.23        27.73433
362.68        27.52792
363.13        27.32656
363.58        27.14403
364.03        27.00471
364.48        26.91065
364.93        26.85295
365.38        26.82263
365.83        26.80148
366.28        26.77707
366.73        26.75044
367.18        26.69585
367.63        26.57546
368.08        26.38717
368.53         26.1436
368.98        25.89205
369.43        25.71065
369.88        25.62009
370.33        25.60198
370.78        25.61446
371.23        25.58507
371.68         25.4922
372.13        25.35447
372.58        25.19999
373.03        25.07667
373.48        24.99062
373.93        24.91349
374.38         24.8231
374.83         24.6869
375.28         24.5034
375.72        24.29646
376.17        24.08507
376.62        23.84491
377.07        23.58328
377.52        23.29896
377.97        23.06977
378.42        23.02609
378.87        23.17793
379.32        23.47217
379.77        23.76533
380.22          23.846
380.67        23.67197
381.11        23.30286
381.56        22.86661
382.01        22.57909
382.46        22.50587
382.91        22.58918
383.36        22.72634
383.81        22.75911
384.26         22.6504
384.71        22.45076
385.15        22.24141
385.60        22.17353
386.05        22.25707
386.50        22.42826
386.95        22.58527
387.40        22.57662
387.85         22.3806
388.29        22.05601
388.74        21.71735
389.19        21.44699
389.64        21.27221
390.09        21.15695
390.54        21.11008
390.98        21.14357
391.43        21.24872
391.88        21.41066
392.33        21.55407
392.78        21.59373
393.23        21.52208
393.67        21.31572
394.12        21.06253
394.57        21.03256
395.02         20.9391
395.47        20.99093
395.91        21.04985
396.36        21.02406
396.81        20.90259
397.26        20.73468
397.71        20.55907
398.15        20.41884
398.60        20.35653
399.05        20.30525
399.50        20.27534
399.95        20.37604
400.39        20.49545
400.84        20.61851
401.29        20.67351
401.74        20.65965
402.18        20.56513
402.63         20.3572
403.08        20.11855
403.53        19.99266
403.97        20.00671
404.42        20.12299
404.87        20.26233
405.32        20.29458
405.76        20.18394
406.21        19.97907
406.66        19.75842
407.11         19.6452
407.55        19.67438
408.00        19.80698
408.45        19.96149
408.90        19.99242
409.34        19.86353
409.79        19.62219
410.24         19.3867
410.68        19.33244
411.13        19.49326
411.58        19.81268
412.03        20.15775
412.47        20.30263
412.92        20.17771
413.37        19.87053
413.81        19.51118
414.26        19.32039
414.71        19.33143
415.15        19.47991
415.60        19.67034
416.05        19.76416
416.49        19.71959
416.94        19.59471
417.39        19.43074
417.83        19.28421
418.28        19.18559
418.73        19.10536
419.17        19.06924
419.62        19.12482
420.07         19.2639
420.51        19.46528
420.96        19.65487
421.41         19.7028
421.85         19.5841
422.30        19.36661
422.74        19.11399
423.19          18.952
423.64        18.90289
424.08        18.93832
424.53        19.02631
424.98        19.14095
425.42        19.26403
425.87        19.38923
426.31        19.48327
426.76        19.52353
427.21        19.44156
427.65        19.27903
428.10        19.08288
428.54        18.91693
428.99        18.82383
429.44        18.88836
429.88        19.02577
430.33        18.91813
430.77        18.65053
431.22        18.72072
431.66        19.11521
432.11        19.35145
432.56        19.35944
433.00         19.4352
433.45        19.52699
433.89          19.251
434.34        18.77224
434.78        18.65939
435.23         18.8804
435.67        18.93685
436.12        18.81799
436.57        18.82355
437.01        18.94651
437.46        19.02143
437.90        19.03371
438.35        19.03345
438.79        19.03182
439.24        19.01334
439.68        19.00467
440.13        19.07121
440.57        19.17805
441.02        19.24291
441.46        19.24834
441.91        19.17256
442.35        19.04634
442.80        19.13966
443.24        19.35937
443.69        19.22689
444.13        18.81758
444.58        18.65551
445.02        18.74546
445.47        18.82805
445.91        18.86044
446.36        18.90377
446.80        18.94005
447.24        18.96352
447.69        18.97497
448.13        18.97522
448.58        18.97001
449.02         18.9512
449.47        18.94612
449.91        18.98881
450.36        19.08274
450.80        19.21357
451.25        19.33254
451.69        19.35706
452.13         19.2728
452.58        19.11713
453.02        18.94476
453.47        18.84044
453.91        18.82402
454.36        18.92536
454.80         19.0145
455.24        19.10173
455.69        19.14213
456.13        19.14515
456.58        19.13799
457.02         19.1443
457.46        19.17335
457.91        19.21376
458.35        19.23344
458.79        19.19713
459.24        19.11637
459.68        19.02013
460.13        18.95222
460.57        18.89396
461.01        19.00058
461.46        19.06326
461.90        19.12519
462.34        19.36739
462.79        19.68766
463.23         19.6761
463.68        19.37999
464.12        19.23653
464.56         19.2735
465.01        19.28057
465.45        19.23564
465.89        19.19222
466.34        19.18236
466.78        19.28434
467.22        19.51085
467.67        19.56316
468.11         19.4392
468.55        19.25089
468.99        19.07849
469.44        18.99834
469.88        19.03481
470.32        19.16796
470.77        19.33594
471.21        19.45261
471.65        19.48355
472.10        19.46285
472.54        19.41792
472.98        19.40954
473.42        19.45255
473.87        19.52418
474.31        19.59825
474.75        19.64295
475.20        19.65685
475.64        19.64979
476.08        19.64001
476.52        19.64886
476.97        19.68302
477.41        19.72899
477.85        19.79081
478.29        19.87391
478.74        19.97934
479.18        20.09002
479.62        20.17707
480.06         20.2445
480.50        20.30073
480.95        20.16858
481.39        20.18979
481.83        20.21736
482.27        20.36715
482.72        20.44511
483.16          20.696
483.60        20.83926
484.04        20.95992
484.48        21.01323
484.93         21.0025
485.37        21.15599
485.81        21.44938
486.25        21.12913
486.69         20.8273
487.14        21.10294
487.58        21.78788
488.02        21.85277
488.46        22.23851
488.90         22.3011
489.34        21.91582
489.79        21.93824
490.23        22.20406
490.67        22.50741
491.11        22.74446
491.55        22.78761
491.99        22.70374
492.43        22.81795
492.88        23.14072
493.32        23.43231
493.76        23.64698
494.20        23.86344
494.64        24.07915
495.08        24.26502
495.52        24.40094
495.96        24.52276
496.41         24.6465
496.85        24.62288
497.29        24.52284
497.73        24.89547
498.17         25.3565
498.61        25.50705
499.05        25.28724
499.49         25.2691
499.93        25.49691
500.37        25.73426
500.82        25.93825
501.26        26.10243
501.70        26.21183
502.14        26.30608
502.58        26.40485
503.02        26.50694
503.46        26.61957
503.90        26.74927
504.34        26.88436
504.78        27.00064
505.22         27.0918
505.66        27.16047
506.10        27.21184
506.54         27.2851
506.98        27.39174
507.42        27.46776
507.86        27.48174
508.30        27.69625
508.74        27.60193
509.18         27.6128
509.62         27.6141
510.06        27.67504
510.50        27.80196
510.94        27.98433
511.38        28.17177
511.82        28.26579
512.26        28.24676
512.70        28.14411
513.14        28.02551
513.58         27.9963
514.02        28.08049
514.46        28.24586
514.90        28.43202
515.34        28.53945
515.78        28.54113
516.22        28.46915
516.66         28.3734
517.10        28.33112
517.54         28.3613
517.98        28.43513
518.42         28.5163
518.86        28.54862
519.30        28.51716
519.74        28.44527
520.18         28.3568
520.62        28.28431
521.06        28.24145
521.50        28.22142
521.93        28.22145
522.37        28.22896
522.81        28.24202
523.25        28.25973
523.69        28.28601
524.13        28.32685
524.57        28.37708
525.01        28.42738
525.45        28.45342
525.89        28.41935
526.32        28.31631
526.76        28.16685
527.20        27.99796
527.64        27.85242
528.08        27.74451
528.52        27.66707
528.96        27.61094
529.40        27.55941
529.83        27.50488
530.27        27.45529
530.71        27.41264
531.15        27.38226
531.59        27.36202
532.03        27.34506
532.46        27.31752
532.90        27.26971
533.34        27.19965
533.78        27.11768
534.22        27.03415
534.66        26.96393
535.09         26.9099
535.53        26.87361
535.97        26.85785
536.41        26.87358
536.85        26.91733
537.28        26.98313
537.72        27.04638
538.16        27.06877
538.60         27.0449
539.04        26.99259
539.47        26.93057
539.91        26.91321
540.35        26.94754
540.79        27.02643
541.22        27.14364
541.66        27.29284
542.10         27.4624
542.54        27.65097
542.97        27.84652
543.41        28.03554
543.85         28.2104
544.29         28.3768
544.72        28.51833
545.16        28.63085
545.60        28.71696
546.04        28.77231
546.47        28.83481
546.91        29.00816
547.35        29.28282
547.79        29.54268
548.22        29.75224
548.66        30.01748
549.10        30.33658
549.53        30.55209
549.97        30.61688
550.41        31.08925
550.84        31.03841
551.28         31.1675
551.72        31.20877
552.15        31.45141
552.59        31.51077
553.03        31.69759
553.46        31.88518
553.90        32.04951
554.34        32.17702
554.77        32.31061
555.21        32.45496
555.65        32.53174
556.08         32.5714
556.52        32.72448
556.96        32.96424
557.39        33.17218
557.83         33.3278
558.27        33.41758
558.70        33.47671
559.14        33.60569
559.57        33.78329
560.01        33.94952
560.45        34.06927
560.88        34.00906
561.32        33.97693
561.75        33.96277
562.19        34.03745
562.63        34.10015
563.06        34.15027
563.50        34.26936
563.93        34.42321
564.37        34.55167
564.80        34.63446
565.24        34.69657
565.68        34.75374
566.11        34.85437
566.55        35.00547
566.98        35.13881
567.42        35.28175
567.85        35.40889
568.29        35.51905
568.72        35.72673
569.16         36.0892
569.60        35.89197
570.03        36.23623
570.47        36.42931
570.90        36.61443
571.34        36.56545
571.77        36.84002
572.21        36.95753
572.64        37.04661
573.08        37.14983
573.51        37.35299
573.95        37.20984
574.38        37.58024
574.82        37.75195
575.25         37.7495
575.69        37.64801
576.12        37.44113
576.56        37.64922
576.99        37.52326
577.42        37.74114
577.86        37.60298
578.29        37.51356
578.73        37.85355
579.16        37.40659
579.60        37.54601
580.03        37.28112
580.47        37.59069
580.90        37.42217
581.33         36.9922
581.77        37.11632
582.20        37.00566
582.64        36.86332
583.07        36.52936
583.51        36.31207
583.94        36.37606
584.37        36.23949
584.81         35.9845
585.24        36.10719
585.68        36.29774
586.11        36.30375
586.54        35.85258
586.98        35.58829
587.41         36.3354
587.85        36.01548
588.28        35.95893
588.71        36.25762
589.15        35.81393
589.58        35.96199
590.01        35.70182
590.45        35.62607
590.88         35.6147
591.31         35.7901
591.75        36.01599
592.18         36.0929
592.61        36.13698
593.05        35.45367
593.48        36.15136
593.91        36.26215
594.35        35.85032
594.78        35.86095
595.21        36.15581
595.65        36.25434
596.08        36.14535
596.51        36.64376
596.94        36.97803
597.38        37.34818
597.81        37.48351
598.24        37.58895
598.68        37.70937
599.11         37.9401
599.54         38.6684
599.97        38.87193
600.41        38.75333
600.84          39.174
601.27        39.48026
601.70        40.03231
602.14        40.51596
602.57        40.72383
603.00        40.71802
603.43        41.01609
603.87        41.48732
604.30        42.16525
604.73        42.30321
605.16        42.70742
605.60         43.1538
606.03        43.55018
606.46        43.80289
606.89         44.2773
607.32        44.40161
607.76        44.73103
608.19         45.1326
608.62        45.31681
609.05        45.60865
609.48        46.19413
609.92        46.52398
610.35        46.78736
610.78         47.0989
611.21        46.94354
611.64        47.48122
612.07         47.7125
612.50        47.88157
612.94        48.14187
613.37        48.60935
613.80        48.58248
614.23         49.0879
614.66        49.28966
615.09          49.474
615.52        49.73304
615.96        50.03606
616.39        50.06107
616.82        49.85539
617.25        50.26901
617.68        50.33817
618.11        50.84876
618.54        51.12251
618.97         51.1747
619.40        50.98408
619.84        50.98374
620.27        51.25531
620.70        51.49821
621.13        51.59313
621.56        51.79665
621.99        51.58249
622.42        51.34914
622.85        51.90209
623.28        51.87351
623.71        52.45444
624.14        51.50879
624.57        52.22993
625.00        52.16671
625.43        52.20884
625.86        51.94334
626.29        51.82095
626.72        52.01067
627.15        51.68262
627.58        51.68987
628.01        51.65476
628.44        51.68304
628.87        51.06373
629.30        50.90622
629.73        50.98674
630.16        50.89005
630.59        50.58926
631.02        50.45214
631.45         50.2537
631.88        50.03675
632.31        49.72578
632.74        49.41062
633.17        49.01876
633.60        48.64696
634.03        48.28348
634.46        47.91561
634.89        47.55078
635.32        47.20955
635.75         46.8934
636.18        46.59371
636.61         46.2978
637.04         45.9909
637.47        45.67812
637.89        45.33555
638.32        44.94948
638.75        44.63625
639.18        44.42572
639.61        43.85826
640.04         43.7406
640.47        43.45262
640.90        43.23232
641.33        43.06493
641.76        42.93047
642.18        42.78278
642.61         42.5945
643.04        42.39084
643.47        42.22271
643.90        42.15647
644.33        42.20067
644.76        42.38766
645.18        42.63539
645.61        42.69289
646.04        42.49854
646.47        42.57588
646.90        42.88355
647.33        43.06742
647.75        43.11004
648.18        43.23331
648.61         43.4539
649.04          43.697
649.47         43.9791
649.89        44.33641
650.32        44.71577
650.75        45.13545
651.18        45.57634
651.61        45.79418
652.03           45.91
652.46        46.58533
652.89        47.61399
653.32        47.94568
653.74         47.7299
654.17        47.73397
654.60        48.07873
655.03        49.41629
655.46        48.77924
655.88        49.62115
656.31        51.72504
656.74        51.66342
657.16        50.97285
657.59        49.95859
658.02        50.34771
658.45        51.85378
658.87        51.96171
659.30        52.37396
659.73        52.70235
660.15        53.39524
660.58        53.79255
661.01        53.82491
661.44         53.4883
661.86         53.3286
662.29        53.45369
662.72        53.87375
663.14        54.43926
663.57        54.43082
664.00        53.98104
664.42        53.96561
664.85        54.44156
665.27        54.86427
665.70        55.13121
666.13        55.37079
666.55        55.56179
666.98        55.65966
667.41        55.69815
667.83        55.73238
668.26        55.77443
668.69        55.82125
669.11        55.88781
669.54        55.97342
669.96        56.07372
670.39        56.26575
670.82        56.50611
671.24        56.53876
671.67         56.4276
672.09        56.60751
672.52        57.02564
672.94        57.28766
673.37        56.93257
673.80        57.23293
674.22        56.96671
674.65        57.06291
675.07        57.21182
675.50        57.43111
675.92        57.68116
676.35         57.8882
676.77        58.04174
677.20        58.13914
677.62        58.21393
678.05        58.28917
678.47        58.36702
678.90        58.50304
679.32        58.67581
679.75        58.54903
680.17        58.61484
680.60        58.49646
681.02        58.40281
681.45        58.40187
681.87        58.51331
682.30        58.74022
682.72        59.02023
683.15        59.09529
683.57        59.01798
684.00        59.12764
684.42        59.38994
684.85        59.52998
685.27        59.54605
685.70        59.47022
686.12        59.41314
686.54        59.82501
686.97        60.55807
687.39         60.8996
687.82        60.76591
688.24        60.71594
688.66         60.7527
689.09        60.51567
689.51          60.108
689.94        59.89013
690.36        59.91243
690.78        60.08141
691.21        60.32762
691.63        60.54043
692.06        60.67509
692.48        60.77182
692.90        60.84822
693.33        60.92173
693.75        61.00863
694.17        61.09255
694.60        61.16341
695.02        61.23842
695.44        61.31753
695.87        61.36884
696.29        61.41716
696.71        61.54193
697.14        61.71601
697.56        61.76511
697.98         61.7167
698.41        61.74797
698.83        61.85931
699.25        61.96446
699.68        62.02836
700.10        62.08982
700.52        62.13299
700.94        62.15385
701.37        62.15875
701.79        62.20633
702.21        62.24622
702.64        62.31723
703.06        62.40588
703.48        62.52332
703.90        62.66909
704.33        62.85129
704.75        63.01397
705.17        63.13266
705.59        63.17861
706.01        63.15251
706.44        63.09569
706.86        63.11369
707.28        63.20144
707.70        63.27295
708.12        63.33613
708.55        63.42141
708.97        63.54832
709.39        63.76467
709.81        64.03924
710.23        64.26457
710.66        64.40834
711.08        64.53247
711.50         64.6319
711.92        64.70811
712.34        64.77182
712.76        64.83246
713.19        64.86234
713.61        64.85844
714.03        64.80795
714.45        64.72153
714.87        64.66559
715.29        64.73797
715.71        64.94788
716.13        65.26365
716.56        65.56326
716.98        65.71752
717.40        65.65721
717.82        65.43426
718.24        65.15423
718.66        64.98974
719.08        64.98909
719.50        65.09953
719.92        65.26234
720.34        65.38012
720.76        65.42157
721.19        65.41785
721.61        65.39478
722.03        65.36496
722.45        65.33836
722.87        65.29826
723.29        65.26912
723.71        65.29176
724.13        65.36419
724.55        65.50594
724.97          65.673
725.39        65.70642
725.81        65.57684
726.23        65.64214
726.65         65.4112
727.07         65.4491
727.49        65.60979
727.91        65.85657
728.33        66.12935
728.75        66.33804
729.17        66.45257
729.59        66.50462
730.01        66.48116
730.43        66.36294
730.85        66.17186
731.27        65.91723
731.69        65.70418
732.10        65.72044
732.52          66.024
732.94        66.47834
733.36        66.91081
733.78        67.35289
734.20        67.80254
734.62         66.9767
735.04        67.19305
735.46         67.1562
735.88        67.48296
736.30         67.5387
736.72        67.32417
737.13        67.41122
737.55        67.64494
737.97        67.38435
738.39         66.7636
738.81        66.41951
739.23        66.47688
739.65        66.88789
740.06        67.42097
740.48        67.64391
740.90        67.47629
741.32        67.14988
741.74        66.82839
742.16        66.70311
742.57        66.85357
742.99        67.17985
743.41        67.57762
743.83        67.91488
744.25        68.11645
744.67        68.13114
745.08        68.02349
745.50        67.97707
745.92        68.03233
746.34        68.08971
746.75        68.15451
747.17        68.19611
747.59        68.19418
748.01        68.32142
748.42        68.58848
748.84        68.22174
749.26        68.36801
749.68         68.2747
750.09        68.27199
750.51        68.34428
750.93        68.43118
751.35        68.34061
751.76        68.12447
752.18        68.06561
752.60        68.18081
753.01        68.34559
753.43        68.50838
753.85        68.51903
754.27         68.6375
754.68        68.68253
755.10        68.72929
755.52        68.77412
755.93        68.80297
756.35        68.74596
756.77        68.70904
757.18        68.84044
757.60        69.15543
758.02        69.62969
758.43        70.53712
758.85        69.98941
759.26        68.54472
759.68        68.09467
760.10        68.69356
760.51        69.19039
760.93        69.45999
761.34        69.08399
761.76        69.53803
762.18         69.4023
762.59        69.18152
763.01        68.85209
763.42        68.53293
763.84        68.37284
764.26        68.41997
764.67        68.47817
765.09        68.59203
765.50        69.13399
765.92        69.91241
766.33        70.07628
766.75        69.57555
767.16        69.40367
767.58        69.60461
768.00        69.45467
768.41        69.04652
768.83        69.24201
769.24        69.84663
769.66        69.76599
770.07        69.11595
770.49        68.94359
770.90        69.30159
771.32        69.67361
771.73        69.94735
772.15        70.04162
772.56        69.92486
772.97         69.8935
773.39        69.55003
773.80        69.51856
774.22        69.66261
774.63        69.97969
775.05        70.31661
775.46        70.51815
775.88        70.50698
776.29        70.37252
776.70        70.17044
777.12        70.01197
777.53        69.93921
777.95        69.89546
778.36        69.90433
778.77        69.97108
779.19        70.09003
779.60        70.37012
780.02        70.68024
780.43        70.75931
780.84        70.65425
781.26         70.5227
781.67        70.50278
782.09        71.01897
782.50        71.83447
782.91         71.8618
783.33        71.14291
783.74         70.7809
784.15        70.83714
784.57         70.6555
784.98        70.30295
785.39        70.22005
785.81        70.43884
786.22        70.82263
786.63        71.27843
787.04         71.6575
787.46        71.90595
787.87        72.04708
788.28        72.10765
788.70        72.11919
789.11        72.09644
789.52        72.05644
789.93        71.99507
790.35        71.89928
790.76        71.79214
791.17        71.68563
791.58        71.64409
792.00        71.72157
792.41        71.90849
792.82        72.22179
793.23        72.55747
793.65        72.48699
794.06        72.15369
794.47        72.31136
794.88        72.83291
795.29        72.92194
795.71        72.52412
796.12        72.12447
796.53         71.8789
796.94        71.85563
797.35        72.11392
797.76        72.63917
798.18        73.24058
798.59        73.64148
799.00        73.73903
799.41         73.6104
799.82        73.35359
800.23        73.14539
800.64        73.05383
801.06         73.0047
801.47        73.02029
801.88        73.06174
802.29        73.10913
802.70        73.17014
803.11        73.24812
803.52        73.33601
803.93        73.44235
804.34        73.57285
804.75        73.67115
805.17        73.73594
805.58        73.80453
805.99         73.5927
806.40        73.25751
806.81        73.69855
807.22        74.65002
807.63        74.57317
808.04        73.58672
808.45        73.25516
808.86        73.69509
809.27        74.00425
809.68        74.06992
810.09        74.15285
810.50        74.22222
810.91        74.19596
811.32        74.12911
811.73        74.11395
812.14        74.16663
812.55        74.27628
812.96        74.37254
813.37        74.31382
813.78        74.08529
814.19        73.77676
814.60        73.48739
815.01        73.31399
815.42        73.29955
815.83         73.4716
816.24        73.78304
816.65        74.05744
817.05        74.22931
817.46        74.32851
817.87        74.35566
818.28        74.23647
818.69        73.98473
819.10         73.6323
819.51        73.27633
819.92        73.10501
820.33        73.17561
820.74        73.41987
821.14        73.78419
821.55        74.18977
821.96        74.58186
822.37        74.98573
822.78        75.28769
823.19        75.29071
823.60        74.96133
824.00         74.3503
824.41         73.6713
824.82        73.29743
825.23        73.31334
825.64        73.64243
826.04        74.09769
826.45        74.25169
826.86        74.02093
827.27        73.53959
827.68        73.02075
828.08        72.81924
828.49        72.98742
828.90        73.45193
829.31        74.07722
829.72        74.63551
830.12         75.0617
830.53         75.3193
830.94        75.52185
831.35         75.8171
831.75        76.24499
832.16        76.66821
832.57        76.93484
832.97         76.7673
833.38        76.14909
833.79        75.27026
834.20        74.36547
834.60        73.74146
835.01        73.51237
835.42        73.55459
835.82        73.88085
836.23        74.42897
836.64        75.14664
837.04         76.0707
837.45          76.862
837.86        77.12001
838.26        76.75684
838.67        75.87949
839.08        74.85126
839.48        74.23529
839.89        74.21238
840.29        74.62557
840.70        75.22498
841.11        75.60562
841.51        75.66808
841.92        75.50072
842.33        75.27334
842.73        75.24906
843.14        75.45187
843.54        75.81894
843.95        76.21162
844.35        76.48786
844.76        76.57012
845.17          76.483
845.57        76.33228
845.98        76.24941
846.38        76.28771
846.79         76.4128
847.19        76.45779
847.60        76.09734
848.00        75.32936
848.41        74.30154
848.81        73.37941
849.22        73.09881
849.62        73.59175
850.03        74.64072
850.43        75.95786
850.84        76.80567
851.24        76.99948
851.65         76.6415
852.05        75.97002
852.46        75.34599
852.86        74.91527
853.27        74.64723
853.67        74.43754
854.07        74.33939
854.48        74.28675
854.88        74.32054
855.29        74.37906
855.69        74.52181
856.10         74.6307
856.50        74.78819
856.90        74.83556
857.31        74.59647
857.71        74.11231
858.12         73.4002
858.52        72.74287
858.92        72.55769
859.33        72.91717
859.73        73.74426
860.13        74.72295
860.54        75.33311
860.94        75.46864
861.34        75.18066
861.75        74.62904
862.15        74.17272
862.55        73.90015
862.96        73.73535
863.36        73.53078
863.76        73.07723
864.17        72.37879
864.57        71.57747
864.97        70.86058
865.38        70.44295
865.78        70.40154
866.18        70.62458
866.58        71.06365
866.99        71.59004
867.39        72.16196
867.79        72.77653
868.19        73.23462
868.60        73.24638
869.00        72.79979
869.40        71.95054
869.80         71.1287
870.21        71.07425
870.61        71.97325
871.01        73.55152
871.41        75.19088
871.81        75.90644
872.22        75.46442
872.62        74.17338
873.02        72.56785
873.42        71.54459
873.82        71.39168
874.22        71.86871
874.63          72.615
875.03        73.07745
875.43        73.09663
875.83        72.83258
876.23         72.5694
876.63        72.75545
877.03         73.4609
877.44        74.45465
877.84        75.37651
878.24        75.56768
878.64        74.92408
879.04        73.74358
879.44        72.45179
879.84        71.65475
880.24        71.49609
880.64        71.75822
881.04        72.32081
881.44        72.97258
881.84        73.60467
882.24        74.32275
882.65        74.87915
883.05        74.98484
883.45        74.55329
883.85         73.6733
884.25        72.82507
884.65        72.76544
885.05        73.60567
885.45         75.0853
885.85        76.69514
886.25        77.54575
886.65        77.35975
887.05        76.42952
887.45        75.04404
887.85        73.71984
888.25        72.73397
888.65        71.99281
889.04        71.54488
889.44        71.53276
889.84        71.88514
890.24         72.6036
890.64        73.52244
891.04        74.22744
891.44        74.54058
891.84        74.54539
892.24        74.35522
892.64        74.17437
893.04         74.0658
893.44        73.94233
893.83        73.90774
894.23        74.06413
894.63        74.44215
895.03        75.03587
895.43         75.5981
895.83        75.73532
896.23        75.38461
896.63        74.63064
897.02        73.81583
897.42        73.57876
897.82        74.02776
898.22        74.99347
898.62        76.01243
899.01         76.3191
899.41        75.73564
899.81        74.54559
900.21        73.24384
900.61        72.58463
901.00        72.74639
901.40        73.47678
901.80        74.41292
902.20        74.96725
902.59        74.94139
902.99        74.50981
903.39         73.8809
903.79        73.34638
904.18         73.0118
904.58        72.83891
904.98        72.70785
905.38        72.46564
905.77          72.077
906.17        71.59822
906.57        71.26563
906.96        71.46616
907.36        72.20989
907.76        73.39068
908.15        74.55716
908.55        74.83072
908.95        74.09995
909.34        72.63586
909.74        71.13161
910.14        70.52804
910.53        71.08251
910.93        72.46069
911.33        74.25226
911.72        75.80255
912.12        76.78124
912.52        77.37617
912.91        77.70826
913.31         77.9659
913.70        78.21932
914.10        78.32059
914.49         78.1888
914.89        77.72839
915.29        76.97929
915.68        76.06451
916.08        75.20008
916.47        74.55495
916.87         74.2409
917.26        74.17294
917.66        74.34003
918.05        74.73458
918.45        75.25291
918.84        75.93383
919.24        76.51971
919.64         76.7291
920.03         76.5045
920.42        75.89343
920.82        75.18144
921.21        74.72487
921.61         74.6312
922.00        74.82337
922.40        75.13966
922.79        75.38173
923.19         75.4465
923.58        75.43373
923.98        75.39552
924.37        75.41801
924.77        75.51512
925.16        75.63575
925.55        75.75781
925.95        75.86206
926.34        75.95393
926.74        76.03719
927.13        76.06895
927.52        75.94126
927.92        75.65687
928.31        75.22956
928.70         74.8065
929.10        74.61095
929.49        74.68904
929.89        74.95275
930.28        75.25559
930.67        75.25509
931.07        74.88673
931.46        74.31155
931.85        73.70309
932.24        73.31979
932.64        73.25024
933.03        73.42027
933.42        73.82014
933.82        74.41068
934.21        75.13737
934.60        75.91595
934.99        76.64413
935.39           77.14
935.78        77.39377
936.17        77.41793
936.56        77.06815
936.96        76.19294
937.35        74.89761
937.74        73.35166
938.13        72.03571
938.53         71.5294
938.92        71.87265
939.31         72.9553
939.70        74.36644
940.09        75.27796
940.49        75.37665
940.88        74.86894
941.27        74.13403
941.66        73.77682
942.05        73.95668
942.44        74.53648
942.84        75.16064
943.23        75.29813
943.62        74.76886
944.01        73.75964
944.40        72.83907
944.79        72.82227
945.18        73.83521
945.57        75.64021
945.97        77.43939
946.36        78.09425
946.75         77.2049
947.14        75.17359
947.53        72.90889
947.92        71.77786
948.31        72.12236
948.70        73.58817
949.09        75.45361
949.48        76.40065
949.87        76.01788
950.26        74.72476
950.65        73.25981
951.04        72.63932
951.43        73.09302
951.82        74.34055
952.21        75.75826
952.60        76.24274
952.99        75.49578
953.38        73.89574
953.77        72.29057
954.16        71.79436
954.55        72.62185
954.94        74.55994
955.33        76.77529
955.72        77.48904
956.11        76.14507
956.50         73.3752
956.89        70.55745
957.28        69.47762
957.66        70.50014
958.05        73.06581
958.44        76.15588
958.83        77.68478
959.22        76.97032
959.61        74.78014
960.00        72.25986
960.39        70.85654
960.78        70.84937
961.16        71.79979
961.55        73.14255
961.94        73.86473
962.33        73.57541
962.72        72.73097
963.11        71.69243
963.49        70.89158
963.88        70.47147
964.27         70.2476
964.66        70.27989
965.04        70.76618
965.43        71.59731
965.82        72.74296
966.21         73.9062
966.60         74.5108
966.98        74.41705
967.37        73.84702
967.76         73.0185
968.15        72.22819
968.53        71.57146
968.92        70.90224
969.31        70.48061
969.69        70.81215
970.08        71.92195
970.47        73.80932
970.86        75.70289
971.24        76.24984
971.63        75.14613
972.02        72.85072
972.40        70.47466
972.79        69.78506
973.17        71.09396
973.56        73.73387
973.95        76.79575
974.33        78.54466
974.72        78.32494
975.11        76.75093
975.49        74.57837
975.88        73.24667
976.26        73.13416
976.65        73.73872
977.04        74.72432
977.42        75.49636
977.81        75.66106
978.19        75.55873
978.58        75.26697
978.96        74.75841
979.35        74.16056
979.74        73.47347
980.12        72.97118
980.51        73.10746
980.89        74.02744
981.28        75.41363
981.66        77.16816
982.05        78.81387
982.43        80.24077
982.82        81.48026
983.20        82.13367
983.59        81.44778
983.97        79.46111
984.35        76.48731
984.74        73.70925
985.12        72.75191
985.51         73.8109
985.89        76.50507
986.28        79.59072
986.66        81.30911
987.04        80.95384
987.43        79.08583
987.81        76.46583
988.20        74.74166
988.58        74.37743
988.96        74.92393
989.35        75.62759
989.73        75.51554
990.12        74.28864
990.50        72.49155
990.88        70.59137
991.27        69.28292
991.65        68.75748
992.03        68.79153
992.42         69.4025
992.80        70.95838
993.18        73.31812
993.56        76.43505
993.95        79.50418
994.33        81.14536
994.71        80.83022
995.10        78.98419
995.48        76.58966
995.86        75.22912
996.24         75.3024
996.63        76.30048
997.01        77.82049
997.39        78.85649
997.77        79.01011
998.15        78.66586
998.54        77.93322
998.92        76.94067
999.30        75.80038
999.68        74.45236
1000.06        73.25295
1000.45        72.87282
1000.83        73.53878
1001.21        75.06548
1001.59        77.02354
1001.97        78.65358
1002.35        79.65232
1002.73        80.13768
1003.12        80.13506
1003.50        79.65873
1003.88        78.83899
1004.26        77.70795
1004.64        76.47529
1005.02        75.55178
1005.40        75.08143
1005.78        74.97623
1006.16        75.19859
1006.54        75.63961
1006.92        76.25773
1007.30        77.17664
1007.69        78.10129
1008.07        78.52692
1008.45        78.23911
1008.83         77.2821
1009.21        76.35951
1009.59        76.72901
1009.97        78.59678
1010.35        81.47973
1010.73        84.36781
1011.11        85.62033
1011.49        84.85014
1011.86        82.73248
1012.24        79.83118
1012.62         77.1843
1013.00        75.15153
1013.38        73.42152
1013.76        72.15097
1014.14         71.7057
1014.52        72.11724
1014.90        73.34691
1015.28        74.75069
1015.66        75.21618
1016.04        74.49714
1016.41        72.94681
1016.79        70.90967
1017.17        69.37552
1017.55        68.82127
1017.93        68.86713
1018.31        69.52293
1018.69        70.98534
1019.06        73.44787
1019.44        77.18479
1019.82        81.96452
1020.20        85.33429
1020.58        85.30578
1020.95        82.26052
1021.33        78.35055
1021.71        75.72661
1022.09        74.52396
1022.46        74.09898
1022.84        73.98802
1023.22        72.44431
1023.60         69.3918
1023.97        66.18119
1024.35        63.90105
1024.73        63.22355
