SpectraSmart Spectrum 2.9.0.0
--------- Device Information -----------
Spectrum Name :  反射率_0
Saving Time :  2024/04/30 01:01:19
Spectro-Module Model Name : SE2030-DUVN
Spectro-Module Serial Number : OS361AC55029948
Wavelength Start : 200
Wavelength End : 1025
Wavelength Unit : Wavelength(nm)
Spectrum Unit : Reflectance(%)
-----------Spectrum Setting ------------
Integration Time : 20ms
Average : 10
Boxcar : 0
Background removal :  enabled
linearity correction :  enabled
SC :  disabled
Intensity correction :  disabled
DWT denoise :  enabled
savitzky-golay :  disabled
FFT :  disabled
Running average :  disabled
Kalman :  disabled
High pass :  disabled
---------------BEGIN--------------------
Wavelength(nm)             Reflectance(%)
200.29               0
200.75        62.30188
201.21        48.36759
201.67         31.6116
202.13        16.61874
202.58        5.969688
203.04        -0.73528
203.50       -1.704124
203.96        6.047845
204.42        22.16868
204.88        44.41326
205.34        65.23489
205.80        73.61346
206.26         69.8582
206.72        60.63548
207.18        50.12484
207.64        40.30759
208.10        30.81635
208.55        20.03833
209.01        10.21127
209.47        7.945996
209.93        13.97252
210.39        24.87844
210.85        34.52648
211.31        37.73784
211.77        34.22045
212.23        23.62931
212.69        8.634055
213.14        3.921756
213.60        15.52078
214.06        34.21447
214.52        49.23557
214.98        54.02003
215.44        50.14346
215.90         40.5664
216.36        29.06446
216.81        22.85727
217.27         25.7535
217.73        37.08821
218.19        56.19769
218.65        73.49837
219.11        79.88985
219.57        77.54451
220.02        71.78037
220.48        67.37344
220.94        64.15005
221.40        60.15489
221.86         54.5092
222.32        48.26051
222.77        43.77565
223.23        42.30399
223.69        42.05423
224.15        41.25761
224.61          39.701
225.06        37.49237
225.52        35.94579
225.98        37.33353
226.44        41.29967
226.90        45.90255
227.36        49.46728
227.81        51.10686
228.27         51.2068
228.73        50.17099
229.19        48.70226
229.65        48.21434
230.10        48.95601
230.56        50.28691
231.02        51.37766
231.48        51.54641
231.93        50.74033
232.39        49.30133
232.85        47.63536
233.31        46.57392
233.77        46.40177
234.22        47.00755
234.68        47.75014
235.14        47.51985
235.60        46.14412
236.05        44.08527
236.51        42.33342
236.97        42.10551
237.43        43.68351
237.88        47.05618
238.34        51.59933
238.80        55.33657
239.26        56.59573
239.71         55.7925
240.17        53.50969
240.63        50.84755
241.08        47.94818
241.54        43.66586
242.00        38.30044
242.46        36.20529
242.91         42.1948
243.37        55.31117
243.83        68.80316
244.28        76.56954
244.74        78.38722
245.20        74.88936
245.66        67.68258
246.11        61.62485
246.57        59.67393
247.03        61.01918
247.48         64.1705
247.94        65.00874
248.40        63.04689
248.85        60.36134
249.31        58.81047
249.77         58.6679
250.22        59.92229
250.68        62.69937
251.14        66.61917
251.59        67.90165
252.05        64.71066
252.51        60.28823
252.96        57.12788
253.42        56.23448
253.88         56.7507
254.33        58.00292
254.79         59.4752
255.25        59.46894
255.70        57.86794
256.16        56.09036
256.62        54.68363
257.07        53.86805
257.53        53.78219
257.99        54.01235
258.44        54.05363
258.90        53.89835
259.35        53.23398
259.81        52.53386
260.27        51.89432
260.72        51.42996
261.18        51.22901
261.63        50.96712
262.09        50.59136
262.55        49.75465
263.00        48.49508
263.46        47.20982
263.91        45.95203
264.37        45.02348
264.83        44.36283
265.28        43.80992
265.74        43.48785
266.19        43.37139
266.65         43.4657
267.11        43.68966
267.56        43.83389
268.02        43.60522
268.47        42.93616
268.93        41.92382
269.38        40.73515
269.84        39.78885
270.30        39.19848
270.75        38.86255
271.21         38.6305
271.66        38.23939
272.12        37.62796
272.57        36.85573
273.03        36.04931
273.48        35.31708
273.94        34.75191
274.39        34.26505
274.85        33.82589
275.31         33.3208
275.76        32.71127
276.22        32.06482
276.67        31.41762
277.13        30.91173
277.58        30.51663
278.04        30.23008
278.49        29.91579
278.95        29.47303
279.40        28.85523
279.86        28.18851
280.31        27.54109
280.77        27.12796
281.22        26.94282
281.68        26.93517
282.13        27.01381
282.59        27.10655
283.04        27.14981
283.50        27.15101
283.95        27.06437
284.41        26.83631
284.86         26.4622
285.32        26.01419
285.77        25.50468
286.22        25.02369
286.68         24.6138
287.13        24.22434
287.59        23.93505
288.04        23.80507
288.50        23.84001
288.95        23.98366
289.41        24.11724
289.86        24.02246
290.32        23.69324
290.77          23.201
291.22        22.68723
291.68        22.37916
292.13        22.32943
292.59        22.48135
293.04         22.7934
293.50        23.22763
293.95        23.74451
294.40        24.35879
294.86        24.97289
295.31        25.44875
295.77        25.75613
296.22        25.91467
296.68        26.04997
297.13        26.34585
297.58        26.85082
298.04        27.48413
298.49        28.13301
298.95        28.61164
299.40          28.877
299.85         28.9985
300.31        29.06726
300.76        29.16654
301.21        29.35253
301.67        29.59696
302.12        29.85463
302.58        30.19878
303.03        30.61165
303.48        30.94411
303.94        31.14467
304.39        31.85185
304.84        31.84904
305.30        32.11008
305.75        32.27412
306.20        32.41074
306.66        32.53144
307.11        32.62402
307.57        32.70009
308.02         32.7026
308.47        32.64256
308.93        32.54394
309.38        32.43154
309.83        32.38974
310.29        32.43229
310.74        32.53275
311.19        32.62368
311.65        32.59364
312.10        32.42035
312.55        32.14091
313.00        31.84916
313.46        31.69134
313.91        31.68423
314.36        31.78157
314.82        31.88689
315.27          31.865
315.72        31.67134
316.18        31.36345
316.63        30.99592
317.08        30.66511
317.53        30.41292
317.99        30.22292
318.44         30.0833
318.89        29.98034
319.35        29.90125
319.80        29.84375
320.25        29.81807
320.70        29.83701
321.16        29.88179
321.61        29.95541
322.06         29.9808
322.51        29.84731
322.97         29.5404
323.42        29.10292
323.87         28.6482
324.32        28.35965
324.78        28.27085
325.23        28.34641
325.68        28.47642
326.13        28.47134
326.59        28.27328
327.04        27.95462
327.49        27.59719
327.94        27.34728
328.39        27.24171
328.85         27.2121
329.30        27.22581
329.75        27.18661
330.20        27.06347
330.66         26.8971
331.11         26.6939
331.56         26.4346
332.01        26.13234
332.46        25.78557
332.92        25.46858
333.37        25.34458
333.82        25.43791
334.27        25.70763
334.72         26.0268
335.17        26.17574
335.63        26.09063
336.08        25.84023
336.53        25.51323
336.98         25.2836
337.43        25.20983
337.88        25.23277
338.34         25.3141
338.79        25.41616
339.24        25.50741
339.69        25.61519
340.14        25.69946
340.59         25.6877
341.05         25.5732
341.50        25.36536
341.95        25.14702
342.40        25.06158
342.85        25.13215
343.30        25.31126
343.75        25.49264
344.20        25.50393
344.66        25.31795
345.11        24.99247
345.56        24.62037
346.01        24.34627
346.46        24.22013
346.91        24.19669
347.36         24.2489
347.81        24.33792
348.26         24.4381
348.72        24.55555
349.17        24.66026
349.62        24.69737
350.07        24.65392
350.52        24.54242
350.97        24.39187
351.42        24.25077
351.87        24.14173
352.32        24.06461
352.77        24.02543
353.22        24.02978
353.67        24.07423
354.13        24.14911
354.58        24.25065
355.03        24.37266
355.48        24.49681
355.93         24.6095
356.38        24.66609
356.83        24.60497
357.28        24.42285
357.73        24.14691
358.18        23.83462
358.63        23.57762
359.08        23.40202
359.53        23.28368
359.98        23.19975
360.43        23.10827
360.88        22.99506
361.33        22.88027
361.78        22.75584
362.23        22.60581
362.68        22.43434
363.13        22.24432
363.58        22.07072
364.03         21.9724
364.48        21.95552
364.93        21.99553
365.38        22.04847
365.83        22.04354
366.28         21.9602
366.73        21.82041
367.18        21.64255
367.63        21.45683
368.08        21.27794
368.53        21.09853
368.98        20.93347
369.43        20.80582
369.88        20.72141
370.33        20.68227
370.78        20.66336
371.23         20.6201
371.68        20.53885
372.13        20.42109
372.58        20.29842
373.03        20.22594
373.48        20.20798
373.93        20.22228
374.38        20.21123
374.83        20.08293
375.28        19.83002
375.72        19.49444
376.17        19.16335
376.62        18.92115
377.07          18.788
377.52         18.7281
377.97        18.73064
378.42        18.77577
378.87        18.84365
379.32        18.94035
379.77         19.0113
380.22        18.97645
380.67        18.82435
381.11        18.56527
381.56        18.28782
382.01         18.1424
382.46        18.16213
382.91        18.30779
383.36        18.46094
383.81        18.43796
384.26        18.20667
384.71        17.82639
385.15        17.42363
385.60        17.22143
386.05        17.25133
386.50        17.43656
386.95        17.64645
387.40        17.67806
387.85        17.49494
388.29        17.17291
388.74        16.83858
389.19        16.60379
389.64        16.49913
390.09        16.47512
390.54        16.51753
390.98        16.60372
391.43        16.71359
391.88        16.84576
392.33        16.95037
392.78        16.97285
393.23        16.91136
393.67        16.74326
394.12         16.5357
394.57        16.49724
395.02        16.40399
395.47        16.42432
395.91        16.45354
396.36        16.42443
396.81        16.32828
397.26        16.19537
397.71        16.05788
398.15        15.95241
398.60        15.91024
399.05        15.87993
399.50        15.84934
399.95        15.87187
400.39        15.85995
400.84        15.81514
401.29         15.7231
401.74        15.65694
402.18        15.62568
402.63        15.57596
403.08        15.53097
403.53        15.53852
403.97        15.59816
404.42        15.69877
404.87          15.776
405.32        15.72608
405.76        15.53157
406.21        15.23436
406.66        14.93347
407.11        14.78439
407.55        14.82622
408.00        15.01674
408.45        15.25304
408.90        15.34695
409.34         15.2462
409.79        15.00707
410.24        14.75613
410.68        14.68461
411.13        14.83245
411.58        15.13696
412.03        15.46679
412.47        15.60067
412.92        15.47128
413.37        15.16602
413.81        14.81399
414.26        14.62671
414.71        14.63848
415.15        14.78863
415.60        14.98137
416.05        15.07559
416.49        15.02915
416.94        14.89781
417.39        14.73427
417.83        14.61521
418.28        14.57105
418.73        14.56461
419.17        14.59309
419.62         14.6575
420.07        14.74531
420.51        14.85708
420.96        14.95218
421.41        14.95594
421.85        14.85806
422.30        14.70075
422.74        14.53443
423.19        14.46022
423.64        14.49048
424.08        14.60056
424.53        14.74408
424.98        14.86354
425.42        14.93467
425.87         14.9634
426.31        14.94362
426.76        14.89147
427.21        14.76582
427.65        14.59249
428.10        14.40985
428.54        14.25996
428.99        14.17272
429.44        14.23351
429.88        14.36357
430.33        14.25542
430.77        13.99246
431.22        14.04991
431.66        14.40532
432.11        14.57548
432.56        14.49801
433.00        14.48632
433.45        14.51383
433.89        14.22132
434.34        13.77709
434.78        13.73709
435.23         14.0441
435.67        14.16394
436.12        14.07049
436.57        14.06985
437.01        14.17453
437.46        14.25772
437.90        14.30937
438.35        14.35836
438.79        14.39187
439.24        14.36535
439.68        14.29929
440.13         14.2626
440.57        14.24248
441.02        14.22084
441.46        14.19952
441.91        14.09899
442.35        13.96792
442.80        14.14247
443.24        14.50491
443.69        14.44529
444.13        14.01421
444.58        13.81427
445.02        13.85164
445.47        13.80982
445.91        13.69494
446.36        13.67364
446.80        13.74408
447.24        13.86628
447.69        13.99907
448.13        14.07732
448.58        14.08713
449.02         14.0476
449.47        13.99973
449.91         14.0009
450.36        14.06514
450.80        14.16901
451.25        14.27833
451.69        14.33801
452.13        14.33357
452.58        14.29362
453.02        14.23641
453.47         14.1893
453.91        14.15937
454.36        14.17631
454.80        14.17287
455.24        14.20569
455.69        14.25248
456.13         14.3085
456.58        14.35995
457.02        14.37046
457.46         14.3396
457.91        14.27857
458.35        14.20576
458.79        14.15582
459.24        14.14702
459.68        14.17564
460.13        14.23467
460.57        14.24636
461.01        14.31304
461.46        14.29752
461.90        14.26232
462.34        14.38539
462.79        14.60377
463.23        14.60046
463.68        14.39803
464.12        14.30334
464.56        14.32965
465.01         14.3265
465.45        14.28001
465.89        14.23172
466.34        14.20655
466.78        14.26258
467.22        14.40386
467.67         14.4036
468.11        14.26216
468.55        14.06558
468.99        13.89208
469.44        13.82579
469.88        13.88792
470.32        14.05661
470.77        14.25716
471.21        14.38112
471.65        14.39115
472.10        14.32609
472.54        14.23479
472.98        14.21002
473.42        14.27236
473.87        14.38706
474.31        14.50874
474.75        14.57224
475.20        14.56688
475.64        14.51451
476.08        14.44752
476.52        14.41002
476.97        14.41524
477.41        14.44401
477.85         14.4909
478.29        14.54631
478.74        14.60774
479.18        14.67141
479.62        14.72067
480.06        14.76352
480.50        14.80805
480.95        14.72182
481.39        14.75385
481.83         14.8009
482.27        14.94457
482.72         15.0389
483.16        15.25869
483.60        15.37165
484.04        15.41647
484.48        15.44718
484.93         15.4861
485.37        15.49445
485.81        15.44268
486.25        15.64205
486.69        15.09484
487.14        15.37731
487.58         16.0863
488.02        15.83126
488.46        16.43584
488.90         16.5415
489.34        15.80342
489.79        15.89849
490.23        16.07175
490.67        16.35623
491.11        16.50301
491.55        16.52395
491.99        16.46042
492.43        16.52206
492.88        16.72043
493.32        16.86434
493.76        16.94814
494.20         17.0913
494.64         17.3004
495.08        17.52936
495.52        17.73626
495.96        17.90264
496.41        18.02276
496.85        18.00501
497.29         17.9084
497.73        18.12937
498.17        18.40036
498.61        18.46578
499.05        18.28283
499.49        18.23124
499.93        18.34405
500.37        18.47813
500.82        18.60661
501.26        18.71829
501.70        18.80194
502.14        18.88505
502.58        18.98304
503.02        19.09736
503.46        19.23107
503.90        19.38675
504.34        19.54095
504.78        19.65314
505.22        19.71367
505.66          19.728
506.10        19.72314
506.54        19.76616
506.98        19.87252
507.42         19.9846
507.86        20.05002
508.30        20.21172
508.74        20.08921
509.18        20.00435
509.62        19.90448
510.06        19.88774
510.50        19.97252
510.94         20.1365
511.38        20.32761
511.82        20.44787
512.26        20.47091
512.70        20.42413
513.14        20.35658
513.58        20.34484
514.02        20.40733
514.46        20.51812
514.90        20.63519
515.34        20.69205
515.78        20.67196
516.22        20.59907
516.66        20.51169
517.10         20.4676
517.54         20.4804
517.98        20.52878
518.42        20.58397
518.86        20.60045
519.30        20.56664
519.74        20.50175
520.18        20.42305
520.62        20.35458
521.06        20.30659
521.50        20.27217
521.93        20.25528
522.37        20.25698
522.81        20.27655
523.25        20.31122
523.69        20.34937
524.13        20.37241
524.57        20.37405
525.01        20.35556
525.45        20.32012
525.89         20.2763
526.32        20.22473
526.76        20.16776
527.20          20.105
527.64        20.03688
528.08        19.96533
528.52        19.89539
528.96        19.82744
529.40        19.76066
529.83        19.69546
530.27        19.63404
530.71        19.58347
531.15        19.55675
531.59         19.5537
532.03        19.56889
532.46         19.5819
532.90        19.56752
533.34        19.51969
533.78        19.44798
534.22          19.372
534.66        19.32206
535.09         19.3031
535.53        19.31123
535.97        19.32987
536.41        19.33785
536.85        19.32848
537.28        19.30878
537.72        19.28636
538.16        19.27508
538.60        19.27913
539.04        19.29691
539.47        19.31605
539.91        19.33765
540.35        19.35707
540.79        19.38207
541.22        19.42423
541.66        19.50476
542.10        19.62337
542.54         19.7708
542.97         19.9324
543.41        20.08756
543.85        20.22883
544.29        20.36564
544.72        20.48715
545.16        20.59233
545.60        20.68224
546.04        20.74921
546.47         20.8219
546.91        20.97891
547.35        21.21121
547.79        21.43255
548.22        21.60711
548.66        21.79565
549.10        21.99761
549.53        22.10781
549.97        22.10839
550.41        22.42699
550.84        22.39905
551.28        22.52271
551.72        22.60016
552.15        22.83357
552.59        22.93612
553.03         23.1332
553.46        23.31801
553.90        23.45026
554.34        23.51833
554.77        23.56081
555.21        23.60249
555.65        23.62095
556.08        23.64826
556.52        23.78561
556.96        24.00051
557.39        24.18509
557.83        24.31826
558.27        24.39783
558.70         24.4546
559.14        24.56758
559.57        24.72241
560.01        24.87289
560.45        24.99171
560.88        24.96961
561.32        24.96296
561.75        24.98891
562.19        25.08752
562.63        25.14334
563.06        25.15365
563.50        25.19953
563.93        25.27361
564.37        25.35264
564.80        25.42809
565.24        25.51187
565.68        25.60161
566.11        25.71042
566.55        25.83811
566.98        25.94123
567.42        26.04842
567.85        26.15676
568.29        26.26994
568.72        26.45574
569.16        26.74608
569.60        26.64339
570.03         26.9748
570.47        27.10516
570.90        27.24707
571.34        27.37498
571.77        27.49442
572.21        27.58571
572.64        27.67276
573.08        27.80335
573.51         27.9395
573.95         28.2812
574.38        28.12721
574.82        28.18471
575.25        28.11712
575.69        28.10074
576.12        28.09203
576.56        28.29818
576.99        28.51915
577.42        28.30973
577.86        28.30559
578.29        28.22565
578.73        28.31234
579.16        28.11875
579.60        28.20946
580.03         27.9875
580.47        28.08089
580.90        27.99942
581.33        27.85435
581.77         27.8217
582.20        27.53857
582.64        27.38287
583.07        27.28454
583.51        27.19306
583.94        27.18757
584.37        27.08054
584.81        26.93189
585.24         26.9375
585.68        26.88227
586.11        27.09026
586.54        26.47396
586.98        26.53239
587.41         26.8523
587.85        26.68089
588.28        26.42603
588.71        26.56334
589.15        26.31636
589.58        26.40828
590.01         26.3478
590.45        26.36682
590.88        26.41882
591.31        26.42375
591.75        26.37506
592.18        26.52035
592.61         26.8371
593.05        26.47106
593.48        26.63678
593.91        26.50722
594.35         26.6038
594.78         26.6762
595.21        26.79762
595.65        26.88597
596.08         26.9141
596.51        27.39783
596.94        27.47665
597.38        27.78562
597.81        28.02009
598.24        28.04217
598.68        28.23217
599.11        28.28578
599.54        28.78579
599.97        29.20938
600.41        29.28745
600.84        29.65473
601.27        30.01888
601.70        30.49596
602.14         30.9635
602.57        31.16578
603.00        31.16669
603.43        31.50395
603.87        32.08307
604.30        32.54657
604.73        32.86685
605.16         33.2775
605.60         33.7592
606.03        34.16161
606.46        34.42888
606.89         34.8588
607.32        35.17357
607.76        35.54529
608.19        35.91303
608.62        36.18595
609.05        36.36233
609.48        37.10303
609.92        37.30219
610.35        37.60412
610.78        38.00955
611.21        37.97063
611.64        38.46997
612.07        38.72466
612.50        38.99212
612.94        39.37408
613.37        39.92488
613.80        39.99964
614.23        40.62748
614.66        40.89357
615.09        41.10575
615.52        41.26696
615.96        41.38628
616.39        41.58923
616.82        41.48024
617.25        41.86705
617.68        41.95789
618.11        42.38315
618.54        42.83656
618.97        43.01172
619.40        42.96574
619.84         43.0667
620.27         43.3729
620.70        43.68419
621.13        43.95239
621.56        43.87905
621.99        44.31086
622.42        43.88716
622.85        44.32555
623.28        44.21629
623.71        44.76027
624.14        43.85777
624.57        44.36516
625.00         44.2697
625.43        44.31624
625.86         44.2063
626.29        43.94489
626.72        43.98026
627.15        43.80664
627.58         43.7513
628.01         43.6098
628.44        43.49179
628.87         43.0364
629.30        42.83135
629.73         42.7689
630.16        42.61258
630.59         42.3431
631.02          42.213
631.45        42.00801
631.88        41.73916
632.31        41.33304
632.74         40.9173
633.17          40.379
633.60        39.91109
634.03          39.492
634.46        39.10226
634.89        38.72217
635.32        38.32618
635.75        37.90697
636.18        37.47377
636.61        37.04007
637.04        36.62926
637.47        36.25619
637.89        35.89145
638.32        35.51202
638.75        35.19037
639.18        34.94329
639.61        34.41565
640.04          34.248
640.47         33.9631
640.90        33.74868
641.33        33.58794
641.76          33.456
642.18        33.30375
642.61        33.10776
643.04        32.89222
643.47        32.70882
643.90        32.62733
644.33        32.65933
644.76        32.82616
645.18        33.05202
645.61         33.1221
646.04         32.9827
646.47        33.04441
646.90        33.29141
647.33        33.47293
647.75         33.5817
648.18        33.78743
648.61        34.07638
649.04        34.34955
649.47        34.61058
649.89        34.89433
650.32        35.20537
650.75         35.6194
651.18        36.12733
651.61        36.56516
652.03        36.96189
652.46        37.59053
652.89        38.32628
653.32        38.67897
653.74         38.8101
654.17        38.91516
654.60        39.56216
655.03        40.78531
655.46        40.34052
655.88        41.37969
656.31         43.4182
656.74        43.20722
657.16        42.47494
657.59        41.83554
658.02        42.61443
658.45        43.88306
658.87        44.31684
659.30        44.47863
659.73        45.65166
660.15        45.26696
660.58        45.87145
661.01        45.82873
661.44        45.88651
661.86        45.92824
662.29        46.03459
662.72        46.45914
663.14        47.08458
663.57        47.31135
664.00        47.19069
664.42        47.32835
664.85        47.76823
665.27        48.13567
665.70        48.38444
666.13        48.64496
666.55        48.91274
666.98          49.147
667.41        49.34216
667.83        49.48254
668.26        49.56586
668.69        49.61108
669.11        49.65169
669.54        49.74269
669.96        49.89766
670.39        50.09977
670.82        50.31756
671.24        50.50415
671.67        50.63406
672.09        50.71976
672.52        50.79645
672.94        50.96542
673.37        50.84366
673.80        51.31667
674.22        51.24565
674.65        51.49101
675.07        51.75536
675.50        52.05471
675.92         52.3392
676.35        52.54117
676.77        52.65875
677.20        52.63979
677.62        52.59481
678.05        52.79911
678.47        53.17096
678.90        53.59402
679.32        53.48172
679.75        53.55743
680.17        53.64086
680.60        53.67437
681.02        53.50267
681.45        53.48034
681.87        53.57929
682.30        53.78651
682.72        54.05708
683.15        54.15646
683.57        54.13683
684.00        54.32183
684.42        54.67797
684.85        54.90823
685.27        54.99819
685.70         55.0479
686.12        55.11974
686.54        55.43885
686.97        55.92378
687.39        56.22633
687.82        56.27399
688.24        56.32105
688.66        56.36331
689.09        56.23205
689.51        56.00091
689.94        55.88711
690.36        55.92656
690.78        56.06293
691.21        56.26512
691.63        56.48167
692.06        56.68657
692.48        56.90664
692.90        57.11511
693.33        57.25984
693.75        57.33185
694.17         57.3281
694.60        57.30892
695.02        57.34749
695.44        57.45301
695.87        57.74386
696.29        58.12276
696.71        58.06658
697.14        57.70872
697.56        57.84272
697.98        58.41816
698.41        58.70538
698.83        58.68042
699.25        58.80147
699.68        59.04661
700.10        59.18467
700.52        59.19192
700.94        59.16135
701.37        59.11229
701.79        59.08014
702.21        59.07696
702.64        59.10118
703.06         59.1649
703.48        59.30029
703.90        59.50538
704.33        59.77253
704.75        60.03579
705.17        60.24675
705.59        60.36679
706.01        60.41938
706.44        60.42156
706.86        60.41404
707.28        60.40408
707.70        60.39166
708.12        60.43785
708.55        60.57077
708.97        60.72629
709.39        61.25928
709.81        61.16131
710.23        61.38587
710.66        61.61979
711.08        61.78474
711.50          61.861
711.92        61.93385
712.34        62.02264
712.76         62.0932
713.19        62.13524
713.61        62.17181
714.03        62.19067
714.45        62.20538
714.87        62.22761
715.29        62.26786
715.71        62.32993
716.13        62.40966
716.56        62.49009
716.98        62.62151
717.40         62.7745
717.82        62.93216
718.24         63.0703
718.66        63.16928
719.08        63.21497
719.50        63.18349
719.92        63.10637
720.34        63.06598
720.76         63.0801
721.19        63.11278
721.61        63.16283
722.03        63.20895
722.45        63.24439
722.87        63.27836
723.29        63.31617
723.71        63.36335
724.13        63.41724
724.55        63.47172
724.97        63.52935
725.39        63.56922
725.81        63.58885
726.23        63.67365
726.65        63.80252
727.07        63.76765
727.49        63.64516
727.91        63.82751
728.33        64.27176
728.75        64.53395
729.17        64.57079
729.59        64.65157
730.01        64.75021
730.43        64.67581
730.85        64.45744
731.27        64.23063
731.69        64.08807
732.10        64.11156
732.52        64.32401
732.94        64.71713
733.36         65.1941
733.78        65.54147
734.20        65.68578
734.62        65.72033
735.04        65.69798
735.46        65.60756
735.88        65.53918
736.30        65.69292
736.72        65.98505
737.13        66.14546
737.55        66.06784
737.97        65.74813
738.39        65.34262
738.81         65.2102
739.23        65.39577
739.65        65.70618
740.06        65.98509
740.48        66.14197
740.90        66.12379
741.32        65.95425
741.74        65.73605
742.16        65.68045
742.57        65.84923
742.99        66.09251
743.41        66.34985
743.83        66.67212
744.25        66.95448
744.67        66.87896
745.08         66.5532
745.50        66.46346
745.92        66.66866
746.34        66.89645
746.75        67.09606
747.17        67.27447
747.59        67.39971
748.01         67.5449
748.42        67.67864
748.84        67.55743
749.26        67.26273
749.68         67.1959
750.09        67.29374
750.51        67.32234
750.93        67.25429
751.35         67.2888
751.76        67.39449
752.18        67.42548
752.60        67.36301
753.01        67.23663
753.43        67.11253
753.85        67.14217
754.27         67.2944
754.68        67.68744
755.10         67.5499
755.52        67.69764
755.93        67.86854
756.35        67.88403
756.77        67.86782
757.18         67.9941
757.60         68.2801
758.02        69.02654
758.43        69.83546
758.85        69.32645
759.26        67.86414
759.68        67.22649
760.10        67.82198
760.51        68.37917
760.93        68.54642
761.34        68.74902
761.76        68.83572
762.18         68.7987
762.59        68.68607
763.01        68.30422
763.42        67.93673
763.84        67.76208
764.26        67.93134
764.67        68.02719
765.09        67.96582
765.50        68.97672
765.92        69.08974
766.33        69.05698
766.75        68.87585
767.16        68.75461
767.58         68.8767
768.00        68.78012
768.41        68.55975
768.83        68.78423
769.24        69.27112
769.66        69.24988
770.07        68.77817
770.49        68.45794
770.90        68.43033
771.32        68.76485
771.73        69.32262
772.15        69.51477
772.56        69.28484
772.97        69.19301
773.39        68.88319
773.80        68.93506
774.22        69.19801
774.63        69.60133
775.05        69.96261
775.46        70.15898
775.88         70.1134
776.29        69.88223
776.70        69.56801
777.12         69.3875
777.53        69.39694
777.95        69.49731
778.36        69.67908
778.77        69.87812
779.19        70.05965
779.60        70.40277
780.02        70.74825
780.43        70.66698
780.84        70.27108
781.26        70.01151
781.67        70.03268
782.09        70.53181
782.50        71.26447
782.91        71.27457
783.33        70.60391
783.74        70.28889
784.15        70.37917
784.57         70.2407
784.98        69.91301
785.39         69.8233
785.81        69.99921
786.22        70.36183
786.63        70.83861
787.04        71.19735
787.46        71.44028
787.87         71.8346
788.28        72.32162
788.70        72.53234
789.11        72.43865
789.52        72.34037
789.93        72.24659
790.35        71.90429
790.76        71.43851
791.17        71.29801
791.58        71.53179
792.00         71.7155
792.41        71.82098
792.82        72.34029
793.23        73.06406
793.65         72.8604
794.06        71.98586
794.47        72.01181
794.88         72.8011
795.29        72.96719
795.71        72.45152
796.12        72.08525
796.53        72.01117
796.94        72.08141
797.35        72.32504
797.76        72.78392
798.18        73.28892
798.59        73.61015
799.00        73.66267
799.41        73.49469
799.82        73.22296
800.23        73.06736
800.64        73.09757
801.06        73.22353
801.47        73.40849
801.88         73.5398
802.29        73.57361
802.70         73.4586
803.11         73.2643
803.52        73.27329
803.93        73.45755
804.34        73.41905
804.75        73.12415
805.17        72.98524
805.58         73.0742
805.99        72.83409
806.40        72.46304
806.81        73.12003
807.22        74.49007
807.63        74.76942
808.04         73.9933
808.45        73.77249
808.86        74.19566
809.27         74.2905
809.68        74.01602
810.09        73.82719
810.50        73.75511
810.91         73.6712
811.32        73.63319
811.73        73.72785
812.14        73.95471
812.55        74.31644
812.96         74.6698
813.37        74.73429
813.78        74.46146
814.19        73.96111
814.60        73.43641
815.01        73.17678
815.42        73.24629
815.83        73.55704
816.24        74.00787
816.65        74.38811
817.05        74.59281
817.46        74.63708
817.87        74.56387
818.28        74.38101
818.69        74.12213
819.10        73.79811
819.51        73.47413
819.92        73.28736
820.33        73.28332
820.74        73.41033
821.14        73.67167
821.55        74.07236
821.96        74.56989
822.37        75.16426
822.78        75.65532
823.19         75.6907
823.60        75.19599
824.00        74.27226
824.41         73.2391
824.82        72.63171
825.23        72.57902
825.64        72.96478
826.04        73.53823
826.45        73.75555
826.86         73.4974
827.27        72.94022
827.68        72.34379
828.08        72.13524
828.49        72.38321
828.90        72.97492
829.31        73.74966
829.72        74.44147
830.12        74.96843
830.53        75.31812
830.94        75.58129
831.35        75.86517
831.75        76.21429
832.16        76.49931
832.57        76.66036
832.97        76.57675
833.38        76.24905
833.79         75.7998
834.20        75.32668
834.60        74.93658
835.01        74.70067
835.42        74.55532
835.82        74.59576
836.23         74.9015
836.64        75.47363
837.04        76.31224
837.45        77.05857
837.86        77.27547
838.26        76.86483
838.67        75.96648
839.08        74.94081
839.48        74.33438
839.89        74.32462
840.29        74.74301
840.70        75.36254
841.11        75.82359
841.51        76.02697
841.92        76.04218
842.33        75.97569
842.73        75.98658
843.14        76.07426
843.54        76.20749
843.95         76.3257
844.35        76.41155
844.76        76.42707
845.17        76.37451
845.57        76.30137
845.98        76.24082
846.38          76.219
846.79        76.22491
847.19        76.16125
847.60          75.816
848.00        75.20687
848.41        74.44318
848.81        73.78283
849.22        73.60065
849.62        74.00213
850.03        74.81851
850.43        75.88843
850.84        76.70493
851.24        77.14225
851.65        77.21079
852.05        77.01191
852.46         76.6792
852.86        76.28237
853.27        75.87272
853.67        75.39748
854.07        74.96487
854.48        74.53431
854.88        74.12992
855.29        73.74264
855.69        73.56953
856.10         73.5575
856.50        73.76739
856.90        73.99414
857.31        73.96556
857.71        73.68012
858.12        73.17655
858.52        72.68545
858.92        72.54115
859.33        72.80888
859.73        73.42665
860.13        74.18363
860.54        74.74963
860.94        75.05981
861.34        75.10441
861.75        74.94125
862.15        74.74128
862.55        74.52922
862.96         74.2991
863.36        73.92567
863.76        73.23644
864.17        72.27874
864.57        71.18968
864.97        70.25394
865.38        69.83803
865.78        70.04518
866.18         70.7425
866.58        71.74767
866.99        72.63995
867.39        73.26136
867.79        73.66216
868.19        73.79778
868.60        73.62632
869.00        73.20155
869.40        72.51953
869.80        71.88962
870.21        71.85028
870.61        72.54379
871.01        73.76789
871.41        75.06435
871.81        75.69194
872.22        75.45576
872.62        74.56866
873.02        73.37827
873.42        72.47826
873.82        72.08978
874.22        72.09626
874.63        72.28958
875.03        72.34348
875.43        72.18106
875.83        71.90421
876.23        71.78568
876.63        72.25135
877.03        73.33543
877.44        74.80048
877.84        76.21307
878.24         76.7883
878.64        76.37151
879.04        75.26677
879.44        73.92805
879.84        73.02065
880.24        72.72102
880.64        72.81541
881.04        73.19666
881.44        73.67564
881.84        74.15031
882.24        74.71563
882.65        75.16185
883.05        75.25273
883.45        74.90128
883.85        74.19193
884.25        73.47457
884.65        73.30726
885.05        73.78479
885.45        74.70982
885.85        75.78578
886.25        76.49033
886.65        76.63362
887.05        76.38638
887.45        75.80385
887.85        75.00085
888.25        74.12682
888.65        73.20732
889.04        72.44421
889.44        72.18478
889.84        72.41315
890.24        73.07631
890.64        73.96013
891.04         74.5773
891.44        74.73831
891.84        74.57159
892.24        74.27456
892.64         74.1451
893.04        74.25197
893.44        74.48112
893.83        74.80554
894.23        75.10241
894.63        75.34875
895.03        75.59803
895.43        75.79108
895.83        75.82796
896.23        75.70001
896.63         75.4022
897.02        75.07629
897.42        75.02508
897.82        75.28401
898.22        75.80879
898.62        76.32457
899.01        76.37944
899.41        75.87671
899.81        74.96603
900.21        74.04689
900.61        73.73308
901.00        74.14127
901.40        75.08461
901.80        76.11176
902.20        76.48119
902.59        76.01005
902.99        74.93327
903.39        73.70704
903.79        73.01366
904.18        73.01083
904.58        73.51167
904.98        74.14716
905.38         74.3557
905.77        73.98482
906.17        73.22905
906.57        72.42223
906.96        72.10773
907.36          72.383
907.76        73.10304
908.15        73.92117
908.55         74.1404
908.95        73.67152
909.34        72.73546
909.74        71.85172
910.14        71.67683
910.53        72.38335
910.93         73.6881
911.33        75.26792
911.72        76.62981
912.12        77.49528
912.52        78.00726
912.91        78.24186
913.31        78.31515
913.70         78.2998
914.10        78.11539
914.49        77.75559
914.89        77.21613
915.29        76.55257
915.68        75.83921
916.08        75.24883
916.47        74.88976
916.87        74.83493
917.26        75.00019
917.66        75.33334
918.05        75.76519
918.45        76.18588
918.84        76.65578
919.24        76.97697
919.64        76.98028
920.03         76.6537
920.42        76.02557
920.82        75.37048
921.21        75.01813
921.61        75.05447
922.00        75.40334
922.40        75.86407
922.79        76.17133
923.19        76.20284
923.58        76.07137
923.98        75.86215
924.37        75.71901
924.77        75.68109
925.16          75.695
925.55        75.74181
925.95        75.80209
926.34        75.88264
926.74        75.99173
927.13        76.09297
927.52        76.08234
927.92        75.95524
928.31        75.71354
928.70        75.46747
929.10        75.39069
929.49        75.50873
929.89        75.72412
930.28        75.92315
930.67        75.82846
931.07        75.39104
931.46        74.76547
931.85        74.06499
932.24        73.44378
932.64        72.99422
933.03        72.70737
933.42        72.68765
933.82        73.08768
934.21        73.91164
934.60        75.00999
934.99        76.21816
935.39        77.24849
935.78        78.02003
936.17        78.54377
936.56        78.57275
936.96        77.80132
937.35        76.31277
937.74        74.32696
938.13         72.4801
938.53        71.55659
938.92        71.64298
939.31        72.60586
939.70        73.96393
940.09        74.74796
940.49        74.63256
940.88        73.89957
941.27        73.04259
941.66        72.82732
942.05        73.42371
942.44        74.60146
942.84        75.88631
943.23         76.5227
943.62        76.21838
944.01         75.2229
944.40        74.09704
944.79         73.6475
945.18         74.0513
945.57        75.09479
945.97         76.1832
946.36        76.53915
946.75        75.85466
947.14        74.42683
947.53        72.93551
947.92        72.38855
948.31        73.01714
948.70        74.54628
949.09        76.31748
949.48        77.14066
949.87        76.67304
950.26        75.30375
950.65        73.77133
951.04         73.1053
951.43        73.53235
951.82        74.76183
952.21        76.22421
952.60        76.88531
952.99        76.42865
953.38        75.19907
953.77        73.85657
954.16        73.25993
954.55        73.58289
954.94        74.63939
955.33        75.85323
955.72        76.03941
956.11        74.86352
956.50        72.79498
956.89        70.79208
957.28        70.06647
957.66        70.87651
958.05         72.8103
958.44        75.14852
958.83        76.40638
959.22        76.07108
959.61        74.65128
960.00        72.93985
960.39        71.95464
960.78         71.8886
961.16        72.43967
961.55        73.19429
961.94        73.45316
962.33        72.99482
962.72         72.2122
963.11        71.36469
963.49        70.75065
963.88        70.46005
964.27        70.30843
964.66        70.46723
965.04        71.30514
965.43        72.72601
965.82        74.66998
966.21        76.46354
966.60        76.89968
966.98        75.78442
967.37        73.61353
967.76        71.27854
968.15        69.98042
968.53         69.9418
968.92        70.75931
969.31        72.12979
969.69        73.46568
970.08        74.38976
970.47         75.1973
970.86        75.59171
971.24        75.09346
971.63        73.72034
972.02        71.65783
972.40        69.78901
972.79         69.5697
973.17         71.2056
973.56        74.15839
973.95        77.52795
974.33        79.54205
974.72        79.53305
975.11        78.07338
975.49        75.93187
975.88        74.61794
976.26        74.52091
976.65        75.10654
977.04        76.04443
977.42        76.73775
977.81        76.80256
978.19        76.63818
978.58          76.257
978.96        75.51008
979.35        74.53143
979.74        73.35231
980.12        72.48746
980.51        72.80389
980.89        74.51546
981.28         77.1635
981.66        80.26502
982.05        82.68544
982.43        84.11541
982.82        84.73345
983.20        84.43655
983.59        83.03663
983.97         80.7849
984.35         77.8318
984.74        75.23797
985.12        74.43034
985.51        75.55321
985.89        78.35142
986.28        81.55103
986.66        83.31966
987.04        82.93763
987.43        80.90525
987.81        78.17157
988.20        76.72785
988.58        77.09786
988.96        78.76368
989.35        80.49106
989.73        80.53019
990.12        78.41088
990.50        74.85664
990.88        71.05168
991.27         68.8685
991.65        68.75994
992.03        70.19233
992.42        72.30202
992.80        74.06419
993.18        75.01553
993.56        75.45374
993.95         75.5546
994.33        75.81508
994.71        76.29104
995.10         76.8135
995.48        77.17066
995.86        77.19122
996.24        76.88539
996.63        76.27963
997.01        75.79739
997.39         75.9495
997.77        76.81639
998.15        78.19198
998.54        79.55401
998.92        80.12334
999.30        79.71299
999.68         78.5888
1000.06         77.1468
1000.45        76.11423
1000.83        75.85663
1001.21        76.12588
1001.59        76.89679
1001.97        78.09093
1002.35        79.54917
1002.73        81.28863
1003.12        82.79246
1003.50        83.16219
1003.88        82.30601
1004.26        80.46651
1004.64        78.38155
1005.02        77.36903
1005.40        77.75569
1005.78        79.10123
1006.16        80.75735
1006.54        81.81184
1006.92        82.03084
1007.30        81.66679
1007.69        80.90363
1008.07        80.28916
1008.45        80.01501
1008.83        79.93819
1009.21        79.92921
1009.59        79.80299
1009.97        79.49509
1010.35        79.07166
1010.73        78.70528
1011.11        78.63687
1011.49        78.87077
1011.86        79.34158
1012.24        79.56318
1012.62        79.01946
1013.00        77.57262
1013.38        75.31516
1013.76        72.68217
1014.14        70.67303
1014.52        69.76575
1014.90        69.84624
1015.28        70.40074
1015.66        70.50631
1016.04        69.89542
1016.41        68.82709
1016.79        67.81911
1017.17        67.84496
1017.55        69.01275
1017.93         70.7814
1018.31        72.47584
1018.69        73.65031
1019.06         74.4528
1019.44        74.84357
1019.82        75.38452
1020.20         77.1198
1020.58        79.99548
1020.95        83.05422
1021.33        84.92663
1021.71        84.39749
1022.09        81.35294
1022.46        75.58161
1022.84        68.11324
1023.22        62.71896
1023.60        62.03731
1023.97        64.93557
1024.35        69.06065
1024.73        72.02815
