SpectraSmart Spectrum 2.9.0.0
--------- Device Information -----------
Spectrum Name :  反射率_0
Saving Time :  2024/04/30 01:05:57
Spectro-Module Model Name : SE2030-DUVN
Spectro-Module Serial Number : OS361AC55029948
Wavelength Start : 200
Wavelength End : 1025
Wavelength Unit : Wavelength(nm)
Spectrum Unit : Reflectance(%)
-----------Spectrum Setting ------------
Integration Time : 20ms
Average : 10
Boxcar : 0
Background removal :  enabled
linearity correction :  enabled
SC :  disabled
Intensity correction :  disabled
DWT denoise :  enabled
savitzky-golay :  disabled
FFT :  disabled
Running average :  disabled
Kalman :  disabled
High pass :  disabled
---------------BEGIN--------------------
Wavelength(nm)             Reflectance(%)
200.29               0
200.75        65.23261
201.21        57.46983
201.67        49.54648
202.13        41.97631
202.58        35.00148
203.04        28.60832
203.50        24.63228
203.96        26.57973
204.42        35.00477
204.88        48.68396
205.34        60.21823
205.80        59.37217
206.26        48.70208
206.72        35.50595
207.18        25.16148
207.64        21.01216
208.10        22.09263
208.55        26.20899
209.01        32.63758
209.47        39.37516
209.93        44.25306
210.39        47.74986
210.85        49.05206
211.31        47.30789
211.77        42.37336
212.23        33.00968
212.69        20.51308
213.14        14.86118
213.60        20.90508
214.06         33.2033
214.52        44.48975
214.98        50.21189
215.44        51.39893
215.90        50.13721
216.36        48.34473
216.81        49.52166
217.27        55.72523
217.73        66.91153
218.19         83.1662
218.65        98.60943
219.11        106.1602
219.57        105.7781
220.02        101.6173
220.48        98.24062
220.94        95.52917
221.40        92.34599
221.86          87.116
222.32        79.04589
222.77        70.99645
223.23        65.88691
223.69        63.50529
224.15        62.93314
224.61        63.53019
225.06        65.13512
225.52        67.62682
225.98        69.88472
226.44        71.18183
226.90        71.73808
227.36        71.90073
227.81        72.04381
228.27        72.39307
228.73        72.70924
229.19        73.12309
229.65        73.76941
230.10        74.44282
230.56        75.26639
231.02        75.79115
231.48        75.67796
231.93         74.9062
232.39        73.65061
232.85        72.39251
233.31        72.15662
233.77        73.21175
234.22        75.46149
234.68        77.80293
235.14        78.31037
235.60        76.59299
236.05        73.29401
236.51        70.11919
236.97        69.23867
237.43        71.17758
237.88        75.98786
238.34        82.48975
238.80        87.14628
239.26        87.39084
239.71        84.06185
240.17        79.15666
240.63        75.66358
241.08        74.38037
241.54        74.48183
242.00        76.49062
242.46        80.44429
242.91        85.47402
243.37        90.65054
243.83        94.42611
244.28        96.18451
244.74        96.02673
245.20        92.88591
245.66        88.15019
246.11        85.91087
246.57        88.06481
247.03        94.99575
247.48        101.5913
247.94        97.09219
248.40         83.8339
248.85         69.2523
249.31        59.88908
249.77        58.11642
250.22        63.42997
250.68        76.66927
251.14         98.0945
251.59        112.1016
252.05        106.1032
252.51        91.77433
252.96        80.17638
253.42        75.57547
253.88        75.76722
254.33        78.42114
254.79        82.14437
255.25        83.54096
255.70        81.93893
256.16        79.84856
256.62        78.26009
257.07        77.65607
257.53        78.25925
257.99        79.35307
258.44        80.14936
258.90        80.37511
259.35        79.62043
259.81        78.78313
260.27        78.03246
260.72        77.54942
261.18        77.55065
261.63        77.49418
262.09        77.41661
262.55        76.92152
263.00        75.93099
263.46        74.90115
263.91        73.71203
264.37        72.65264
264.83        71.63343
265.28        70.55292
265.74        69.63248
266.19        68.90845
266.65        68.48338
267.11        68.25459
267.56        68.05621
268.02        67.69482
268.47        67.06905
268.93        66.24105
269.38         65.2715
269.84        64.38773
270.30        63.65013
270.75        63.00419
271.21        62.36806
271.66        61.54103
272.12        60.50669
272.57         59.2765
273.03        58.03555
273.48        56.96411
273.94        56.18107
274.39        55.55868
274.85        54.99473
275.31        54.20233
275.76        53.12621
276.22        51.94093
276.67        50.76611
277.13        49.92983
277.58        49.39785
278.04        49.10537
278.49        48.83551
278.95        48.43905
279.40        47.80075
279.86        47.07496
280.31        46.25112
280.77        45.47864
281.22        44.74531
281.68        44.07704
282.13        43.46316
282.59        42.98928
283.04         42.6064
283.50        42.30523
283.95        41.99011
284.41        41.56147
284.86        40.97939
285.32        40.33821
285.77        39.64532
286.22        39.00817
286.68        38.47165
287.13        37.97384
287.59        37.56343
288.04        37.23714
288.50        37.01488
288.95        36.85152
289.41        36.72778
289.86        36.54702
290.32        36.31871
290.77        36.05362
291.22        35.77458
291.68        35.52042
292.13        35.29313
292.59        35.10694
293.04        35.01053
293.50        35.11718
293.95         35.4231
294.40        35.91515
294.86        36.44792
295.31        36.80719
295.77         36.9484
296.22          36.916
296.68        36.89646
297.13        37.15921
297.58        37.75792
298.04        38.56828
298.49        39.37867
298.95        39.86578
299.40        39.95633
299.85        39.77561
300.31        39.50381
300.76        39.34858
301.21        39.40667
301.67        39.61605
302.12        39.89035
302.58        40.24532
303.03        40.63241
303.48        40.94413
303.94        41.14083
304.39        41.75705
304.84        41.75523
305.30        41.96687
305.75        42.06723
306.20        42.11394
306.66        42.12799
307.11        42.09708
307.57        42.06718
308.02        42.01331
308.47         41.9557
308.93        41.90837
309.38        41.85974
309.83        41.84438
310.29        41.86605
310.74        41.90873
311.19        41.93641
311.65         41.8864
312.10        41.74071
312.55        41.51759
313.00        41.28049
313.46        41.13103
313.91        41.07135
314.36        41.06775
314.82        41.04306
315.27        40.89447
315.72         40.5904
316.18        40.18701
316.63        39.72517
317.08        39.27874
317.53        38.88874
317.99        38.54852
318.44        38.27989
318.89        38.12059
319.35         38.0633
319.80        38.08802
320.25        38.15049
320.70         38.1765
321.16        38.12455
321.61        38.02353
322.06         37.8505
322.51        37.59351
322.97        37.26323
323.42        36.86929
323.87        36.47542
324.32        36.18675
324.78        36.01428
325.23        35.95794
325.68        35.92575
326.13        35.76085
326.59        35.42236
327.04        34.96928
327.49        34.50732
327.94        34.22546
328.39        34.16064
328.85        34.23403
329.30        34.34866
329.75        34.27955
330.20        33.96686
330.66        33.48569
331.11        32.93947
331.56        32.46193
332.01        32.10748
332.46        31.83646
332.92        31.64366
333.37        31.56028
333.82        31.56512
334.27        31.65718
334.72        31.77596
335.17        31.81216
335.63        31.73128
336.08        31.56628
336.53        31.34513
336.98        31.14814
337.43        31.00483
337.88        30.88657
338.34        30.79976
338.79        30.77423
339.24        30.79891
339.69        30.88279
340.14        30.95777
340.59        30.90524
341.05        30.71217
341.50        30.41284
341.95        30.12026
342.40         30.0232
342.85        30.14978
343.30         30.4223
343.75         30.7158
344.20         30.8304
344.66        30.72302
345.11        30.46381
345.56        30.11159
346.01        29.75775
346.46        29.45936
346.91         29.1963
347.36        29.02949
347.81        29.05287
348.26        29.25984
348.72        29.60946
349.17        29.98461
349.62        30.17518
350.07        30.12076
350.52        29.88444
350.97        29.54411
351.42        29.22318
351.87        28.97569
352.32        28.77995
352.77        28.65501
353.22        28.63182
353.67         28.7026
354.13        28.84711
354.58        29.02975
355.03        29.18572
355.48         29.2805
355.93        29.32132
356.38        29.26624
356.83        29.06051
357.28        28.71652
357.73        28.26433
358.18        27.81009
358.63        27.52108
359.08        27.43098
359.53        27.48864
359.98        27.60217
360.43        27.61837
360.88        27.49169
361.33        27.26877
361.78        26.98867
362.23        26.71426
362.68        26.47356
363.13        26.24815
363.58        26.04406
364.03        25.87495
364.48        25.73938
364.93        25.63585
365.38        25.55712
365.83        25.48425
366.28          25.411
366.73        25.34514
367.18        25.26769
367.63        25.15199
368.08        24.99555
368.53        24.79776
368.98        24.60989
369.43        24.51731
369.88        24.53183
370.33        24.62901
370.78        24.72003
371.23        24.65882
371.68        24.41516
372.13        24.03446
372.58        23.62075
373.03        23.34263
373.48        23.24044
373.93        23.25985
374.38        23.32032
374.83        23.28596
375.28        23.12485
375.72        22.89062
376.17        22.64616
376.62         22.4355
377.07        22.27644
377.52        22.13638
377.97        22.04908
378.42        22.07609
378.87        22.21063
379.32        22.42887
379.77         22.6226
380.22        22.62992
380.67        22.42454
381.11         22.0511
381.56         21.6321
382.01        21.37436
382.46         21.3351
382.91        21.45822
383.36        21.63076
383.81        21.67655
384.26        21.55667
384.71        21.32855
385.15        21.08054
385.60        20.97652
386.05        21.03304
386.50        21.18219
386.95        21.33275
387.40        21.34919
387.85        21.20549
388.29        20.95025
388.74        20.67017
389.19        20.41191
389.64        20.19689
390.09        20.00064
390.54        19.85198
390.98         19.7992
391.43        19.84841
391.88        19.97894
392.33        20.10885
392.78        20.14007
393.23        20.06079
393.67         19.8549
394.12        19.61188
394.57        19.59332
395.02        19.53274
395.47        19.61873
395.91        19.70972
396.36        19.69996
396.81        19.57378
397.26        19.38196
397.71        19.17491
398.15        19.01418
398.60        18.94344
399.05        18.89393
399.50        18.86253
399.95        18.93065
400.39        18.99183
400.84        19.04202
401.29        19.02829
401.74        18.97388
402.18        18.87575
402.63        18.69304
403.08        18.49862
403.53        18.41956
403.97        18.47402
404.42        18.62767
404.87        18.78652
405.32        18.79713
405.76        18.62399
406.21        18.32443
406.66        18.00507
407.11        17.83307
407.55        17.85245
408.00        18.01237
408.45        18.21181
408.90        18.26879
409.34        18.13501
409.79        17.87154
410.24        17.60244
410.68        17.51106
411.13        17.63637
411.58        17.91693
412.03        18.23272
412.47        18.38165
412.92        18.29658
413.37        18.05578
413.81         17.7642
414.26         17.6037
414.71        17.60028
415.15        17.69858
415.60        17.82236
416.05        17.86707
416.49        17.80091
416.94        17.67163
417.39        17.50648
417.83        17.33971
418.28        17.19664
418.73        17.05956
419.17        16.96469
419.62        16.97197
420.07        17.08154
420.51        17.27288
420.96        17.47076
421.41        17.54575
421.85        17.46836
422.30        17.29418
422.74        17.09159
423.19         16.9928
423.64        17.01565
424.08        17.12726
424.53        17.25961
424.98        17.32376
425.42        17.29338
425.87        17.18981
426.31        17.04351
426.76        16.92639
427.21        16.80232
427.65        16.68284
428.10        16.57447
428.54        16.46541
428.99        16.37068
429.44        16.40586
429.88        16.50263
430.33        16.34093
430.77        16.03219
431.22         16.1146
431.66        16.55022
432.11        16.79021
432.56        16.75998
433.00        16.75084
433.45        16.75836
433.89        16.57602
434.34        16.30842
434.78        16.24538
435.23        16.34868
435.67        16.32775
436.12        16.17848
436.57        16.06331
437.01        16.02131
437.46        16.04307
437.90        16.12955
438.35        16.27412
438.79        16.42173
439.24        16.45674
439.68         16.3842
440.13        16.30465
440.57        16.22256
441.02        16.15425
441.46        16.11779
441.91         15.9946
442.35        15.84159
442.80        16.08428
443.24        16.56894
443.69        16.50528
444.13        15.96788
444.58         15.7488
445.02        15.85763
445.47        15.87541
445.91        15.78151
446.36        15.75136
446.80        15.77872
447.24        15.82532
447.69        15.87871
448.13        15.91716
448.58        15.93665
449.02        15.94341
449.47        15.95402
449.91        15.98482
450.36        16.03917
450.80        16.10487
451.25        16.16426
451.69        16.18777
452.13        16.16673
452.58        16.11946
453.02        16.05212
453.47        15.97316
453.91        15.88688
454.36        15.84036
454.80        15.76685
455.24        15.74093
455.69        15.74529
456.13        15.77209
456.58        15.81557
457.02        15.85055
457.46         15.8725
457.91        15.88276
458.35        15.87894
458.79        15.86653
459.24        15.85778
459.68        15.85965
460.13        15.87387
460.57         15.8309
461.01        15.85341
461.46        15.78801
461.90        15.71188
462.34        15.83375
462.79         16.0851
463.23        16.11209
463.68         15.9284
464.12        15.85391
464.56        15.89743
465.01        15.89755
465.45        15.83669
465.89         15.7583
466.34        15.69317
466.78        15.70643
467.22         15.8173
467.67        15.80424
468.11        15.67368
468.55        15.51029
468.99        15.37983
469.44        15.34234
469.88        15.41178
470.32        15.57258
470.77        15.75178
471.21        15.84516
471.65        15.81956
472.10        15.71418
472.54        15.58499
472.98        15.53664
473.42        15.59211
473.87        15.71415
474.31        15.85058
474.75        15.92549
475.20        15.92418
475.64        15.86957
476.08        15.79591
476.52        15.75003
476.97        15.74691
477.41        15.76794
477.85        15.80609
478.29        15.84974
478.74        15.89782
479.18        15.94571
479.62        15.98492
480.06        16.03962
480.50        16.11676
480.95        16.06281
481.39        16.13253
481.83        16.18456
482.27        16.30649
482.72        16.35781
483.16        16.53564
483.60        16.60426
484.04        16.60762
484.48        16.57556
484.93        16.59125
485.37        16.64769
485.81        16.67896
486.25        17.07972
486.69         16.7175
487.14        16.74729
487.58        17.34435
488.02        17.13125
488.46        17.43842
488.90        17.62722
489.34        17.21125
489.79        17.11631
490.23        17.12274
490.67        17.32215
491.11        17.61236
491.55        17.66932
491.99        17.54026
492.43        17.61633
492.88        17.90711
493.32        18.15345
493.76        18.31148
494.20         18.4644
494.64        18.60733
495.08        18.70661
495.52        18.77024
495.96        18.85039
496.41        18.96001
496.85        19.01881
497.29        19.02631
497.73        19.22878
498.17         19.3562
498.61        19.34476
499.05        19.17797
499.49        19.13535
499.93        19.25629
500.37        19.47059
500.82        19.71889
501.26        19.89258
501.70        19.96673
502.14        20.00242
502.58        20.04247
503.02        20.13058
503.46        20.28135
503.90        20.47673
504.34        20.68318
504.78        20.84569
505.22        20.94446
505.66        20.99103
506.10        20.99431
506.54        20.99337
506.98        21.00407
507.42        20.97685
507.86        20.90004
508.30        20.99186
508.74        20.87376
509.18        20.86242
509.62        20.86229
510.06        20.90882
510.50        21.00168
510.94        21.13313
511.38        21.27872
511.82        21.38668
512.26        21.44238
512.70        21.45774
513.14        21.45088
513.58        21.45257
514.02        21.47397
514.46        21.50695
514.90         21.5477
515.34        21.59023
515.78        21.63112
516.22        21.67258
516.66        21.71379
517.10        21.75216
517.54        21.78409
517.98        21.80462
518.42        21.80805
518.86        21.78776
519.30        21.74303
519.74        21.67891
520.18         21.6001
520.62        21.51115
521.06        21.42018
521.50        21.33595
521.93        21.26934
522.37        21.22997
522.81        21.22279
523.25        21.23803
523.69        21.27822
524.13        21.34788
524.57        21.43727
525.01         21.5371
525.45        21.60814
525.89        21.58958
526.32        21.47053
526.76        21.28006
527.20        21.06635
527.64        20.90535
528.08         20.8178
528.52          20.784
528.96        20.78153
529.40        20.77169
529.83        20.73964
530.27         20.7011
530.71         20.6563
531.15        20.60688
531.59        20.55419
532.03        20.49262
532.46        20.42706
532.90        20.37517
533.34        20.33953
533.78         20.3209
534.22        20.30719
534.66        20.27794
535.09        20.22844
535.53        20.16975
535.97        20.12065
536.41        20.11729
536.85        20.16361
537.28        20.24491
537.72        20.32829
538.16        20.36459
538.60        20.34344
539.04        20.28546
539.47        20.21162
539.91        20.17345
540.35        20.18029
540.79        20.22507
541.22        20.30097
541.66        20.40094
542.10         20.5154
542.54         20.6436
542.97        20.78386
543.41        20.93377
543.85         21.0899
544.29        21.25686
544.72        21.40504
545.16        21.50643
545.60        21.55803
546.04        21.55932
546.47        21.57047
546.91        21.72059
547.35        22.00816
547.79        22.32811
548.22         22.6001
548.66        22.82403
549.10        22.98676
549.53        22.99623
549.97        22.87926
550.41         23.1515
550.84        23.14444
551.28        23.35065
551.72        23.51979
552.15        23.79128
552.59        23.85222
553.03        23.96244
553.46        24.05469
553.90        24.15359
554.34        24.26115
554.77        24.39315
555.21        24.53679
555.65         24.6086
556.08        24.62526
556.52         24.7112
556.96        24.86128
557.39        25.00683
557.83        25.13664
558.27        25.23582
558.70        25.31757
559.14        25.42697
559.57         25.5472
560.01        25.66366
560.45        25.75568
560.88        25.70364
561.32          25.673
561.75        25.68752
562.19        25.79244
562.63        25.87045
563.06        25.91513
563.50        26.01338
563.93        26.13011
564.37        26.23424
564.80        26.30841
565.24        26.37273
565.68        26.42745
566.11        26.49788
566.55         26.5914
566.98        26.65141
567.42        26.72012
567.85        26.87066
568.29         27.0075
568.72        27.28701
569.16        27.69302
569.60        27.63165
570.03        27.93696
570.47         28.1122
570.90        28.19917
571.34         28.2435
571.77        28.44067
572.21        28.60588
572.64        28.75751
573.08        28.86496
573.51        28.87508
573.95        28.91823
574.38        29.32358
574.82        29.42543
575.25        29.30106
575.69        29.44264
576.12        29.14967
576.56        29.37737
576.99        29.56225
577.42        29.29504
577.86        29.61929
578.29         29.4615
578.73        29.42557
579.16        29.23537
579.60        29.15971
580.03        29.09234
580.47        29.19086
580.90        29.11619
581.33        28.93725
581.77         28.8325
582.20        28.85569
582.64        28.72125
583.07        28.48189
583.51        28.21035
583.94        28.05297
584.37        27.93048
584.81        27.88707
585.24        27.90131
585.68        27.94004
586.11         27.9185
586.54        27.43756
586.98        27.45601
587.41        27.73875
587.85        27.63071
588.28        27.38881
588.71        27.51743
589.15        27.24732
589.58        27.34737
590.01        27.13732
590.45        27.12916
590.88         27.2173
591.31        27.24955
591.75        27.18141
592.18        27.29572
592.61        27.63603
593.05        27.08513
593.48        27.48458
593.91        27.47367
594.35        27.45797
594.78         27.4784
595.21        27.53617
595.65        27.66086
596.08        27.62103
596.51        28.16379
596.94        28.34246
597.38        28.65303
597.81        28.80339
598.24        28.80791
598.68         28.9899
599.11        29.08327
599.54        29.93553
599.97        30.14921
600.41        30.03678
600.84        30.40676
601.27        30.76314
601.70        31.23976
602.14        31.62737
602.57        31.94866
603.00        32.19838
603.43        32.57553
603.87        32.99528
604.30        33.39299
604.73        33.75847
605.16        34.10362
605.60        34.43391
606.03         34.8862
606.46        35.37253
606.89        35.75651
607.32         36.0588
607.76        36.40273
608.19        36.80092
608.62        37.05402
609.05        37.49302
609.48        37.78484
609.92        37.99338
610.35        38.46743
610.78        38.88079
611.21        38.89111
611.64        39.29033
612.07        39.58225
612.50        39.99689
612.94        39.95555
613.37        40.78073
613.80        40.62779
614.23        41.24871
614.66        41.44865
615.09        41.63686
615.52        41.86755
615.96        42.11487
616.39        42.14457
616.82        42.01777
617.25        42.31831
617.68        42.62643
618.11        43.03192
618.54         43.3199
618.97        43.41138
619.40        43.37307
619.84         43.4707
620.27        43.76433
620.70        44.08745
621.13        44.33293
621.56        44.41365
621.99        44.45271
622.42        44.07257
622.85        44.59091
623.28        44.52702
623.71         44.9346
624.14        44.37123
624.57        44.91295
625.00        44.88187
625.43        44.81476
625.86        44.67588
626.29         44.4902
626.72        44.34014
627.15        44.23289
627.58        44.09984
628.01        43.86842
628.44        43.86005
628.87         43.3366
629.30        43.03419
629.73         42.9933
630.16        42.79114
630.59        42.48033
631.02        42.34294
631.45        42.18638
631.88        41.78178
632.31        41.51768
632.74        41.06572
633.17        40.58485
633.60        40.10811
634.03        39.65769
634.46        39.21137
634.89        38.77319
635.32        38.36636
635.75         37.9894
636.18        37.63887
636.61        37.29134
637.04        36.91093
637.47        36.49903
637.89        36.04391
638.32        35.55962
638.75        35.17962
639.18        34.93756
639.61        34.46064
640.04        34.35907
640.47        34.10583
640.90        33.87679
641.33        33.67168
641.76        33.49028
642.18        33.32347
642.61        33.15746
643.04        32.99909
643.47        32.87887
643.90        32.83556
644.33        32.87058
644.76        33.01574
645.18        33.20398
645.61        33.23319
646.04        33.05875
646.47        33.09327
646.90        33.32173
647.33        33.49508
647.75        33.60763
648.18        33.82717
648.61        34.14756
649.04        34.48048
649.47        34.81863
649.89        35.19502
650.32        35.59914
650.75        36.02208
651.18        36.47268
651.61        36.97538
652.03        37.53871
652.46        38.12936
652.89        38.64885
653.32        39.05882
653.74        39.49632
654.17        39.45151
654.60          39.586
655.03        40.91793
655.46        40.83191
655.88        41.98182
656.31        45.16456
656.74        46.06789
657.16        45.03543
657.59        44.16593
658.02         43.8578
658.45        44.81738
658.87        45.31067
659.30         45.5461
659.73        45.71542
660.15        46.69876
660.58        46.60728
661.01        46.81657
661.44        46.81859
661.86        46.81348
662.29        46.88621
662.72        47.29478
663.14        47.94909
663.57        48.14597
664.00        47.96585
664.42         48.0893
664.85        48.55069
665.27        49.06314
665.70        49.28194
666.13        49.52382
666.55        49.69889
666.98        49.77954
667.41        49.80653
667.83        49.84971
668.26        49.92915
668.69        50.03653
669.11        50.16608
669.54         50.3042
669.96        50.44526
670.39        50.60484
670.82        50.76905
671.24        50.89657
671.67        50.98296
672.09        51.07825
672.52        51.20479
672.94        51.39935
673.37        51.26957
673.80        51.75137
674.22        51.68264
674.65        51.89151
675.07        52.07285
675.50        52.24786
675.92        52.41407
676.35        52.56285
676.77         52.7062
677.20        52.81718
677.62        52.91504
678.05        53.04916
678.47        53.21078
678.90        53.35653
679.32        53.45646
679.75        53.50687
680.17        53.50073
680.60        53.44356
681.02        53.37722
681.45        53.37286
681.87        53.45037
682.30        53.60209
682.72        53.81623
683.15        53.96498
683.57        54.08125
684.00        54.34317
684.42        54.68855
684.85        54.90495
685.27        54.97672
685.70        54.91082
686.12        54.82037
686.54        55.12008
686.97        55.70688
687.39        56.02081
687.82        55.97687
688.24        55.97135
688.66        56.00351
689.09        55.82086
689.51         55.4985
689.94        55.32971
690.36        55.36295
690.78        55.43643
691.21        55.54845
691.63        55.89733
692.06        56.36235
692.48        56.50552
692.90        56.35888
693.33        56.36663
693.75        56.54758
694.17         56.6179
694.60        56.60881
695.02         56.6461
695.44        56.72066
695.87          57.003
696.29         57.3959
696.71        57.14408
697.14        56.62369
697.56        56.74634
697.98         57.4705
698.41        57.74666
698.83        57.54901
699.25        57.55206
699.68        57.75356
700.10        57.83384
700.52        57.77468
700.94        57.70951
701.37        57.65207
701.79        57.61218
702.21        57.59426
702.64        57.60077
703.06        57.63723
703.48        57.72205
703.90         57.8583
704.33        58.05453
704.75         58.2519
705.17        58.41372
705.59        58.50211
706.01        58.52334
706.44         58.5322
706.86        58.59758
707.28          58.726
707.70        58.97549
708.12        59.26775
708.55        59.28652
708.97        59.09983
709.39         59.1654
709.81        59.48808
710.23        59.69429
710.66        59.75888
711.08        59.92225
711.50        60.15178
711.92        60.30882
712.34        60.38352
712.76        60.41858
713.19        60.40891
713.61        60.38705
714.03         60.3518
714.45        60.29922
714.87        60.26781
715.29        60.31652
715.71        60.45242
716.13        60.66294
716.56        60.87223
716.98        61.02206
717.40        61.06098
717.82        61.01022
718.24        60.93177
718.66        60.92584
719.08        61.02152
719.50        61.17545
719.92        61.32971
720.34        61.38856
720.76        61.32994
721.19        61.18555
721.61        61.01237
722.03         60.8771
722.45        60.80636
722.87         60.7799
723.29        60.79228
723.71        60.83108
724.13        60.88572
724.55        60.97541
724.97        61.09731
725.39        61.16183
725.81        61.15036
726.23        61.24471
726.65        61.42854
727.07        61.21186
727.49        61.61932
727.91        61.78054
728.33        61.97874
728.75        62.14433
729.17        62.26525
729.59        62.34889
730.01         62.3419
730.43        62.23096
730.85        62.04004
731.27        61.72163
731.69        61.37569
732.10        61.56593
732.52        61.66708
732.94        62.15004
733.36        62.70211
733.78        63.11001
734.20        63.28167
734.62        63.30529
735.04        63.25256
735.46        63.14661
735.88        63.06124
736.30        63.14944
736.72        63.33965
737.13        63.34616
737.55        63.10807
737.97        62.84654
738.39        62.65735
738.81        62.47265
739.23        62.39201
739.65        62.76573
740.06        63.38169
740.48        63.62458
740.90        63.42808
741.32         63.1286
741.74        62.86197
742.16        62.71411
742.57        62.75512
742.99         62.9295
743.41        63.17229
743.83        63.40479
744.25        63.56537
744.67        63.58037
745.08        63.48695
745.50        63.44094
745.92        63.46951
746.34        63.46461
746.75        63.45844
747.17        63.51936
747.59        63.64758
748.01        63.91019
748.42        64.20481
748.84        64.16846
749.26        63.87217
749.68        63.71777
750.09         63.7541
750.51        63.87611
750.93        64.01499
751.35        64.03932
751.76        63.94265
752.18        63.90072
752.60        63.91762
753.01        63.82017
753.43        63.64397
753.85         63.6528
754.27        63.84181
754.68        63.98866
755.10        64.05626
755.52        64.16821
755.93        64.28635
756.35         64.2773
756.77        64.27142
757.18        64.43488
757.60        64.77931
758.02        65.54188
758.43        66.35056
758.85        66.01317
759.26        64.78174
759.68        64.16039
760.10        64.34737
760.51        64.68758
760.93        65.01463
761.34        65.29198
761.76        65.38668
762.18         65.2647
762.59        64.98315
763.01        64.56707
763.42        64.16135
763.84        63.95031
764.26        64.01704
764.67        64.13612
765.09        64.30653
765.50         64.9739
765.92        65.91975
766.33        65.95668
766.75        65.00047
767.16        65.22832
767.58        65.02367
768.00        64.87877
768.41        64.42273
768.83        64.66651
769.24        65.37888
769.66        65.53059
770.07         65.1287
770.49        64.73557
770.90        64.53455
771.32        64.77404
771.73        65.33075
772.15        65.49394
772.56        65.21993
772.97        65.09721
773.39        64.80987
773.80        65.02316
774.22         65.5061
774.63        65.81268
775.05        65.80931
775.46        65.81104
775.88        65.78013
776.29        65.52147
776.70        65.11763
777.12        64.86938
777.53        64.83379
777.95        64.89886
778.36         65.0556
778.77        65.26352
779.19        65.50085
779.60        65.86668
780.02        66.21687
780.43        66.36609
780.84        66.35637
781.26        66.06622
781.67        65.70489
782.09        66.31253
782.50        67.58913
782.91        67.24307
783.33        66.27907
783.74        65.70265
784.15        65.86854
784.57        65.75143
784.98        65.40604
785.39        65.30542
785.81        65.45409
786.22        66.02402
786.63        66.50401
787.04        66.74837
787.46        66.67951
787.87        66.79234
788.28         67.1477
788.70        67.37745
789.11        67.46098
789.52        67.83353
789.93         68.3061
790.35         67.9734
790.76        67.03333
791.17        66.70356
791.58        67.02889
792.00        67.07268
792.41        66.83851
792.82        66.97824
793.23        67.44823
793.65        67.64551
794.06         67.6179
794.47        67.92434
794.88        68.43232
795.29        68.53321
795.71        68.16897
796.12        67.73869
796.53        67.37854
796.94        67.05246
797.35        66.91956
797.76        67.35837
798.18        68.15869
798.59        68.62885
799.00        68.63855
799.41        68.51481
799.82        68.35675
800.23        68.21684
800.64        68.15317
801.06        68.11446
801.47        68.12714
801.88        68.17575
802.29        68.23244
802.70        68.27786
803.11        68.30666
803.52        68.27486
803.93        68.19769
804.34        68.20689
804.75        68.21716
805.17         68.0209
805.58        67.78368
805.99        67.52159
806.40        67.42235
806.81        68.46104
807.22        70.12482
807.63        70.07291
808.04        68.52097
808.45        68.01794
808.86        68.75827
809.27        69.24258
809.68        69.23811
810.09        69.12717
810.50        68.87392
810.91        68.37926
811.32        67.87727
811.73        67.73823
812.14        68.03786
812.55         68.7035
812.96        69.47012
813.37        69.82623
813.78         69.6361
814.19        69.07755
814.60        68.43076
815.01        68.09383
815.42        68.16305
815.83        68.51409
816.24        69.00503
816.65        69.35936
817.05        69.45868
817.46        69.35715
817.87        69.15386
818.28        68.93449
818.69        68.74265
819.10        68.55395
819.51        68.38412
819.92         68.2795
820.33        68.25668
820.74        68.30754
821.14        68.44548
821.55        68.68803
821.96        69.01465
822.37         69.4192
822.78        69.78959
823.19        69.93104
823.60        69.78748
824.00        69.39655
824.41        68.91818
824.82        68.64109
825.23        68.63396
825.64        68.84642
826.04        69.11892
826.45        69.09135
826.86        68.71603
827.27        68.11681
827.68        67.54411
828.08        67.40815
828.49        67.75549
828.90        68.48332
829.31        69.37344
829.72        70.04971
830.12        70.40174
830.53        70.44639
830.94        70.33442
831.35        70.28829
831.75        70.39955
832.16        70.52952
832.57         70.6143
832.97        70.51908
833.38        70.22952
833.79        69.86482
834.20        69.50434
834.60        69.22642
835.01        69.08689
835.42        69.02482
835.82        69.11237
836.23        69.40191
836.64        69.89753
837.04        70.61128
837.45        71.24693
837.86        71.46731
838.26        71.19142
838.67         70.5138
839.08        69.73928
839.48        69.32851
839.89        69.42846
840.29        69.90484
840.70        70.50685
841.11        70.83571
841.51        70.80576
841.92        70.50325
842.33        70.15014
842.73        70.10441
843.14         70.4075
843.54        70.96248
843.95        71.56375
844.35        71.94886
844.76        72.01458
845.17        71.83807
845.57        71.54725
845.98        71.31426
846.38        71.21712
846.79        71.19607
847.19        71.16023
847.60        70.92195
848.00        70.47227
848.41         69.8998
848.81        69.38993
849.22        69.19531
849.62        69.39825
850.03        69.88507
850.43        70.52328
850.84        70.88917
851.24        70.91924
851.65        70.62666
852.05        70.24101
852.46        70.08759
852.86        70.21957
853.27         70.5709
853.67        70.85287
854.07        70.86638
854.48        70.52724
854.88         69.9182
855.29         69.1719
855.69        68.76932
856.10        68.77832
856.50        69.18297
856.90        69.63583
857.31        69.63413
857.71        69.13087
858.12        68.25602
858.52        67.39042
858.92         67.1168
859.33         67.5614
859.73         68.5619
860.13        69.76129
860.54        70.59212
860.94        70.91183
861.34        70.79214
861.75        70.35253
862.15        69.87306
862.55        69.43942
862.96        69.00099
863.36         68.4975
863.76        67.85822
864.17         67.1235
864.57        66.41031
864.97        65.84279
865.38        65.53599
865.78        65.54099
866.18        65.77542
866.58          66.236
866.99        66.87822
867.39        67.66076
867.79        68.52246
868.19        69.20477
868.60        69.34906
869.00        68.92496
869.40        68.02038
869.80         67.0568
870.21        66.75894
870.61         67.3427
871.01        68.56406
871.41        69.90144
871.81        70.52059
872.22        70.20409
872.62        69.18996
873.02        67.92152
873.42        67.13688
873.82        67.06302
874.22        67.51474
874.63        68.10054
875.03        68.22287
875.43        67.75489
875.83        66.88606
876.23        66.08532
876.63        66.11068
877.03        67.10204
877.44        68.74134
877.84        70.45697
878.24         71.2281
878.64        70.82965
879.04        69.64504
879.44        68.20992
879.84        67.30693
880.24        67.13332
880.64        67.41106
881.04        67.97898
881.44        68.57198
881.84        69.06271
882.24        69.58298
882.65        69.93051
883.05        69.87436
883.45        69.35146
883.85        68.44283
884.25        67.56087
884.65        67.35378
885.05        67.92178
885.45        69.04652
885.85        70.32491
886.25        71.04932
886.65         70.9854
887.05        70.35387
887.45         69.3424
887.85        68.29635
888.25        67.42265
888.65        66.67059
889.04        66.11927
889.44        65.93465
889.84        66.07401
890.24        66.54156
890.64        67.20445
891.04        67.73269
891.44        67.99228
891.84        68.04618
892.24        68.01728
892.64        68.11969
893.04        68.39771
893.44        68.75465
893.83        69.17348
894.23        69.54832
894.63        69.85482
895.03        70.14154
895.43        70.32523
895.83        70.27138
896.23        69.98104
896.63        69.47718
897.02        68.96664
897.42        68.85899
897.82        69.20663
898.22        69.91703
898.62        70.65923
899.01        70.88541
899.41        70.45765
899.81        69.55364
900.21        68.54459
900.61        68.00414
901.00        68.06212
901.40        68.54717
901.80        69.12641
902.20        69.25928
902.59        68.81163
902.99        67.97008
903.39        67.05611
903.79        66.52965
904.18        66.50542
904.58        66.87109
904.98        67.36369
905.38        67.59538
905.77        67.44595
906.17        67.01573
906.57        66.58049
906.96        66.60035
907.36         67.1334
907.76        68.07292
908.15        68.99355
908.55        69.07204
908.95        68.22132
909.34        66.70565
909.74        65.25486
910.14        64.85474
910.53        65.73476
910.93        67.51923
911.33        69.64854
911.72        71.23153
912.12        71.88992
912.52        71.88129
912.91        71.47816
913.31        71.15484
913.70        71.09047
914.10        71.08191
914.49        70.99595
914.89        70.63021
915.29        69.98283
915.68        69.21499
916.08        68.51573
916.47        68.01119
916.87         67.7977
917.26        67.76792
917.66        67.94745
918.05        68.40206
918.45        69.04338
918.84        69.89063
919.24        70.61241
919.64        70.79063
920.03         70.3522
920.42         69.4078
920.82        68.36504
921.21        67.76542
921.61         67.7523
922.00        68.18123
922.40        68.80287
922.79        69.25917
923.19        69.38995
923.58        69.34523
923.98        69.19483
924.37        69.05283
924.77        68.96405
925.16        68.87711
925.55        68.82632
925.95        68.89306
926.34        69.09416
926.74        69.39156
927.13        69.69221
927.52        69.79912
927.92        69.67833
928.31        69.37348
928.70        68.98424
929.10        68.66348
929.49        68.46284
929.89        68.31413
930.28        68.22057
930.67        68.11546
931.07        67.97828
931.46        67.86597
931.85        67.75055
932.24        67.58219
932.64        67.38136
933.03        67.17875
933.42        67.05942
933.82        67.15879
934.21        67.50441
934.60        67.97166
934.99        68.51455
935.39        69.03917
935.78        69.53317
936.17        70.00446
936.56        70.16312
936.96        69.58961
937.35        68.30737
937.74         66.5284
938.13        64.89404
938.53        64.21621
938.92        64.58926
939.31        65.86855
939.70        67.48145
940.09        68.29814
940.49        67.96439
940.88        66.81945
941.27        65.56174
941.66        65.24448
942.05        66.08585
942.44        67.78859
942.84        69.67342
943.23        70.56783
943.62          70.072
944.01        68.58291
944.40        66.89233
944.79        66.14907
945.18        66.61283
945.57        67.94578
945.97        69.45635
946.36        70.18454
946.75        69.73299
947.14        68.45206
947.53        66.98326
947.92        66.26895
948.31        66.55022
948.70        67.56227
949.09         68.7678
949.48        69.22321
949.87        68.66521
950.26        67.42157
950.65        66.11752
951.04        65.60385
951.43        66.05545
951.82        67.23367
952.21        68.58633
952.60        69.11767
952.99         68.5407
953.38        67.18421
953.77        65.74129
954.16        65.11906
954.55        65.50418
954.94        66.72673
955.33        68.17648
955.72        68.56878
956.11        67.51971
956.50        65.49493
956.89        63.53932
957.28        63.00794
957.66        64.17545
958.05        66.60007
958.44        69.39964
958.83        70.76766
959.22        70.11537
959.61        68.08914
960.00        65.73257
960.39        64.37142
960.78        64.25635
961.16        65.00623
961.55        66.09323
961.94         66.5446
962.33        66.03432
962.72        65.03262
963.11        63.94278
963.49        63.25837
963.88        63.11217
964.27        63.28094
964.66        63.78864
965.04        64.75625
965.43        66.02419
965.82        67.56577
966.21          68.968
966.60        69.47015
966.98        68.95032
967.37        67.73544
967.76        66.28543
968.15        65.22071
968.53        64.68141
968.92        64.41591
969.31        64.55911
969.69        65.35266
970.08        66.70358
970.47        68.68291
970.86        70.46216
971.24        70.61057
971.63        68.88844
972.02        65.81739
972.40        62.76748
972.79        61.85933
973.17        63.45275
973.56         66.7724
973.95        70.70936
974.33        73.13711
974.72        73.25401
975.11        71.77522
975.49        69.51228
975.88        68.02132
976.26        67.73111
976.65        68.07134
977.04        68.80541
977.42        69.53921
977.81        69.92239
978.19        70.26775
978.58        70.41557
978.96        69.93768
979.35        68.88095
979.74        67.34066
980.12        65.88705
980.51        65.50233
980.89        66.48863
981.28        68.43217
981.66        70.90324
982.05        72.86301
982.43        74.03562
982.82        74.59478
983.20        74.52538
983.59        73.77608
983.97        72.50379
984.35        70.71011
984.74        69.07507
985.12        68.52695
985.51          69.145
985.89        70.85205
986.28        72.69503
986.66        73.38813
987.04        72.42625
987.43        70.21365
987.81        67.61153
988.20         66.4537
988.58        67.15372
988.96        69.23942
989.35         71.4495
989.73        71.95152
990.12        70.25379
990.50        67.09336
990.88        63.54979
991.27        61.36696
991.65        61.01778
992.03        61.99823
992.42        63.79804
992.80        65.95375
993.18        68.09031
993.56        70.37439
993.95         72.4323
994.33        73.65631
994.71         73.7715
995.10        72.94939
995.48        71.61629
995.86         70.5636
996.24        70.02859
996.63        69.71745
997.01        69.80056
997.39        70.32866
997.77        71.18835
998.15        72.41595
998.54        73.38328
998.92        73.08685
999.30        71.35871
999.68        68.45489
1000.06        65.32535
1000.45        63.79583
1000.83         64.5145
1001.21        66.97041
1001.59        70.28281
1001.97         72.9397
1002.35        74.38931
1002.73        75.01949
1003.12        75.00941
1003.50        74.59412
1003.88        73.99624
1004.26        73.11217
1004.64        72.20505
1005.02        71.80623
1005.40        72.02078
1005.78        72.70639
1006.16        73.61666
1006.54        74.36103
1006.92        74.82291
1007.30        75.10963
1007.69        75.08904
1008.07        74.64358
1008.45        73.74149
1008.83        72.43784
1009.21        71.08408
1009.59        70.28722
1009.97        70.18297
1010.35        70.56758
1010.73        71.21726
1011.11        71.71152
1011.49        71.87418
1011.86        71.92056
1012.24        71.48948
1012.62        70.24597
1013.00        68.13585
1013.38        65.08683
1013.76         61.8281
1014.14        59.97849
1014.52         60.1464
1014.90        62.10362
1015.28        64.48228
1015.66        65.01265
1016.04        63.18415
1016.41        59.61952
1016.79        55.86147
1017.17        54.91046
1017.55        57.22622
1017.93        61.19173
1018.31        65.18249
1018.69        68.04984
1019.06        69.98452
1019.44        71.40078
1019.82        72.80176
1020.20        74.74129
1020.58        76.95277
1020.95        78.60284
1021.33        79.20373
1021.71        78.48871
1022.09        76.44827
1022.46         72.8838
1022.84        68.36501
1023.22         64.6571
1023.60        63.37497
1023.97        64.22334
1024.35        66.10114
1024.73        67.81142
