SpectraSmart Spectrum 2.9.0.0
--------- Device Information -----------
Spectrum Name :  反射率_0
Saving Time :  2024/04/30 00:43:52
Spectro-Module Model Name : SE2030-DUVN
Spectro-Module Serial Number : OS361AC55029948
Wavelength Start : 200
Wavelength End : 1025
Wavelength Unit : Wavelength(nm)
Spectrum Unit : Reflectance(%)
-----------Spectrum Setting ------------
Integration Time : 20ms
Average : 10
Boxcar : 0
Background removal :  enabled
linearity correction :  enabled
SC :  disabled
Intensity correction :  disabled
DWT denoise :  enabled
savitzky-golay :  disabled
FFT :  disabled
Running average :  disabled
Kalman :  disabled
High pass :  disabled
---------------BEGIN--------------------
Wavelength(nm)             Reflectance(%)
200.29               0
200.75        37.08105
201.21         27.2758
201.67         15.2857
202.13        3.215565
202.58       -7.423782
203.04       -17.14644
203.50       -21.89437
203.96       -13.38004
204.42        9.845434
204.88        44.00209
205.34         75.1825
205.80        83.63313
206.26        71.56635
206.72        51.67084
207.18        33.23635
207.64        21.58945
208.10        15.47752
208.55        11.44082
209.01        9.679615
209.47        11.68041
209.93        16.46603
210.39        23.26564
210.85        28.04906
211.31        26.82542
211.77        18.99357
212.23        3.015993
212.69       -18.23685
213.14       -26.44101
213.60       -13.06027
214.06        10.50116
214.52        30.59245
214.98        38.88586
215.44        37.20383
215.90        29.15333
216.36        18.50963
216.81        12.35242
217.27        14.42324
217.73        23.63044
218.19        39.51686
218.65        54.45515
219.11        60.68377
219.57        59.83061
220.02        55.71054
220.48        51.78717
220.94        47.90261
221.40        42.27096
221.86        34.33768
222.32         26.7476
222.77        22.77783
223.23        22.66371
223.69        23.56732
224.15        23.15712
224.61        21.30781
225.06        18.17853
225.52        15.74269
225.98        17.52198
226.44        23.04806
226.90        29.54666
227.36          34.266
227.81        35.51009
228.27        33.76863
228.73        29.81166
229.19         25.2945
229.65        23.76951
230.10        25.89549
230.56        29.67263
231.02        33.17893
231.48        34.85808
231.93        34.70212
232.39        33.43345
232.85        31.64018
233.31        30.39012
233.77        30.09559
234.22        30.51771
234.68        31.14751
235.14        31.11679
235.60        30.26202
236.05        28.96365
236.51        27.99179
236.97        28.28262
237.43        30.08628
237.88         33.4705
238.34        37.84636
238.80        41.22846
239.26         42.0498
239.71        40.71848
240.17        38.17294
240.63        36.00106
241.08        34.54477
241.54        33.21901
242.00        32.49671
242.46        34.41743
242.91        40.34003
243.37        49.00332
243.83          56.447
244.28        59.76966
244.74        58.91792
245.20        53.72344
245.66         45.4478
246.11        38.23771
246.57        34.81308
247.03        34.60531
247.48        36.36386
247.94        36.42592
248.40        34.58214
248.85        32.87891
249.31        32.21035
249.77        32.67839
250.22        34.40041
250.68        37.51466
251.14        43.26341
251.59        50.84171
252.05        55.75076
252.51         57.3771
252.96        56.85373
253.42        55.71562
253.88         54.0328
254.33        51.29672
254.79        48.64825
255.25        47.86179
255.70        48.76893
256.16        50.51226
256.62        51.68105
257.07        51.23178
257.53        49.73359
257.99        47.61138
258.44        45.41642
258.90        44.55752
259.35        44.72221
259.81        45.43856
260.27        46.12456
260.72        46.37275
261.18         46.3058
261.63        45.90283
262.09        45.30962
262.55        44.43639
263.00        43.33021
263.46        42.21917
263.91        41.07399
264.37        40.07619
264.83        39.17011
265.28        38.27737
265.74        37.54383
266.19        36.99236
266.65          36.674
267.11        36.52945
267.56        36.41449
268.02        36.10798
268.47        35.55072
268.93        34.80634
269.38        33.98767
269.84        33.40762
270.30        33.11682
270.75        33.01566
271.21        32.93297
271.66        32.60319
272.12        31.97498
272.57        31.12221
273.03        30.20524
273.48        29.39772
273.94        28.81328
274.39        28.36281
274.85        28.01061
275.31         27.6448
275.76        27.21646
276.22        26.77429
276.67        26.32635
277.13         25.9582
277.58        25.63414
278.04        25.35637
278.49        25.01555
278.95        24.53827
279.40        23.89404
279.86        23.19689
280.31        22.51603
280.77        22.05499
281.22        21.81619
281.68        21.75519
282.13        21.79785
282.59        21.87427
283.04        21.93386
283.50        21.98409
283.95        21.97958
284.41        21.85633
284.86         21.6076
285.32        21.28955
285.77        20.93401
286.22         20.6524
286.68        20.48134
287.13        20.36272
287.59        20.31728
288.04         20.3206
288.50        20.36736
288.95        20.43581
289.41        20.48658
289.86        20.42715
290.32        20.27122
290.77        20.05184
291.22        19.83401
291.68        19.71911
292.13        19.73002
292.59        19.85343
293.04        20.10826
293.50        20.54136
293.95        21.13876
294.40        21.88577
294.86        22.66017
295.31        23.28521
295.77        23.71751
296.22        23.99351
296.68        24.24233
297.13        24.65288
297.58        25.27036
298.04        25.99539
298.49        26.71984
298.95        27.26949
299.40        27.59878
299.85        27.77713
300.31        27.85917
300.76        27.87321
301.21        27.87816
301.67         27.8733
302.12        27.88694
302.58        28.10021
303.03        28.51601
303.48        28.94506
303.94        29.26705
304.39        30.03492
304.84        29.97596
305.30        30.12576
305.75        30.16331
306.20        30.23323
306.66        30.36414
307.11        30.51593
307.57        30.67086
308.02        30.73528
308.47         30.7075
308.93        30.62436
309.38        30.51686
309.83        30.47644
310.29        30.51698
310.74        30.60283
311.19        30.66815
311.65        30.60626
312.10        30.39729
312.55        30.08444
313.00          29.747
313.46        29.50668
313.91        29.38076
314.36        29.32986
314.82        29.29955
315.27        29.22198
315.72        29.06225
316.18        28.85477
316.63        28.59265
317.08        28.27339
317.53        27.91818
317.99        27.54445
318.44        27.19708
318.89        26.95224
319.35        26.82409
319.80        26.78353
320.25        26.81001
320.70        26.86761
321.16        26.91769
321.61        26.97166
322.06        26.96372
322.51        26.79958
322.97         26.4697
323.42        26.01256
323.87        25.51841
324.32        25.13665
324.78        24.89951
325.23         24.7812
325.68        24.72702
326.13        24.63988
326.59        24.48286
327.04        24.30103
327.49        24.10003
327.94        23.89797
328.39        23.69839
328.85        23.46817
329.30        23.24251
329.75         23.0566
330.20        22.92088
330.66        22.83585
331.11        22.74969
331.56         22.5523
332.01        22.22654
332.46        21.79927
332.92        21.37194
333.37        21.14676
333.82        21.16709
334.27         21.3753
334.72        21.63467
335.17        21.71412
335.63        21.54486
336.08        21.19764
336.53        20.76906
336.98        20.43981
337.43        20.27248
337.88        20.21167
338.34        20.20441
338.79        20.18906
339.24         20.1327
339.69        20.06899
340.14        20.00017
340.59        19.92282
341.05        19.84269
341.50        19.74878
341.95        19.66034
342.40        19.61966
342.85        19.62803
343.30        19.66634
343.75        19.69254
344.20          19.641
344.66        19.50648
345.11        19.30599
345.56         19.0744
346.01        18.86358
346.46        18.70219
346.91        18.58678
347.36        18.51954
347.81        18.50291
348.26         18.5279
348.72        18.58111
349.17        18.65458
349.62        18.73601
350.07        18.80818
350.52        18.86803
350.97        18.87159
351.42        18.75469
351.87         18.5234
352.32         18.2147
352.77        17.91479
353.22         17.7619
353.67        17.79095
354.13        17.95631
354.58        18.20236
355.03        18.43572
355.48        18.61072
355.93        18.74235
356.38        18.80871
356.83        18.78199
357.28         18.6659
357.73        18.46562
358.18         18.2283
358.63         18.0351
359.08        17.90704
359.53        17.82791
359.98        17.76807
360.43        17.67274
360.88        17.53025
361.33        17.36642
361.78        17.19854
362.23        17.05038
362.68        16.93364
363.13        16.84053
363.58        16.77799
364.03        16.75794
364.48        16.77652
364.93        16.82516
365.38        16.88161
365.83         16.9117
366.28        16.90155
366.73        16.85225
367.18        16.77231
367.63        16.67852
368.08        16.57764
368.53        16.47068
368.98        16.35075
369.43        16.20527
369.88        16.03935
370.33        15.86488
370.78          15.711
371.23         15.6229
371.68        15.60517
372.13        15.63443
372.58        15.67613
373.03        15.67546
373.48        15.61134
373.93        15.49808
374.38        15.33599
374.83        15.13001
375.28        14.90102
375.72        14.65735
376.17        14.44842
376.62        14.31406
377.07        14.25732
377.52         14.2555
377.97        14.29863
378.42        14.36461
378.87        14.43653
379.32        14.52231
379.77        14.57166
380.22        14.51322
380.67        14.34249
381.11        14.07177
381.56        13.80607
382.01         13.7183
382.46        13.84086
382.91        14.12247
383.36        14.41736
383.81        14.50145
384.26        14.33296
384.71        13.98242
385.15        13.59154
385.60        13.40695
386.05        13.47012
386.50        13.69768
386.95        13.95693
387.40        14.04199
387.85        13.91106
388.29        13.63858
388.74         13.3451
389.19        13.14319
389.64        13.06151
390.09        13.05112
390.54        13.08658
390.98        13.12898
391.43        13.16172
391.88        13.19978
392.33        13.22036
392.78        13.20061
393.23          13.143
393.67        13.02046
394.12        12.88325
394.57        12.89113
395.02         12.8652
395.47        12.93718
395.91        13.01051
396.36        13.00623
396.81        12.91293
397.26        12.76071
397.71        12.59729
398.15        12.48533
398.60        12.45661
399.05        12.46067
399.50        12.46862
399.95        12.49352
400.39        12.46134
400.84        12.38354
401.29        12.26724
401.74        12.20152
402.18         12.2019
402.63        12.21399
403.08        12.23834
403.53        12.28659
403.97        12.35133
404.42         12.4325
404.87        12.48489
405.32        12.43514
405.76        12.27379
406.21        12.03103
406.66         11.7903
407.11        11.68398
407.55        11.74346
408.00        11.93245
408.45        12.15748
408.90        12.24743
409.34        12.15379
409.79        11.92697
410.24          11.679
410.68         11.5796
411.13        11.66604
411.58         11.8848
412.03        12.12511
412.47          12.201
412.92        12.05779
413.37         11.7724
413.81        11.45731
414.26        11.29502
414.71        11.31376
415.15        11.46054
415.60        11.64734
416.05        11.74509
416.49        11.71299
416.94        11.59732
417.39        11.44793
417.83        11.33927
418.28        11.30016
418.73        11.29878
419.17        11.32132
419.62        11.34911
420.07        11.37256
420.51        11.40199
420.96        11.42777
421.41         11.4263
421.85        11.39168
422.30         11.3378
422.74        11.28097
423.19        11.26792
423.64        11.29963
424.08        11.36977
424.53        11.43914
424.98        11.46278
425.42        11.42832
425.87        11.33959
426.31        11.22383
426.76        11.14285
427.21        11.07424
427.65        11.02935
428.10        10.98811
428.54        10.89894
428.99        10.77142
429.44        10.69553
429.88        10.67155
430.33        10.56433
430.77        10.44747
431.22        10.64064
431.66        11.07649
432.11        11.28617
432.56        11.18995
433.00        11.05606
433.45        10.92065
433.89        10.61757
434.34        10.30647
434.78        10.36428
435.23        10.70033
435.67        10.83367
436.12        10.72535
436.57        10.64062
437.01        10.62175
437.46        10.62689
437.90        10.66499
438.35        10.73373
438.79        10.80921
439.24        10.83616
439.68        10.82081
440.13          10.825
440.57        10.82539
441.02        10.79086
441.46        10.72411
441.91        10.55989
442.35        10.37164
442.80        10.48191
443.24         10.7969
443.69        10.79311
444.13        10.48242
444.58        10.33045
445.02        10.33564
445.47         10.2427
445.91        10.08663
446.36        10.05459
446.80        10.15288
447.24        10.32754
447.69        10.51655
448.13         10.6254
448.58        10.63049
449.02        10.56382
449.47         10.4694
449.91        10.41103
450.36        10.40877
450.80        10.43888
451.25          10.482
451.69        10.50951
452.13        10.50879
452.58        10.49807
453.02        10.47441
453.47        10.43078
453.91        10.36747
454.36        10.31768
454.80        10.24513
455.24        10.21153
455.69        10.20957
456.13        10.22976
456.58         10.2679
457.02        10.30535
457.46        10.33815
457.91        10.36854
458.35        10.38974
458.79        10.39441
459.24        10.39116
459.68        10.38621
460.13        10.39357
460.57        10.38571
461.01        10.44611
461.46        10.46348
461.90        10.47531
462.34        10.59654
462.79        10.77593
463.23        10.78684
463.68        10.64423
464.12        10.57286
464.56        10.58491
465.01        10.57038
465.45        10.52712
465.89         10.4994
466.34        10.50617
466.78        10.58409
467.22        10.72907
467.67        10.75826
468.11        10.66514
468.55        10.51949
468.99        10.37735
469.44        10.29761
469.88        10.29908
470.32        10.36858
470.77        10.46845
471.21        10.55008
471.65         10.5899
472.10        10.60819
472.54        10.61689
472.98        10.64778
473.42        10.70748
473.87        10.78114
474.31        10.85117
474.75        10.89376
475.20        10.90754
475.64        10.89731
476.08        10.88146
476.52        10.88534
476.97        10.91469
477.41        10.95902
477.85        11.00833
478.29        11.04426
478.74        11.06582
479.18        11.07576
479.62        11.07584
480.06        11.09616
480.50        11.14617
480.95        11.11548
481.39        11.18223
481.83        11.25699
482.27        11.39891
482.72        11.50195
483.16        11.69165
483.60        11.78693
484.04        11.80521
484.48         11.7852
484.93        11.79903
485.37        11.85223
485.81        11.80933
486.25        12.30933
486.69        11.52286
487.14        11.74738
487.58        12.31551
488.02        12.61906
488.46        12.46521
488.90        12.98266
489.34        12.51089
489.79        12.60395
490.23        12.73285
490.67        12.92029
491.11        13.08879
491.55        13.07189
491.99        12.94609
492.43        12.99743
492.88        13.24196
493.32        13.48378
493.76        13.67662
494.20        13.86151
494.64        14.02855
495.08        14.15989
495.52        14.25067
495.96        14.33487
496.41        14.42566
496.85        14.43213
497.29        14.39311
497.73        14.62788
498.17        14.91022
498.61        15.00701
499.05        14.88638
499.49          14.889
499.93        15.04207
500.37        15.20685
500.82        15.35029
501.26        15.45703
501.70          15.518
502.14        15.56257
502.58        15.61739
503.02        15.70587
503.46        15.83585
503.90        16.00015
504.34        16.17723
504.78          16.328
505.22        16.43847
505.66        16.51639
506.10        16.56264
506.54        16.59942
506.98        16.63752
507.42        16.63864
507.86        16.60275
508.30        16.71869
508.74        16.68584
509.18        16.74903
509.62         16.8157
510.06        16.88912
510.50        16.96455
510.94        17.04557
511.38        17.12678
511.82        17.19044
512.26        17.23308
512.70        17.25672
513.14        17.27277
513.58        17.30094
514.02        17.34582
514.46        17.40197
514.90        17.45724
515.34        17.49143
515.78        17.49931
516.22        17.48704
516.66        17.46642
517.10        17.45586
517.54        17.45888
517.98        17.46823
518.42        17.47373
518.86        17.45896
519.30        17.42171
519.74        17.37231
520.18         17.3184
520.62        17.26931
521.06        17.23142
521.50        17.20402
521.93        17.19551
522.37        17.21438
522.81        17.25925
523.25        17.31951
523.69        17.38043
524.13        17.42068
524.57        17.43177
525.01        17.41767
525.45        17.37313
525.89        17.29298
526.32        17.18079
526.76        17.04644
527.20        16.91288
527.64        16.81495
528.08        16.75987
528.52        16.74057
528.96         16.7362
529.40        16.71076
529.83        16.65482
530.27        16.58137
530.71        16.50508
531.15        16.45245
531.59        16.42789
532.03        16.41738
532.46        16.40875
532.90        16.38927
533.34         16.3539
533.78        16.31322
534.22        16.26281
534.66        16.19412
535.09        16.10906
535.53        16.01531
535.97        15.93789
536.41        15.92263
536.85        15.97422
537.28         16.0754
537.72        16.18457
538.16        16.23792
538.60        16.22082
539.04        16.15803
539.47        16.07302
539.91        16.01927
540.35        16.00887
540.79        16.03184
541.22         16.0887
541.66        16.18313
542.10        16.30804
542.54        16.46247
542.97        16.63034
543.41        16.78481
543.85        16.91914
544.29        17.04167
544.72        17.14994
545.16        17.25672
545.60        17.36519
546.04        17.46423
546.47        17.57219
546.91        17.74557
547.35        17.97342
547.79        18.18615
548.22         18.3545
548.66        18.53175
549.10         18.7198
549.53        18.82867
549.97        18.84765
550.41        19.14796
550.84        19.16361
551.28        19.31878
551.72        19.43723
552.15        19.68212
552.59        19.80327
553.03        19.99595
553.46        20.17637
553.90         20.3231
554.34        20.42808
554.77        20.52082
555.21        20.60904
555.65         20.6498
556.08        20.66749
556.52        20.75951
556.96        20.91712
557.39        21.07629
557.83        21.22504
558.27        21.35196
558.70        21.46497
559.14        21.60181
559.57        21.74102
560.01        21.85204
560.45        21.92666
560.88        21.88669
561.32        21.87423
561.75        21.91496
562.19        22.03324
562.63        22.07125
563.06        22.04282
563.50        22.11358
563.93        22.26316
564.37         22.3719
564.80        22.42755
565.24        22.49459
565.68        22.57965
566.11        22.68575
566.55        22.81591
566.98        22.93317
567.42        23.05997
567.85        23.18901
568.29        23.32178
568.72        23.51773
569.16         23.7985
569.60        23.72807
570.03        24.04414
570.47        24.14933
570.90        24.23088
571.34        24.41696
571.77        24.47198
572.21        24.57278
572.64         24.6405
573.08         24.7759
573.51        25.01665
573.95        25.11186
574.38        25.26089
574.82        25.55301
575.25        25.30678
575.69        25.26283
576.12        25.21935
576.56        25.39825
576.99         25.5998
577.42        25.36443
577.86        25.43953
578.29        25.35461
578.73        25.38547
579.16        25.19319
579.60        25.19122
580.03        25.00788
580.47        25.16429
580.90           25.12
581.33         24.9525
581.77        24.93163
582.20        24.59837
582.64        24.41951
583.07        24.29714
583.51        24.20072
583.94        24.21323
584.37        24.08793
584.81        23.86241
585.24        23.87126
585.68        23.96075
586.11        23.79422
586.54        23.51327
586.98        23.51082
587.41        23.77848
587.85        23.58141
588.28        23.36633
588.71        23.62852
589.15        23.53842
589.58        23.32193
590.01        23.46495
590.45        23.45769
590.88        23.53426
591.31        23.54495
591.75        23.46834
592.18        23.49628
592.61        23.64849
593.05        23.33494
593.48        23.42897
593.91        23.58563
594.35        23.32686
594.78        23.46583
595.21        23.77641
595.65        23.82254
596.08        23.63952
596.51        24.12424
596.94        24.51086
597.38        24.90841
597.81        25.02924
598.24        25.06067
598.68        25.35871
599.11        25.50006
599.54        25.91682
599.97        26.38346
600.41        26.40738
600.84        26.56352
601.27        27.09876
601.70        27.55637
602.14        27.99876
602.57        28.31632
603.00        28.52981
603.43        28.86954
603.87        29.27297
604.30        29.72095
604.73        30.21526
605.16        30.56818
605.60          31.226
606.03        31.67794
606.46        31.99442
606.89        32.54314
607.32        32.90607
607.76        33.31761
608.19        33.64817
608.62        33.95393
609.05        34.28179
609.48        34.68987
609.92        35.16312
610.35        35.47081
610.78         36.0635
611.21        36.00421
611.64        36.32423
612.07        36.55479
612.50        36.92873
612.94        37.31432
613.37        37.75697
613.80         37.7914
614.23        38.42236
614.66        38.71859
615.09        38.96938
615.52         39.2128
615.96        39.47723
616.39        39.69328
616.82        39.84279
617.25        40.34313
617.68        40.42532
618.11        40.78939
618.54        41.15427
618.97        41.34605
619.40        41.39593
619.84        41.53211
620.27        41.81393
620.70        42.09689
621.13        42.27191
621.56         42.4251
621.99          42.395
622.42        42.00783
622.85        42.61914
623.28        42.74155
623.71        43.02859
624.14        42.33862
624.57        42.71321
625.00        42.59056
625.43        42.54771
625.86        42.44102
626.29        42.27093
626.72        42.38412
627.15        42.17304
627.58        42.17936
628.01        42.16964
628.44        41.91639
628.87         41.4702
629.30        41.20854
629.73         41.1395
630.16        40.92773
630.59        40.55944
631.02        40.32845
631.45        40.03254
631.88        39.68809
632.31        39.23365
632.74        38.71553
633.17        38.17236
633.60        37.67168
634.03        37.23442
634.46        36.83373
634.89        36.45045
635.32        36.05804
635.75        35.64422
636.18        35.21725
636.61        34.77731
637.04         34.3284
637.47          33.883
637.89        33.41982
638.32        32.93948
638.75        32.54546
639.18        32.26316
639.61        31.75698
640.04        31.59908
640.47        31.31604
640.90        31.07277
641.33        30.86443
641.76         30.6824
642.18        30.50594
642.61        30.31966
643.04        30.13378
643.47        29.98678
643.90        29.92993
644.33        29.96857
644.76        30.12852
645.18        30.33582
645.61        30.38507
646.04        30.23017
646.47        30.25243
646.90        30.45606
647.33         30.6425
647.75        30.81048
648.18         31.1059
648.61        31.49694
649.04        31.85647
649.47        32.17945
649.89        32.52258
650.32        32.89344
650.75        33.33569
651.18        33.85035
651.61        34.34875
652.03        34.85493
652.46        35.53313
652.89         36.2875
653.32        36.78922
653.74        37.09683
654.17        37.32397
654.60         37.6792
655.03         38.7262
655.46        38.54476
655.88        39.86844
656.31        41.14579
656.74        41.40337
657.16        41.07676
657.59        40.49847
658.02        41.21629
658.45        42.79689
658.87        43.27471
659.30        43.53742
659.73        44.48524
660.15        44.66128
660.58        45.46093
661.01        45.66022
661.44        45.69279
661.86        45.69375
662.29        45.77777
662.72        46.17259
663.14        46.77054
663.57        46.91558
664.00        46.68792
664.42        46.78541
664.85        47.25821
665.27        47.69243
665.70         48.0114
666.13          48.311
666.55        48.57545
666.98        48.77202
667.41        48.92559
667.83        49.07225
668.26        49.21695
668.69        49.35742
669.11        49.49575
669.54        49.62412
669.96        49.74039
670.39        49.89226
670.82        50.06192
671.24        50.11811
671.67        50.09901
672.09        50.24786
672.52        50.54381
672.94        50.79526
673.37        50.60069
673.80         51.0018
674.22        50.89528
674.65        51.11818
675.07        51.38197
675.50        51.69576
675.92        52.01155
676.35        52.24721
676.77        52.39525
677.20        52.45625
677.62        52.48447
678.05        52.56695
678.47        52.72311
678.90        52.93918
679.32        53.15066
679.75          53.263
680.17        53.25202
680.60        53.15842
681.02        53.07172
681.45        53.10418
681.87        53.28133
682.30        53.64195
682.72        54.09121
683.15        54.21243
683.57        54.08015
684.00        54.25655
684.42        54.69909
684.85        54.89861
685.27        54.84163
685.70        54.78472
686.12        54.80458
686.54        55.02896
686.97        55.40897
687.39        55.74613
687.82        55.94355
688.24        56.08616
688.66        56.15124
689.09        56.05048
689.51        55.85763
689.94        55.76889
690.36        55.82367
690.78        55.93541
691.21        56.07978
691.63         56.3032
692.06        56.54436
692.48        56.64153
692.90        56.62022
693.33        56.67382
693.75         56.8211
694.17        56.94134
694.60        57.03028
695.02        57.14446
695.44        57.27905
695.87        57.43917
696.29        57.61393
696.71        57.70285
697.14        57.72947
697.56        57.82187
697.98        57.98267
698.41        58.09857
698.83           58.17
699.25         58.3053
699.68        58.47618
700.10        58.60894
700.52           58.68
700.94          58.735
701.37        58.76577
701.79        58.76403
702.21        58.73079
702.64        58.68454
703.06        58.66112
703.48        58.72494
703.90        58.88884
704.33        59.14233
704.75        59.41515
705.17         59.6488
705.59        59.79693
706.01        59.87951
706.44        59.91733
706.86        59.95291
707.28        60.00015
707.70        60.04806
708.12        60.11134
708.55        60.20721
708.97        60.33404
709.39        60.48135
709.81        60.62457
710.23        60.81567
710.66         61.0314
711.08        61.25701
711.50        61.45425
711.92        61.60775
712.34          61.712
712.76        61.76947
713.19        61.77554
713.61        61.76661
714.03        61.74007
714.45        61.70124
714.87        61.67477
715.29        61.69334
715.71        61.76144
716.13        61.87096
716.56        61.98121
716.98         62.0957
717.40        62.17685
717.82        62.23315
718.24         62.2696
718.66        62.29525
719.08        62.31685
719.50         62.3356
719.92        62.36418
720.34        62.41022
720.76         62.4817
721.19        62.59572
721.61        62.73415
722.03         62.8131
722.45        62.81675
722.87        62.77528
723.29        62.71135
723.71        62.65366
724.13        62.61808
724.55        62.60525
724.97        62.60743
725.39        62.60839
725.81         62.6097
726.23        62.62244
726.65         62.6684
727.07        62.78183
727.49        62.96185
727.91        63.18091
728.33        63.40656
728.75        63.59434
729.17        63.72526
729.59         63.7992
730.01        63.79036
730.43        63.76859
730.85        63.64948
731.27        63.46753
731.69        63.24621
732.10        63.46191
732.52        63.51927
732.94        63.86456
733.36         64.2536
733.78        64.56757
734.20        64.73728
734.62        64.87119
735.04         64.9634
735.46        64.89951
735.88        64.77379
736.30        64.78639
736.72        64.92859
737.13         65.1983
737.55        65.39973
737.97         65.0696
738.39        64.39094
738.81        64.07101
739.23        64.23631
739.65        64.71484
740.06        65.26054
740.48        65.51672
740.90        65.39887
741.32        65.09476
741.74        64.76147
742.16        64.58987
742.57        64.65807
742.99        64.90566
743.41        65.24118
743.83        65.45905
744.25        65.53545
744.67        65.63107
745.08        65.75077
745.50        65.79286
745.92        65.76321
746.34        65.68764
746.75        65.64368
747.17        65.68632
747.59        65.81776
748.01        66.18456
748.42         66.6256
748.84        66.47123
749.26        65.87151
749.68        65.73617
750.09        66.05767
750.51          66.203
750.93        66.11398
751.35        66.04409
751.76        66.02792
752.18        66.06401
752.60          66.154
753.01        66.24601
753.43        66.30035
753.85        66.33442
754.27        66.35595
754.68        66.37827
755.10        66.40807
755.52        66.46681
755.93        66.54261
756.35        66.58718
756.77        66.63667
757.18        66.83058
757.60        67.19001
758.02        67.63705
758.43        67.80536
758.85        68.24802
759.26        66.66058
759.68        66.37511
760.10        66.61642
760.51         67.4156
760.93        66.88432
761.34        67.02921
761.76        67.27749
762.18        67.28864
762.59        67.09048
763.01        66.85294
763.42        66.68861
763.84         66.6323
764.26        66.72974
764.67         66.8114
765.09        66.91938
765.50        67.38958
765.92        68.07171
766.33        68.24216
766.75        67.77118
767.16        67.75743
767.58        67.32417
768.00        67.23638
768.41        67.23276
768.83        67.49564
769.24        67.82021
769.66        67.67571
770.07        67.17731
770.49        66.90184
770.90        66.97432
771.32        67.40091
771.73        67.99731
772.15        68.15232
772.56        67.84266
772.97        67.68626
773.39        67.37671
773.80        67.56329
774.22        68.03993
774.63        68.48174
775.05        68.70879
775.46        68.85532
775.88        68.85202
776.29        68.57383
776.70         68.1493
777.12         67.9289
777.53         67.9872
777.95        68.20011
778.36        68.48779
778.77        68.70146
779.19        68.79209
779.60        68.87647
780.02        68.92919
780.43        68.93116
780.84        68.92215
781.26        68.87519
781.67        68.87706
782.09        69.27063
782.50        69.89629
782.91        70.01548
783.33        69.61123
783.74        69.34557
784.15        69.24718
784.57        68.91941
784.98        68.47758
785.39        68.29391
785.81        68.41599
786.22        68.80999
786.63        69.36135
787.04        69.69473
787.46        69.83372
787.87        70.22005
788.28        70.78246
788.70        71.02862
789.11        70.93013
789.52        70.77825
789.93        70.60973
790.35         70.3727
790.76        70.10895
791.17         69.8378
791.58        69.66908
792.00        69.68267
792.41        69.89262
792.82        70.45763
793.23        71.15966
793.65        71.11815
794.06        70.50628
794.47        70.55105
794.88        71.15346
795.29        71.24014
795.71        70.77017
796.12        70.40218
796.53        70.27578
796.94        70.32963
797.35        70.59736
797.76        71.09238
798.18        71.64615
798.59         72.0243
799.00        72.13577
799.41        72.03941
799.82        71.81402
800.23        71.61005
800.64        71.49454
801.06        71.40932
801.47        71.40042
801.88        71.47165
802.29         71.5953
802.70        71.73903
803.11        71.90092
803.52        72.01212
803.93        72.09435
804.34        72.28554
804.75        72.43354
805.17        72.11915
805.58        71.53383
805.99        70.95322
806.40        70.63785
806.81        71.44118
807.22        72.91488
807.63         72.9605
808.04        71.70998
808.45        71.36315
808.86        72.05813
809.27        72.43462
809.68        72.34899
810.09        72.28848
810.50        72.24763
810.91        72.08025
811.32        71.90163
811.73        71.90655
812.14        72.12564
812.55        72.52844
812.96        72.96591
813.37        73.13948
813.78        72.97945
814.19        72.60432
814.60        72.16963
815.01        71.89049
815.42         71.8232
815.83        71.89445
816.24        72.07423
816.65        72.29902
817.05        72.51865
817.46        72.71584
817.87        72.85075
818.28        72.80596
818.69        72.57728
819.10        72.19591
819.51        71.78304
819.92         71.5769
820.33        71.64806
820.74        71.91581
821.14        72.28854
821.55        72.62672
821.96        72.86775
822.37        73.06132
822.78        73.15358
823.19        73.05556
823.60        72.76506
824.00        72.29514
824.41        71.80132
824.82        71.56461
825.23        71.64095
825.64         71.9837
826.04        72.41047
826.45        72.50761
826.86        72.20609
827.27        71.63024
827.68        71.03576
828.08        70.85106
828.49        71.13457
828.90        71.78817
829.31        72.60671
829.72        73.23518
830.12        73.57516
830.53        73.63861
830.94        73.58579
831.35        73.64935
831.75         73.9092
832.16        74.20313
832.57        74.42404
832.97        74.36498
833.38        73.99837
833.79        73.48418
834.20        72.92707
834.60        72.43778
835.01        72.10309
835.42        71.86256
835.82        71.85261
836.23        72.23093
836.64        73.00691
837.04        74.14087
837.45        75.22893
837.86        75.74617
838.26        75.54575
838.67        74.78077
839.08        73.77275
839.48        73.01871
839.89        72.71326
840.29        72.71906
840.70        72.92643
841.11        73.16323
841.51        73.38351
841.92        73.62395
842.33        73.89629
842.73        74.18367
843.14        74.42113
843.54        74.60509
843.95        74.73569
844.35        74.90195
844.76        75.08467
845.17        75.23895
845.57        75.32661
845.98        75.25261
846.38         75.0246
846.79        74.69193
847.19        74.26599
847.60        73.71458
848.00        73.10848
848.41        72.49868
848.81         72.0724
849.22        72.09575
849.62        72.63129
850.03        73.53698
850.43        74.63896
850.84        75.41431
851.24        75.73886
851.65        75.62467
852.05        75.21448
852.46        74.72006
852.86        74.24666
853.27        73.84274
853.67        73.43127
854.07        73.07728
854.48        72.72899
854.88        72.40511
855.29        72.12966
855.69        72.14321
856.10        72.38477
856.50        72.88777
856.90        73.33096
857.31        73.27731
857.71        72.70799
858.12        71.71067
858.52        70.69142
858.92        70.29007
859.33        70.65261
859.73        71.63115
860.13        72.83579
860.54        73.62788
860.94        73.85021
861.34         73.5861
861.75        73.01764
862.15        72.53177
862.55        72.23589
862.96         72.0537
863.36        71.81315
863.76        71.27374
864.17        70.44726
864.57        69.49277
864.97        68.68446
865.38        68.36918
865.78        68.64405
866.18        69.36765
866.58        70.35283
866.99        71.18406
867.39        71.71193
867.79        72.00113
868.19        72.02439
868.60        71.75926
869.00        71.26392
869.40        70.52691
869.80        69.87104
870.21        69.85081
870.61        70.60709
871.01        71.94165
871.41        73.34105
871.81        73.97706
872.22        73.64528
872.62        72.57944
873.02        71.23163
873.42        70.36745
873.82        70.23669
874.22        70.66213
874.63        71.29314
875.03        71.58833
875.43        71.41534
875.83        70.92313
876.23        70.50346
876.63        70.78893
877.03         71.8662
877.44        73.43542
877.84        74.93584
878.24        75.37679
878.64         74.5786
879.04        72.95577
879.44         71.1049
879.84        69.88076
880.24        69.50788
880.64        69.71095
881.04        70.32229
881.44        71.05788
881.84        71.76674
882.24        72.55402
882.65        73.20324
883.05        73.45905
883.45        73.22596
883.85        72.58559
884.25        71.86336
884.65         71.5966
885.05        71.88902
885.45        72.54897
885.85        73.38471
886.25        74.04321
886.65         74.3721
887.05        74.51073
887.45         74.3349
887.85        73.65556
888.25        72.56383
888.65        71.18131
889.04        69.94342
889.44        69.50475
889.84        69.89577
890.24        70.97971
890.64        72.32933
891.04        73.03519
891.44        72.80437
891.84        71.95548
892.24        70.97047
892.64        70.50436
893.04        70.69563
893.44         71.3147
893.83        72.20623
894.23        73.02233
894.63        73.62877
895.03         74.1198
895.43        74.46986
895.83        74.63521
896.23        74.62617
896.63        74.41216
897.02        74.08657
897.42        73.89185
897.82        73.87082
898.22        74.01991
898.62        74.19353
899.01        74.13924
899.41        73.79675
899.81        73.24696
900.21        72.73331
900.61        72.62682
901.00        72.98253
901.40        73.68317
901.80        74.37671
902.20        74.49409
902.59        73.91537
902.99        72.82701
903.39         71.6445
903.79        70.98824
904.18        70.99626
904.58        71.50819
904.98        72.17422
905.38        72.45321
905.77        72.19322
906.17        71.57008
906.57         70.8873
906.96        70.64931
907.36        70.94204
907.76         71.6251
908.15        72.37926
908.55        72.55817
908.95        72.08504
909.34        71.17046
909.74        70.29981
910.14        70.07253
910.53        70.65912
910.93        71.81032
911.33        73.24879
911.72        74.55239
912.12        75.46205
912.52        76.08784
912.91        76.48926
913.31        76.75531
913.70         76.9251
914.10        76.91084
914.49         76.6497
914.89        76.05648
915.29        75.18491
915.68        74.14443
916.08         73.1878
916.47        72.54999
916.87        72.34525
917.26        72.46817
917.66        72.83257
918.05        73.30219
918.45        73.74546
918.84        74.23785
919.24        74.60197
919.64        74.69774
920.03        74.50782
920.42        74.03079
920.82        73.50078
921.21        73.19553
921.61        73.19928
922.00        73.47057
922.40        73.83458
922.79        74.07023
923.19        74.07304
923.58        73.92437
923.98        73.75179
924.37        73.76566
924.77         73.9938
925.16        74.36283
925.55        74.69833
925.95          74.727
926.34        74.41805
926.74         73.8651
927.13        73.25642
927.52        72.85387
927.92          72.745
928.31        72.82993
928.70        73.03395
929.10        73.21886
929.49        73.32398
929.89        73.35855
930.28        73.31927
930.67        73.12346
931.07         72.7785
931.46        72.33907
931.85        71.88286
932.24         71.5292
932.64        71.34228
933.03        71.34067
933.42        71.53635
933.82        71.91583
934.21        72.45821
934.60        73.05367
934.99         73.7312
935.39        74.52994
935.78        75.45181
936.17        76.43893
936.56        77.03719
936.96        76.56198
937.35        75.00974
937.74        72.74175
938.13        70.59636
938.53        69.63816
938.92        70.00947
939.31        71.46498
939.70        73.41272
940.09        74.66875
940.49        74.78195
940.88        74.07171
941.27        73.05187
941.66        72.51093
942.05        72.65029
942.44        73.26067
942.84        73.90045
943.23        73.90121
943.62         73.0649
944.01        71.66719
944.40        70.38287
944.79        70.15855
945.18        71.15556
945.57        73.09271
945.97        75.14125
946.36        76.10135
946.75        75.51797
947.14        73.77423
947.53        71.73738
947.92        70.72317
948.31        71.06462
948.70        72.42427
949.09        74.07652
949.48          74.717
949.87        73.98276
950.26        72.32632
950.65        70.58856
951.04        69.91774
951.43        70.54923
951.82        72.15429
952.21        74.00093
952.60        74.76198
952.99        74.05878
953.38        72.34528
953.77        70.51646
954.16        69.75228
954.55        70.29216
954.94        71.87523
955.33        73.77681
955.72        74.45239
956.11        73.40562
956.50        71.21236
956.89          68.981
957.28        68.13499
957.66         68.9851
958.05        71.03864
958.44        73.53456
958.83        74.91673
959.22         74.6227
959.61         73.1919
960.00        71.40514
960.39        70.23911
960.78          69.893
961.16        70.08578
961.55         70.4439
961.94        70.37907
962.33        69.73025
962.72          68.842
963.11        68.02166
963.49        67.62646
963.88        67.72729
964.27        68.15143
964.66        68.83807
965.04        69.74174
965.43         70.6824
965.82        71.69411
966.21        72.52912
966.60        72.74873
966.98        72.31543
967.37        71.42159
967.76        70.44488
968.15        69.90511
968.53        69.88934
968.92        70.19107
969.31         70.7692
969.69        71.52933
970.08        72.30413
970.47        73.26482
970.86        73.95069
971.24        73.59451
971.63        72.13042
972.02        69.86195
972.40        67.82743
972.79        67.68264
973.17          69.649
973.56        73.07835
973.95        76.90159
974.33        79.06209
974.72        78.81709
975.11        76.86751
975.49        74.10126
975.88         72.2054
976.26           71.66
976.65         71.8984
977.04        72.70448
977.42        73.67101
977.81        74.41106
978.19        75.22282
978.58        75.84631
978.96        75.71367
979.35        74.83026
979.74        73.29893
980.12        71.75446
980.51        71.30962
980.89        72.30267
981.28        74.26037
981.66        76.70561
982.05         78.5032
982.43        79.35668
982.82        79.49438
983.20        78.92995
983.59         77.6338
983.97        75.84806
984.35        73.63707
984.74        71.76971
985.12        71.28944
985.51        72.26268
985.89        74.50354
986.28        77.02628
986.66        78.49111
987.04          78.316
987.43          76.911
987.81        74.86049
988.20        73.52202
988.58        73.24549
988.96        73.68104
989.35        74.14503
989.73          73.775
990.12        72.32443
990.50        70.28802
990.88        68.16892
991.27        66.72569
991.65        66.16366
992.03         66.2785
992.42        66.98481
992.80        68.48124
993.18        70.57557
993.56        73.20361
993.95        75.74554
994.33        77.17552
994.71         77.0526
995.10        75.72115
995.48        73.77277
995.86        72.18687
996.24        71.28727
996.63        70.76955
997.01        70.76628
997.39        71.27304
997.77        72.17696
998.15        73.51327
998.54        74.84086
998.92        75.45854
999.30        75.21901
999.68        74.27285
1000.06        73.09338
1000.45        72.59664
1000.83        73.13423
1001.21        74.39638
1001.59        76.04321
1001.97        77.50488
1002.35        78.51208
1002.73        79.19226
1003.12        79.43554
1003.50        78.98172
1003.88        77.91546
1004.26        76.37761
1004.64        74.70238
1005.02        73.51857
1005.40        73.04553
1005.78        73.09863
1006.16        73.60621
1006.54        74.45142
1006.92        75.53805
1007.30        76.94083
1007.69         78.2515
1008.07        78.70621
1008.45        78.00833
1008.83        76.35877
1009.21        74.41797
1009.59        73.39724
1009.97        73.59277
1010.35        74.50734
1010.73        75.84228
1011.11        77.05967
1011.49        77.86476
1011.86        78.59547
1012.24        78.49229
1012.62        76.53457
1013.00        72.60252
1013.38         66.7456
1013.76        60.56274
1014.14        57.53088
1014.52        58.93386
1014.90         64.0721
1015.28        70.31629
1015.66        73.43708
1016.04        72.32664
1016.41        68.05438
1016.79        62.61737
1017.17        60.10442
1017.55        61.55022
1017.93        65.08627
1018.31        68.85377
1018.69         71.4237
1019.06        72.90376
1019.44        73.76057
1019.82        74.78239
1020.20        77.26686
1020.58        81.11607
1020.95        84.86108
1021.33        87.16101
1021.71        87.15293
1022.09        84.79729
1022.46        79.92263
1022.84        73.05756
1023.22        66.71478
1023.60        63.43892
1023.97        63.11631
1024.35        64.41891
1024.73        65.61557
