SpectraSmart Spectrum 2.9.0.0
--------- Device Information -----------
Spectrum Name :  反射率_0
Saving Time :  2024/04/30 00:47:38
Spectro-Module Model Name : SE2030-DUVN
Spectro-Module Serial Number : OS361AC55029948
Wavelength Start : 200
Wavelength End : 1025
Wavelength Unit : Wavelength(nm)
Spectrum Unit : Reflectance(%)
-----------Spectrum Setting ------------
Integration Time : 20ms
Average : 10
Boxcar : 0
Background removal :  enabled
linearity correction :  enabled
SC :  disabled
Intensity correction :  disabled
DWT denoise :  enabled
savitzky-golay :  disabled
FFT :  disabled
Running average :  disabled
Kalman :  disabled
High pass :  disabled
---------------BEGIN--------------------
Wavelength(nm)             Reflectance(%)
200.29               0
200.75        92.78952
201.21         80.1736
201.67        67.21261
202.13        57.59898
202.58        53.35996
203.04        53.68495
203.50        59.68026
203.96        72.89921
204.42        91.66932
204.88        113.4204
205.34        128.8177
205.80         126.483
206.26        110.4764
206.72        90.30701
207.18        72.77132
207.64        61.13624
208.10        53.99104
208.55        48.85898
209.01        45.92163
209.47        46.86222
209.93        51.12439
210.39        57.58244
210.85        62.99314
211.31        64.66245
211.77        62.48211
212.23        55.79899
212.69        46.57684
213.14        44.94513
213.60        54.14407
214.06        68.09695
214.52        78.94277
214.98        81.83047
215.44        78.07328
215.90        69.73657
216.36         60.4692
216.81        57.41262
217.27        64.25134
217.73          81.319
218.19         106.959
218.65        126.8333
219.11        129.8378
219.57        120.4835
220.02        108.9006
220.48        103.2726
220.94        103.0379
221.40        106.0523
221.86        109.5783
222.32        106.8609
222.77         97.5012
223.23        88.13877
223.69        81.61056
224.15        78.41765
224.61        77.62963
225.06        78.41998
225.52        80.34621
225.98        82.09462
226.44        82.95203
226.90        83.20685
227.36        83.41795
227.81        84.11626
228.27        85.49599
228.73        87.24853
229.19        88.83247
229.65        89.07153
230.10        87.83507
230.56        86.24853
231.02         84.7942
231.48        83.91198
231.93        83.45204
232.39        83.18722
232.85        83.24688
233.31        84.00804
233.77        85.45549
234.22        87.75186
234.68        89.65243
235.14        89.05392
235.60        85.73215
236.05        80.46705
236.51        75.62648
236.97        74.24146
237.43        77.00722
237.88        84.01019
238.34        93.70244
238.80        100.8281
239.26        101.5207
239.71        96.81451
240.17        89.62036
240.63        84.21368
241.08        81.69598
241.54        80.90078
242.00        82.11114
242.46        84.88402
242.91        88.37735
243.37        92.19017
243.83        96.27075
244.28        101.3521
244.74        107.8089
245.20         114.875
245.66        121.0802
246.11        123.2765
246.57        119.5328
247.03        111.3741
247.48        99.37941
247.94        87.07303
248.40        78.99226
248.85        74.66564
249.31        73.91593
249.77        75.56814
250.22        79.53877
250.68        87.21378
251.14        98.64812
251.59        105.0992
252.05         100.423
252.51        91.32124
252.96        84.10154
253.42        81.44582
253.88        81.80414
254.33        83.82446
254.79        86.69685
255.25          87.938
255.70        86.89486
256.16         85.4268
256.62        84.21942
257.07        83.62485
257.53        83.92487
257.99        84.48979
258.44        84.57834
258.90        84.05526
259.35          82.623
259.81        81.23341
260.27         80.0352
260.72        79.15858
261.18        78.82336
261.63        78.50754
262.09        78.26739
262.55        77.73327
263.00        76.80501
263.46        75.87979
263.91        74.83611
264.37        73.97921
264.83        73.20058
265.28        72.39458
265.74        71.68616
266.19        70.95761
266.65        70.31461
267.11        69.72084
267.56        69.17332
268.02        68.71125
268.47        68.26696
268.93        67.82802
269.38        67.30853
269.84        66.67878
270.30        65.92017
270.75        65.05729
271.21         64.1302
271.66        63.10433
272.12        62.01486
272.57        60.83744
273.03        59.69077
273.48        58.65137
273.94        57.82468
274.39        57.11639
274.85        56.52362
275.31        55.89452
275.76         55.1563
276.22        54.39389
276.67        53.57869
277.13        52.84018
277.58        52.11924
278.04        51.46036
278.49        50.74485
278.95        49.96091
279.40        49.05347
279.86        48.15821
280.31        47.29177
280.77        46.64627
281.22        46.18189
281.68        45.87457
282.13        45.64455
282.59        45.48866
283.04        45.31973
283.50        45.14854
283.95        44.84103
284.41        44.25271
284.86        43.36911
285.32        42.33363
285.77        41.26478
286.22        40.43095
286.68        39.90268
287.13        39.56174
287.59        39.38623
288.04        39.25395
288.50        39.14227
288.95        39.03516
289.41        38.91264
289.86         38.6744
290.32        38.34396
290.77        37.93269
291.22        37.50682
291.68        37.17924
292.13        36.97162
292.59        36.88519
293.04        36.93137
293.50        37.16749
293.95        37.56847
294.40         38.1256
294.86        38.71219
295.31        39.14513
295.77        39.38014
296.22        39.44665
296.68        39.48225
297.13        39.68314
297.58         40.0988
298.04        40.63822
298.49          41.168
298.95        41.48621
299.40        41.54144
299.85        41.41523
300.31        41.22234
300.76        41.06638
301.21        41.01864
301.67        41.05809
302.12        41.12294
302.58        41.26533
303.03         41.4566
303.48        41.58201
303.94         41.6242
304.39        42.14896
304.84        42.12742
305.30        42.37458
305.75        42.52991
306.20        42.58934
306.66        42.55906
307.11         42.4417
307.57        42.30837
308.02        42.17372
308.47        42.06505
308.93        41.97829
309.38        41.88671
309.83        41.80425
310.29        41.72922
310.74        41.65702
311.19        41.55796
311.65        41.37502
312.10        41.09954
312.55        40.75788
313.00        40.42249
313.46         40.2063
313.91        40.11799
314.36        40.12273
314.82        40.15007
315.27        40.10663
315.72        39.95155
316.18         39.7225
316.63        39.43254
317.08        39.11559
317.53         38.7982
317.99        38.48294
318.44        38.19156
318.89        37.96574
319.35        37.81005
319.80        37.71041
320.25        37.65806
320.70        37.63328
321.16        37.60869
321.61        37.60456
322.06         37.5621
322.51        37.40232
322.97        37.11389
323.42        36.71937
323.87        36.31238
324.32        36.04865
324.78        35.95148
325.23        36.00494
325.68        36.08488
326.13        35.98129
326.59        35.64081
327.04        35.14174
327.49        34.63157
327.94        34.36559
328.39        34.39911
328.85         34.6364
329.30        34.94337
329.75        35.02504
330.20        34.79998
330.66        34.36601
331.11        33.85732
331.56        33.45964
332.01        33.24176
332.46        33.13881
332.92        33.13299
333.37        33.23755
333.82        33.41305
334.27        33.66161
334.72        33.89116
335.17        33.94158
335.63        33.77187
336.08        33.43085
336.53        33.00447
336.98        32.67375
337.43        32.50194
337.88        32.44513
338.34         32.4624
338.79        32.50113
339.24        32.52774
339.69        32.57156
340.14        32.60754
340.59        32.58862
341.05         32.5117
341.50        32.37684
341.95        32.23604
342.40        32.18847
342.85        32.24461
343.30        32.36142
343.75        32.46867
344.20        32.45303
344.66        32.30068
345.11        32.05947
345.56        31.76754
346.01        31.47974
346.46        31.23892
346.91        31.03815
347.36        30.93629
347.81        31.02373
348.26        31.29205
348.72        31.69038
349.17        32.10868
349.62        32.35096
350.07        32.35681
350.52         32.1875
350.97        31.89686
351.42        31.57262
351.87        31.26582
352.32        30.96521
352.77         30.7357
353.22        30.68038
353.67         30.8082
354.13        31.08434
354.58         31.4128
355.03        31.62923
355.48        31.68012
355.93        31.60315
356.38        31.43315
356.83        31.23336
357.28        31.03318
357.73        30.81509
358.18        30.60065
358.63        30.42872
359.08        30.30106
359.53        30.20742
359.98        30.11986
360.43        29.98574
360.88         29.7922
361.33        29.56193
361.78        29.29729
362.23        29.00231
362.68        28.69402
363.13        28.38068
363.58        28.11062
364.03        27.95791
364.48          27.932
364.93        28.00543
365.38        28.12102
365.83        28.18501
366.28        28.16481
366.73        28.07857
367.18        27.94543
367.63        27.80135
368.08        27.65942
368.53        27.50735
368.98        27.34722
369.43        27.18384
369.88        27.02332
370.33        26.87823
370.78        26.74817
371.23        26.62702
371.68         26.5125
372.13        26.39706
372.58        26.29381
373.03        26.22646
373.48        26.18703
373.93        26.15783
374.38         26.0903
374.83         25.9085
375.28        25.61126
375.72        25.23789
376.17        24.86707
376.62        24.56062
377.07        24.34068
377.52        24.18298
377.97        24.10819
378.42        24.14878
378.87        24.28862
379.32        24.50271
379.77        24.70066
380.22        24.75146
380.67        24.62812
381.11        24.36107
381.56        24.03098
382.01        23.77772
382.46        23.65108
382.91        23.62684
383.36        23.64421
383.81        23.60577
384.26        23.49009
384.71        23.32337
385.15        23.17179
385.60         23.1647
386.05        23.29864
386.50        23.51636
386.95        23.69909
387.40        23.66788
387.85        23.40321
388.29         22.9763
388.74        22.53366
389.19        22.20091
389.64        22.01191
390.09        21.91521
390.54        21.90455
390.98        21.96368
391.43        22.07546
391.88        22.23848
392.33        22.37293
392.78        22.38745
393.23        22.27851
393.67        22.02102
394.12        21.73053
394.57        21.72314
395.02        21.70741
395.47        21.89048
395.91        22.08694
396.36        22.12879
396.81        21.98413
397.26        21.71893
397.71        21.42741
398.15        21.23625
398.60        21.20062
399.05        21.22466
399.50        21.25809
399.95        21.32484
400.39        21.29568
400.84        21.18995
401.29        21.00389
401.74        20.86039
402.18        20.78532
402.63        20.70429
403.08        20.64501
403.53        20.66681
403.97        20.76582
404.42          20.926
404.87        21.06975
405.32         21.0703
405.76        20.90092
406.21        20.60893
406.66        20.29431
407.11        20.11698
407.55        20.12159
408.00        20.26481
408.45        20.45487
408.90        20.52157
409.34        20.41917
409.79        20.20127
410.24        19.98528
410.68        19.94726
411.13        20.11998
411.58        20.43876
412.03        20.77565
412.47        20.91653
412.92        20.79306
413.37        20.49391
413.81        20.13023
414.26        19.89253
414.71        19.81397
415.15        19.84312
415.60         19.9209
416.05        19.97185
416.49        19.96625
416.94        19.93517
417.39        19.88238
417.83         19.8042
418.28        19.71105
418.73        19.59455
419.17          19.484
419.62        19.43272
420.07         19.4491
420.51        19.51889
420.96        19.60719
421.41        19.64546
421.85        19.61428
422.30        19.55379
422.74        19.48696
423.19        19.48161
423.64        19.54086
424.08        19.64892
424.53        19.76866
424.98        19.86891
425.42        19.93548
425.87        19.96194
426.31        19.94076
426.76        19.89174
427.21        19.75642
427.65        19.57347
428.10         19.3734
428.54        19.17989
428.99        19.02612
429.44        19.03491
429.88         19.1333
430.33        18.95922
430.77        18.63765
431.22        18.79283
431.66        19.35991
432.11         19.6629
432.56        19.60456
433.00        19.52415
433.45        19.44074
433.89        19.20286
434.34        18.92933
434.78        18.86362
435.23        18.96748
435.67        18.97375
436.12        18.87431
436.57        18.81927
437.01        18.83309
437.46        18.88401
437.90        18.96677
438.35         19.0784
438.79         19.1888
439.24        19.22021
439.68        19.18849
440.13        19.19313
440.57        19.20114
441.02        19.16539
441.46        19.09174
441.91         18.8652
442.35        18.58941
442.80          18.807
443.24        19.34706
443.69        19.27826
444.13        18.67031
444.58        18.42103
445.02        18.53676
445.47        18.53468
445.91        18.41429
446.36        18.41488
446.80        18.52976
447.24        18.69451
447.69        18.85555
448.13        18.92861
448.58        18.89733
449.02        18.78987
449.47        18.66006
449.91        18.57989
450.36        18.57432
450.80        18.62174
451.25        18.69011
451.69        18.72327
452.13        18.70581
452.58         18.6644
453.02        18.62131
453.47        18.60812
453.91        18.62599
454.36        18.71188
454.80        18.75075
455.24        18.77758
455.69        18.76156
456.13         18.7146
456.58        18.66003
457.02        18.61534
457.46        18.59319
457.91        18.58557
458.35        18.58873
458.79        18.60726
459.24        18.64852
459.68        18.71941
460.13        18.80751
460.57        18.80793
461.01        18.85842
461.46        18.78093
461.90        18.67156
462.34        18.78979
462.79        19.06091
463.23        19.06702
463.68        18.83179
464.12        18.74149
464.56        18.80913
465.01        18.84186
465.45        18.81752
465.89        18.78641
466.34        18.77995
466.78        18.86953
467.22         19.0701
467.67        19.09847
468.11        18.95578
468.55        18.75179
468.99        18.56075
469.44        18.44872
469.88         18.4399
470.32        18.52099
470.77        18.64236
471.21        18.73583
471.65        18.77214
472.10         18.7798
472.54        18.77659
472.98         18.8081
473.42        18.88277
473.87        18.97811
474.31        19.07079
474.75        19.13475
475.20        19.16727
475.64        19.17307
476.08        19.16267
476.52        19.14656
476.97        19.13162
477.41        19.11287
477.85        19.10379
478.29        19.12384
478.74        19.18147
479.18        19.25973
479.62        19.33502
480.06        19.41407
480.50        19.50365
480.95        19.43272
481.39        19.51493
481.83        19.58579
482.27        19.74567
482.72        19.80488
483.16        20.02088
483.60        20.12125
484.04        20.16193
484.48        20.23859
484.93        20.35191
485.37        20.26334
485.81        19.99451
486.25        20.20752
486.69        19.95718
487.14        20.10008
487.58        20.72218
488.02        20.69832
488.46        20.70772
488.90        21.17268
489.34        20.74527
489.79        20.79244
490.23        20.84373
490.67        21.03206
491.11        21.27351
491.55        21.30442
491.99        21.19152
492.43        21.27396
492.88         21.5636
493.32         21.8385
493.76        22.04926
494.20        22.24851
494.64        22.43048
495.08         22.5753
495.52         22.6764
495.96        22.78436
496.41        22.91604
496.85        22.92603
497.29        22.85942
497.73        23.19538
498.17        23.56916
498.61        23.62288
499.05        23.32586
499.49        23.24043
499.93        23.41752
500.37        23.63456
500.82        23.83843
501.26        23.99883
501.70        24.09575
502.14        24.17285
502.58         24.2619
503.02        24.38304
503.46        24.54469
503.90         24.7409
504.34        24.93925
504.78        25.08455
505.22         25.1601
505.66        25.17533
506.10        25.15149
506.54        25.15201
506.98        25.19673
507.42        25.22325
507.86        25.19316
508.30        25.32885
508.74        25.16581
509.18        25.09749
509.62        25.03841
510.06         25.0794
510.50         25.2308
510.94        25.46777
511.38        25.73262
511.82         25.9164
512.26        25.98631
512.70        25.96845
513.14        25.90575
513.58        25.86799
514.02        25.87741
514.46        25.91535
514.90        25.95884
515.34        25.97188
515.78        25.94693
516.22        25.90098
516.66        25.86177
517.10        25.86749
517.54        25.92424
517.98        26.01621
518.42        26.10977
518.86        26.15251
519.30        26.13172
519.74        26.06384
520.18        25.97953
520.62         25.9261
521.06        25.91712
521.50        25.94026
521.93        25.97699
522.37        25.98856
522.81        25.96786
523.25        25.92558
523.69        25.88033
524.13        25.85957
524.57        25.86695
525.01        25.88966
525.45        25.90536
525.89        25.88012
526.32        25.80354
526.76        25.69614
527.20         25.5769
527.64        25.47572
528.08        25.40224
528.52        25.34936
528.96        25.30994
529.40        25.27247
529.83        25.23093
530.27        25.19133
530.71        25.15413
531.15        25.12248
531.59        25.09489
532.03        25.06702
532.46        25.02989
532.90        24.97952
533.34        24.91539
533.78        24.84588
534.22        24.77778
534.66        24.71984
535.09        24.67433
535.53        24.64583
535.97        24.63814
536.41        24.66362
536.85        24.71909
537.28         24.7953
537.72          24.872
538.16        24.91897
538.60        24.92891
539.04        24.91488
539.47         24.8802
539.91        24.85468
540.35        24.84272
540.79        24.84574
541.22        24.87661
541.66         24.9594
542.10        25.09224
542.54        25.26716
542.97         25.4606
543.41         25.6386
543.85        25.78899
544.29        25.92411
544.72        26.03738
545.16        26.13843
545.60        26.23152
546.04        26.30506
546.47        26.38579
546.91        26.55758
547.35        26.80771
547.79        27.03346
548.22        27.20476
548.66        27.42131
549.10        27.68384
549.53        27.84916
549.97        27.87813
550.41        28.28436
550.84        28.22307
551.28        28.33371
551.72          28.372
552.15        28.59898
552.59        28.66234
553.03        28.84285
553.46        29.02275
553.90        29.17627
554.34        29.29042
554.77         29.4064
555.21        29.52711
555.65        29.57962
556.08        29.59316
556.52        29.70508
556.96        29.90154
557.39        30.09052
557.83        30.25534
558.27         30.3807
558.70        30.48018
559.14        30.61303
559.57        30.75432
560.01         30.8641
560.45        30.93476
560.88        30.86942
561.32        30.86855
561.75        30.93666
562.19        31.10495
562.63        31.20555
563.06        31.22656
563.50        31.27039
563.93        31.33071
564.37        31.40291
564.80        31.47192
565.24        31.50773
565.68        31.53309
566.11        31.64342
566.55        31.84385
566.98        32.04261
567.42        32.24775
567.85        32.42167
568.29         32.5563
568.72         32.7558
569.16        33.06768
569.60        32.88832
570.03        33.24331
570.47        33.41653
570.90        33.42843
571.34        33.71379
571.77        33.76994
572.21        33.92758
572.64        34.04122
573.08        34.20232
573.51        34.42731
573.95         34.4407
574.38        34.63097
574.82        34.58497
575.25        34.80334
575.69        34.66417
576.12        34.35722
576.56        34.53595
576.99        34.81115
577.42        34.79765
577.86        34.66928
578.29        34.62543
578.73        34.82846
579.16        34.42348
579.60        34.60239
580.03          34.446
580.47         34.7832
580.90         34.6371
581.33        34.25059
581.77        34.09919
582.20        33.95162
582.64        34.03577
583.07        33.82138
583.51        33.62181
583.94         33.4362
584.37         33.2561
584.81        33.17485
585.24        33.32577
585.68        33.40846
586.11         33.5478
586.54        32.89301
586.98        32.94614
587.41        33.52256
587.85        33.37759
588.28        32.95656
588.71        33.32557
589.15        33.01917
589.58         32.8678
590.01        32.78244
590.45         32.7254
590.88        32.82047
591.31        32.89476
591.75        32.87862
592.18         32.9075
592.61        33.05695
593.05         32.6207
593.48        32.93154
593.91        33.24875
594.35         32.9826
594.78        33.06551
595.21        33.19199
595.65        33.35847
596.08        33.13002
596.51        33.46398
596.94         33.9729
597.38        34.32366
597.81        34.37257
598.24        34.56051
598.68        34.78091
599.11        34.91047
599.54        35.48294
599.97        35.87245
600.41        35.48272
600.84        36.01506
601.27        36.26404
601.70        36.86975
602.14        37.42547
602.57        37.70693
603.00        37.76426
603.43        38.13483
603.87        38.72125
604.30        39.24553
604.73        39.70114
605.16        39.99967
605.60        40.62209
606.03        41.04649
606.46        41.37039
606.89        41.70107
607.32        42.06761
607.76        42.43619
608.19        42.82214
608.62        43.08439
609.05        43.58694
609.48        43.97916
609.92        44.29059
610.35        44.70464
610.78        45.08066
611.21        44.95243
611.64        45.32101
612.07        45.84374
612.50         46.0164
612.94         46.4602
613.37        47.00282
613.80        46.98981
614.23        47.66096
614.66        47.88799
615.09        48.05966
615.52        48.29114
615.96        48.59749
616.39        48.76485
616.82        48.74741
617.25        49.18784
617.68        49.22381
618.11         49.4324
618.54        49.57066
618.97        49.77955
619.40         50.0697
619.84        50.32368
620.27        50.56015
620.70        50.91409
621.13        51.28251
621.56        51.27417
621.99        51.15563
622.42        50.93745
622.85        51.43596
623.28        51.66063
623.71        51.99687
624.14        51.23982
624.57        51.69177
625.00        51.57882
625.43         51.5584
625.86         51.5252
626.29        51.47662
626.72        51.40119
627.15        51.27211
627.58        51.13555
628.01        50.96888
628.44        50.71583
628.87        50.41724
629.30        50.15909
629.73        49.93158
630.16         49.9465
630.59        49.56329
631.02        49.48409
631.45        49.26705
631.88        49.00992
632.31        48.62926
632.74        48.16872
633.17        47.66278
633.60        47.15907
634.03        46.68376
634.46        46.21927
634.89         45.7817
635.32        45.40045
635.75        45.07317
636.18        44.78858
636.61        44.50848
637.04        44.17516
637.47        43.78371
637.89        43.32288
638.32        42.80323
638.75         42.3774
639.18         42.0878
639.61          41.489
640.04        41.33541
640.47        41.02362
640.90        40.77222
641.33        40.57382
641.76        40.40922
642.18        40.23328
642.61        40.02021
643.04        39.79012
643.47        39.59432
643.90        39.50307
644.33        39.52505
644.76        39.68903
645.18        39.91104
645.61        39.94383
646.04        39.73115
646.47        39.77092
646.90         40.0356
647.33        40.21906
647.75        40.31342
648.18        40.49495
648.61        40.77355
649.04        41.13095
649.47        41.53689
649.89        41.88712
650.32        42.17413
650.75        42.54491
651.18        43.01281
651.61        43.45564
652.03         43.8866
652.46        44.46964
652.89        45.06668
653.32        45.40351
653.74        45.64589
654.17        45.83255
654.60        45.64531
655.03        47.78962
655.46        46.72552
655.88        47.77616
656.31        50.23203
656.74        50.82793
657.16        49.83558
657.59        48.54234
658.02        49.27032
658.45        50.72451
658.87        51.04953
659.30        51.11629
659.73        52.08067
660.15        52.65805
660.58        52.60012
661.01        52.74622
661.44         52.9825
661.86        53.04207
662.29        53.01421
662.72        53.46663
663.14        54.26184
663.57        54.37998
664.00        53.94166
664.42        53.94852
664.85        54.46755
665.27        54.93083
665.70          55.243
666.13        55.54165
666.55         55.8057
666.98        55.98907
667.41        56.12999
667.83        56.28222
668.26        56.45399
668.69        56.65025
669.11        56.84811
669.54        56.99499
669.96        57.08206
670.39        57.20268
670.82        57.24776
671.24        57.39556
671.67        57.60084
672.09        57.84335
672.52        58.09081
672.94        58.35474
673.37        58.17778
673.80        58.59729
674.22        58.36404
674.65        58.59101
675.07        58.93806
675.50        59.28378
675.92        59.58197
676.35        59.84061
676.77        60.05272
677.20        60.16896
677.62         60.2227
678.05        60.29457
678.47        60.39997
678.90        60.52184
679.32        60.63966
679.75         60.7322
680.17        60.79041
680.60        60.83979
681.02        60.89898
681.45         60.9916
681.87        61.12528
682.30        61.30449
682.72        61.46997
683.15        61.63914
683.57        61.80617
684.00        61.98726
684.42        62.15369
684.85        62.30225
685.27        62.43769
685.70        62.42919
686.12        62.37408
686.54        62.81123
686.97        63.59512
687.39        63.93155
687.82        63.74733
688.24        63.86887
688.66         63.9439
689.09        63.88848
689.51        63.65142
689.94        63.55945
690.36        63.64951
690.78        63.77332
691.21         63.9277
691.63        64.25749
692.06        64.66405
692.48        64.80998
692.90        64.71584
693.33        64.72429
693.75        64.85578
694.17        64.88586
694.60        64.86492
695.02        64.95162
695.44        65.14691
695.87        65.54238
696.29         66.0142
696.71        65.99339
697.14        65.60696
697.56        65.65984
697.98        66.13461
698.41        66.36794
698.83        66.34056
699.25        66.45804
699.68        66.70242
700.10        66.89111
700.52        66.99337
700.94        67.08574
701.37        67.13561
701.79         67.1659
702.21        67.16977
702.64         67.1543
703.06        67.15392
703.48        67.23816
703.90        67.41927
704.33        67.69547
704.75        68.00304
705.17        68.22804
705.59        68.30753
706.01        68.40656
706.44        68.60235
706.86        68.30751
707.28        68.67258
707.70        68.77307
708.12        68.92948
708.55        69.06216
708.97        69.17982
709.39        69.31891
709.81        69.47507
710.23        69.65453
710.66        69.84604
711.08        70.06246
711.50        70.28144
711.92        70.49989
712.34         70.7125
712.76        70.91771
713.19        71.07356
713.61        71.15754
714.03        71.14964
714.45        71.07472
714.87        70.99361
715.29        70.99685
715.71        71.10518
716.13        71.29201
716.56        71.49909
716.98        71.71176
717.40        71.87287
717.82        71.99303
718.24        72.06985
718.66        72.10328
719.08        72.10181
719.50        72.06522
719.92        72.01305
720.34        71.98817
720.76        72.00381
721.19        72.02167
721.61        72.05357
722.03        72.14428
722.45        72.25967
722.87         72.2702
723.29        72.19646
723.71         72.1918
724.13        72.27021
724.55        72.34778
724.97        72.41853
725.39        72.50882
725.81        72.61869
726.23        72.74557
726.65        72.88507
727.07        73.03486
727.49        73.18886
727.91        73.32249
728.33        73.43353
728.75        73.59192
729.17        73.82617
729.59        73.96643
730.01        73.87276
730.43        74.18661
730.85        73.95528
731.27         73.2382
731.69        73.12234
732.10         73.4054
732.52        73.46947
732.94        74.07217
733.36        74.76962
733.78        75.24728
734.20        75.38372
734.62        75.32546
735.04        75.19033
735.46        75.06285
735.88        75.04395
736.30        75.24483
736.72        75.56312
737.13        75.74962
737.55         75.6614
737.97        75.29508
738.39        74.80401
738.81        74.43587
739.23        74.32829
739.65        74.66745
740.06        75.24505
740.48        75.54176
740.90        75.47591
741.32        75.31962
741.74        75.18094
742.16        75.15068
742.57          75.286
742.99        75.48544
743.41         75.7184
743.83        76.01629
744.25        76.31464
744.67        76.43493
745.08        76.39146
745.50        76.37874
745.92         76.4177
746.34         76.3632
746.75        76.29283
747.17        76.33833
747.59        76.50739
748.01        76.92092
748.42        77.42916
748.84        77.29382
749.26        76.97536
749.68        76.72561
750.09        76.74153
750.51        76.93634
750.93        77.20277
751.35        77.24695
751.76        77.07898
752.18        77.05222
752.60        77.17244
753.01         77.1871
753.43        77.09878
753.85        77.09367
754.27        77.20652
754.68        77.40482
755.10        77.62547
755.52        77.77842
755.93        77.82152
756.35        77.72742
756.77        77.64938
757.18        77.79209
757.60        78.18893
758.02        78.83236
758.43         79.8301
758.85        79.44427
759.26        78.11214
759.68        77.58701
760.10        78.01936
760.51        78.40849
760.93        78.59155
761.34        78.82072
761.76        78.97709
762.18        78.86565
762.59        78.59918
763.01        78.18804
763.42        78.16415
763.84        78.00568
764.26        77.89404
764.67        77.80592
765.09         77.8542
765.50        78.32921
765.92        79.07038
766.33        79.45258
766.75        79.31014
767.16        79.13591
767.58        78.99045
768.00        78.69867
768.41        78.41264
768.83        78.64077
769.24        79.16713
769.66        79.21394
770.07         78.8082
770.49         78.4397
770.90         78.3241
771.32         78.8447
771.73        79.77464
772.15        80.16949
772.56        79.96064
772.97        79.74548
773.39        79.06892
773.80        79.60567
774.22        79.43226
774.63        79.72755
775.05        79.83898
775.46        79.93588
775.88        79.95109
776.29        79.83814
776.70        79.65655
777.12        79.55243
777.53        79.55974
777.95        79.59171
778.36        79.67667
778.77        79.81712
779.19        80.00693
779.60        80.40438
780.02         80.8185
780.43         80.8736
780.84        80.67773
781.26        80.44546
781.67        80.33345
782.09        81.31802
782.50        82.28231
782.91        82.23991
783.33        81.07997
783.74         80.5348
784.15        80.70171
784.57        80.57414
784.98        80.19088
785.39        80.09113
785.81        80.30749
786.22         80.6908
786.63        81.15782
787.04        81.57365
787.46        81.88006
787.87        82.08282
788.28        82.24413
788.70        82.40021
789.11        82.55591
789.52        82.86427
789.93        83.18975
790.35        82.99281
790.76        82.39445
791.17        82.15855
791.58        82.40462
792.00        82.52781
792.41        82.51673
792.82        83.14602
793.23         84.1227
793.65        83.71549
794.06         82.3321
794.47         82.4485
794.88        83.81005
795.29        84.13713
795.71        83.32667
796.12        82.76975
796.53        82.66328
796.94         82.5396
797.35        82.52991
797.76        83.14036
798.18        84.10856
798.59        84.65182
799.00        84.62325
799.41        84.36216
799.82        84.00828
800.23        83.69933
800.64        83.52777
801.06        83.42294
801.47         83.4186
801.88        83.50338
802.29        83.65092
802.70        83.80891
803.11        83.95566
803.52        84.13288
803.93         84.3011
804.34        84.28893
804.75        84.06838
805.17        83.90522
805.58        83.89216
805.99        83.53777
806.40        83.08209
806.81         83.7889
807.22        85.31107
807.63        85.64019
808.04        84.82225
808.45         84.6645
808.86        85.25678
809.27        85.50143
809.68        85.30466
810.09        85.09853
810.50        84.90562
810.91        84.61112
811.32        84.34605
811.73        84.31495
812.14        84.55046
812.55        85.02841
812.96        85.56622
813.37        85.80003
813.78        85.64126
814.19        85.21689
814.60        84.73128
815.01        84.47965
815.42        84.53168
815.83         84.7898
816.24        85.16519
816.65        85.47936
817.05        85.64474
817.46        85.67891
817.87        85.61486
818.28        85.43111
818.69        85.15337
819.10        84.79181
819.51         84.4439
819.92        84.30309
820.33        84.41898
820.74        84.71877
821.14        85.12866
821.55        85.53498
821.96         85.8779
822.37        86.19788
822.78        86.39428
823.19        86.29956
823.60        85.89765
824.00        85.22987
824.41        84.53416
824.82        84.22112
825.23        84.37466
825.64        84.91209
826.04        85.57991
826.45        85.81165
826.86        85.49956
827.27        84.81178
827.68        84.06001
828.08        83.76563
828.49        84.01357
828.90        84.67877
829.31          85.546
829.72        86.24274
830.12        86.66851
830.53        86.84299
830.94         86.9172
831.35        87.09175
831.75         87.4459
832.16         87.8017
832.57        88.09212
832.97        88.17654
833.38        88.02383
833.79         87.7568
834.20        87.41101
834.60        86.99799
835.01        86.59238
835.42        86.16496
835.82        85.90435
836.23        86.04252
836.64        86.62993
837.04        87.62612
837.45        88.61265
837.86        89.05804
838.26        88.81486
838.67         88.0415
839.08        87.07374
839.48        86.42109
839.89        86.26933
840.29        86.45933
840.70        86.82885
841.11        87.13212
841.51        87.30755
841.92        87.40332
842.33        87.47951
842.73        87.60553
843.14        87.74078
843.54        87.87376
843.95         87.9828
844.35        88.12141
844.76        88.26058
845.17        88.37902
845.57        88.45319
845.98        88.40175
846.38        88.23848
846.79        87.98823
847.19        87.66317
847.60        87.22311
848.00        86.72493
848.41        86.20855
848.81         85.8307
849.22        85.81386
849.62        86.22218
850.03        86.92535
850.43          87.796
850.84        88.35612
851.24        88.53572
851.65        88.33675
852.05        87.93488
852.46        87.57225
852.86        87.32137
853.27        87.19725
853.67        87.04752
854.07        86.89492
854.48        86.66669
854.88        86.42068
855.29         86.1311
855.69        86.01574
856.10        86.00955
856.50        86.19196
856.90        86.36686
857.31        86.29681
857.71        85.99142
858.12        85.46484
858.52        84.99486
858.92        84.97286
859.33         85.4539
859.73        86.36753
860.13        87.35585
860.54        87.84377
860.94        87.73469
861.34        87.08678
861.75        86.17507
862.15        85.56892
862.55        85.39614
862.96        85.53147
863.36        85.65744
863.76        85.29176
864.17        84.39066
864.57        83.18493
864.97        82.03094
865.38        81.38759
865.78        81.40477
866.18         81.9121
866.58        82.75402
866.99        83.57931
867.39        84.26698
867.79        84.84537
868.19         85.2222
868.60        85.27235
869.00        85.01383
869.40        84.44814
869.80        83.86935
870.21        83.79919
870.61         84.3888
871.01        85.44394
871.41        86.53016
871.81        86.94508
872.22        86.51531
872.62        85.46049
873.02         84.1608
873.42        83.25147
873.82        82.95766
874.22        83.15186
874.63        83.56628
875.03        83.77861
875.43        83.68604
875.83        83.39465
876.23        83.22961
876.63        83.71496
877.03        84.89935
877.44        86.50855
877.84        88.02424
878.24        88.51513
878.64        87.81874
879.04        86.32477
879.44        84.59785
879.84         83.4564
880.24        83.11097
880.64        83.28497
881.04        83.84733
881.44        84.56963
881.84        85.31179
882.24        86.17838
882.65         86.8558
883.05        86.94461
883.45          86.334
883.85        85.17464
884.25        83.98169
884.65        83.56551
885.05        84.06953
885.45        85.20881
885.85        86.60021
886.25        87.56113
886.65        87.83646
887.05        87.66576
887.45        87.05573
887.85        86.04208
888.25        84.81447
888.65        83.44648
889.04        82.32576
889.44        82.08046
889.84         82.7145
890.24        84.09895
890.64        85.83743
891.04        87.03201
891.44        87.32483
891.84        86.97153
892.24        86.31187
892.64        85.84317
893.04        85.70461
893.44         85.7209
893.83        85.92023
894.23         86.2717
894.63        86.75655
895.03            87.4
895.43        88.01359
895.83        88.28902
896.23        88.16201
896.63        87.66631
897.02        87.02885
897.42         86.7002
897.82         86.7736
898.22         87.1804
898.62        87.59679
899.01        87.48985
899.41        86.75348
899.81        85.57796
900.21        84.45705
900.61        84.13701
901.00        84.74718
901.40        86.04605
901.80        87.44604
902.20        87.98017
902.59        87.41613
902.99         86.0759
903.39        84.54717
903.79        83.71515
904.18        83.79465
904.58        84.53464
904.98        85.51339
905.38         86.0911
905.77        86.06255
906.17        85.62276
906.57         85.0774
906.96        84.92837
907.36        85.25816
907.76         85.9323
908.15        86.59209
908.55        86.52606
908.95         85.6805
909.34        84.30676
909.74        83.03965
910.14        82.69557
910.53         83.4729
910.93        85.04478
911.33        86.96402
911.72        88.52935
912.12        89.39642
912.52        89.76037
912.91        89.78286
913.31        89.72597
913.70        89.71066
914.10        89.59204
914.49        89.31345
914.89        88.80512
915.29        88.10109
915.68        87.31834
916.08         86.6311
916.47        86.13107
916.87        85.90691
917.26        85.88073
917.66        86.06844
918.05        86.52512
918.45        87.15476
918.84        87.98765
919.24        88.71616
919.64        88.99385
920.03        88.75045
920.42        88.05386
920.82        87.25799
921.21        86.81076
921.61        86.83823
922.00        87.23701
922.40        87.76921
922.79         88.1233
923.19        88.15421
923.58        87.98578
923.98        87.74295
924.37        87.62038
924.77        87.66451
925.16        87.81129
925.55        87.95763
925.95        87.94809
926.34        87.77975
926.74        87.51217
927.13        87.25832
927.52        87.15042
927.92        87.23086
928.31        87.42332
928.70        87.68983
929.10        87.95934
929.49        88.19056
929.89        88.34917
930.28        88.40168
930.67        88.19517
931.07         87.7331
931.46        87.11877
931.85        86.46056
932.24        85.91747
932.64         85.5633
933.03        85.39133
933.42        85.45988
933.82        85.83115
934.21        86.49315
934.60        87.30915
934.99        88.15607
935.39        88.81187
935.78        89.24623
936.17        89.48724
936.56        89.30112
936.96        88.39899
937.35         86.8755
937.74        84.94711
938.13        83.28155
938.53        82.71165
938.92        83.30988
939.31        84.91933
939.70        86.93598
940.09        88.15005
940.49        88.13261
940.88         87.1945
941.27        85.96469
941.66        85.41737
942.05        85.78357
942.44        86.82045
942.84        87.94172
943.23         88.2209
943.62        87.36595
944.01        85.74063
944.40        84.16662
944.79        83.81706
945.18        84.90527
945.57        87.06207
945.97        89.38744
946.36        90.57846
946.75        90.11917
947.14        88.44537
947.53        86.39707
947.92        85.23643
948.31        85.31628
948.70        86.31939
949.09        87.65162
949.48         88.2558
949.87        87.81363
950.26        86.66807
950.65        85.51172
951.04        85.28489
951.43        86.17128
951.82        87.92043
952.21        89.76364
952.60        90.32627
952.99        89.26369
953.38        87.04359
953.77         84.7799
954.16        83.94815
954.55        84.83669
954.94        87.17194
955.33        89.94113
955.72        90.95389
956.11        89.49761
956.50        86.32726
956.89        83.07811
957.28         81.8774
957.66        83.16491
958.05        86.28822
958.44        90.00746
958.83        91.80053
959.22        90.86287
959.61        88.12646
960.00        85.06274
960.39         83.5436
960.78        83.91967
961.16        85.64842
961.55        87.89262
961.94        89.11449
962.33        88.73664
962.72        87.42597
963.11        85.80322
963.49        84.65765
963.88        84.23328
964.27        84.19792
964.66        84.58908
965.04        85.58057
965.43        86.97741
965.82         88.7775
966.21        90.46364
966.60        91.06258
966.98        90.39059
967.37        88.85163
967.76        87.00152
968.15        85.60035
968.53        84.82427
968.92        84.37362
969.31        84.37218
969.69         85.0603
970.08        86.30988
970.47        88.22979
970.86          89.983
971.24          90.116
971.63        88.36636
972.02        85.24905
972.40         82.1384
972.79        81.19675
973.17        82.78111
973.56        86.11571
973.95        90.04739
974.33        92.38058
974.72        92.29584
975.11        90.53866
975.49        88.04123
975.88        86.53632
976.26        86.50452
976.65        87.31157
977.04        88.56944
977.42        89.59406
977.81        89.91709
978.19        89.94205
978.58        89.68879
978.96         89.0293
979.35        88.09585
979.74        86.93291
980.12        85.97083
980.51        85.91811
980.89         87.0149
981.28        88.87292
981.66        91.28664
982.05        93.54927
982.43        95.46593
982.82        97.06218
983.20        97.96723
983.59        97.45036
983.97        95.55956
984.35        92.57513
984.74        89.64451
985.12        88.32078
985.51        88.83184
985.89        90.85876
986.28        93.30536
986.66        94.65028
987.04        94.26112
987.43        92.65412
987.81        90.49477
988.20         89.1936
988.58        89.14845
988.96        89.93976
989.35        90.86099
989.73        91.06356
990.12        90.22742
990.50        88.76846
990.88        87.08901
991.27        85.80928
991.65        85.10444
992.03        84.85645
992.42        84.97072
992.80        85.60689
993.18        86.64225
993.56        88.07468
993.95        89.60572
994.33        90.83605
994.71        91.46911
995.10        91.64945
995.48        91.52898
995.86        91.47428
996.24        91.62817
996.63        91.76692
997.01        92.12332
997.39        92.85263
997.77        93.88955
998.15        95.19067
998.54        96.27872
998.92        96.41863
999.30        95.47888
999.68        93.67694
1000.06        91.62484
1000.45         90.4625
1000.83        90.67913
1001.21        91.92433
1001.59        93.72501
1001.97        95.27087
1002.35        96.19395
1002.73        96.63951
1003.12        96.58694
1003.50         95.9229
1003.88        94.76678
1004.26        93.23792
1004.64        91.51427
1005.02        89.97468
1005.40        88.86373
1005.78        88.15401
1006.16        88.09058
1006.54        88.99096
1006.92        90.83743
1007.30        93.57915
1007.69        96.52937
1008.07        98.38935
1008.45        98.45786
1008.83        96.92095
1009.21        94.52426
1009.59        92.69459
1009.97        91.92863
1010.35        91.89391
1010.73        92.22644
1011.11        92.28135
1011.49        91.87189
1011.86        91.35854
1012.24         90.7841
1012.62        90.34644
1013.00        90.11668
1013.38        89.99369
1013.76        89.97529
1014.14        90.14548
1014.52         90.4371
1014.90        90.68131
1015.28        90.83193
1015.66        90.82381
1016.04        90.63463
1016.41        90.47466
1016.79        89.91527
1017.17        88.45206
1017.55        86.48182
1017.93         84.5466
1018.31        83.48412
1018.69        84.15485
1019.06        86.82556
1019.44        91.57758
1019.82         98.3187
1020.20        104.2766
1020.58        106.5876
1020.95        105.1433
1021.33        102.0149
1021.71        99.58745
1022.09        98.13393
1022.46        96.96014
1022.84        95.14289
1023.22        90.78969
1023.60        84.59501
1023.97        78.68081
1024.35        74.83378
1024.73        74.07083
