SpectraSmart Spectrum 2.9.0.0
--------- Device Information -----------
Spectrum Name :  反射率_0
Saving Time :  2024/04/30 01:08:22
Spectro-Module Model Name : SE2030-DUVN
Spectro-Module Serial Number : OS361AC55029948
Wavelength Start : 200
Wavelength End : 1025
Wavelength Unit : Wavelength(nm)
Spectrum Unit : Reflectance(%)
-----------Spectrum Setting ------------
Integration Time : 20ms
Average : 10
Boxcar : 0
Background removal :  enabled
linearity correction :  enabled
SC :  disabled
Intensity correction :  disabled
DWT denoise :  enabled
savitzky-golay :  disabled
FFT :  disabled
Running average :  disabled
Kalman :  disabled
High pass :  disabled
---------------BEGIN--------------------
Wavelength(nm)             Reflectance(%)
200.29               0
200.75        64.39509
201.21        43.92873
201.67        21.23095
202.13        2.642624
202.58       -8.542835
203.04       -12.90738
203.50        -10.5026
203.96       -2.499489
204.42         9.21214
204.88        23.79672
205.34        37.51612
205.80        44.68833
206.26        45.09474
206.72        41.93602
207.18        36.87472
207.64        30.62803
208.10        23.30382
208.55         14.1814
209.01        5.943908
209.47        5.498186
209.93        13.22446
210.39        25.12155
210.85        35.38193
211.31        39.38473
211.77        37.09447
212.23        28.65767
212.69        15.90519
213.14        10.31194
213.60        17.34016
214.06        30.21573
214.52        41.44913
214.98         46.5785
215.44        46.59457
215.90        43.69645
216.36        39.64917
216.81        37.56105
217.27        39.20965
217.73        43.88507
218.19        51.76192
218.65        60.14744
219.11        65.21295
219.57        66.87986
220.02        65.85905
220.48        63.51344
220.94        59.67816
221.40        53.18503
221.86        44.45129
222.32        38.29987
222.77        37.58415
223.23        40.53256
223.69        43.11874
224.15        42.56858
224.61        39.08728
225.06        33.29096
225.52        27.55885
225.98        26.97817
226.44        31.89299
226.90        38.75682
227.36          44.419
227.81        46.99409
228.27        46.93751
228.73        45.11562
229.19        42.51596
229.65         41.2039
230.10        41.72097
230.56         43.0616
231.02        44.29552
231.48         44.6738
231.93        44.11098
232.39        43.02892
232.85        41.67259
233.31        40.53166
233.77        39.84061
234.22        39.56445
234.68        39.47358
235.14        39.21104
235.60        38.76414
236.05        38.30281
236.51        38.30304
236.97         39.3746
237.43        41.71856
237.88        45.53256
238.34        50.33898
238.80        54.45605
239.26        56.32463
239.71        56.10769
240.17        54.44855
240.63         52.7583
241.08        51.45212
241.54        49.87394
242.00        48.54409
242.46        49.92903
242.91        56.05568
243.37        65.57519
243.83        74.40354
244.28        79.56462
244.74        81.16589
245.20         79.2673
245.66        74.81241
246.11        70.79005
246.57        69.07806
247.03        69.62304
247.48        71.16418
247.94         70.3559
248.40        67.47005
248.85        64.24289
249.31        62.74723
249.77        63.56212
250.22        66.86868
250.68         73.4446
251.14        83.07464
251.59        87.94733
252.05        83.05064
252.51        74.64529
252.96        68.29647
253.42         66.1603
253.88        66.72866
254.33        68.64666
254.79        70.84083
255.25        70.64243
255.70        67.95929
256.16        65.03765
256.62         62.6189
257.07         60.9151
257.53        60.04486
257.99        59.47719
258.44        58.91664
258.90          58.698
259.35        58.39763
259.81        58.29482
260.27        58.13243
260.72        57.72458
261.18        57.26567
261.63        56.55146
262.09        55.78616
262.55        54.91587
263.00        53.92524
263.46        53.02793
263.91        52.05789
264.37        51.11121
264.83        50.10392
265.28        48.98785
265.74         47.9693
266.19        47.13386
266.65        46.56915
267.11        46.18552
267.56        45.81802
268.02         45.2268
268.47        44.33741
268.93        43.23602
269.38         42.0438
269.84        41.09431
270.30        40.46229
270.75        40.04515
271.21        39.70404
271.66        39.19534
272.12        38.46786
272.57        37.58942
273.03         36.6618
273.48         35.7599
273.94        34.99286
274.39        34.29028
274.85        33.71921
275.31         33.3006
275.76         32.9816
276.22        32.75086
276.67        32.49293
277.13        32.13588
277.58        31.61862
278.04        31.03168
278.49        30.34557
278.95        29.61354
279.40         28.8344
279.86        28.08719
280.31        27.42727
280.77        27.05145
281.22        26.93311
281.68        27.02467
282.13         27.2001
282.59        27.33293
283.04         27.3531
283.50        27.28531
283.95        27.11236
284.41        26.82818
284.86        26.44691
285.32        26.03311
285.77        25.59445
286.22        25.21421
286.68        24.92811
287.13        24.67925
287.59        24.54565
288.04        24.58207
288.50        24.78183
288.95        25.07813
289.41        25.32698
289.86        25.27503
290.32         24.9191
290.77        24.35164
291.22        23.75095
291.68        23.40144
292.13        23.37784
292.59        23.61602
293.04        24.06932
293.50        24.68967
293.95        25.43345
294.40        26.32366
294.86        27.25173
295.31        28.05809
295.77        28.70255
296.22        29.19629
296.68        29.67546
297.13        30.34589
297.58        31.25055
298.04        32.29004
298.49        33.31081
298.95        34.07417
299.40        34.52558
299.85        34.75555
300.31        34.89793
300.76        35.09352
301.21        35.42094
301.67        35.84775
302.12        36.30457
302.58        36.82722
303.03        37.38688
303.48        37.86533
303.94        38.24728
304.39        39.13863
304.84        39.45181
305.30        40.03292
305.75         40.5052
306.20        40.86172
306.66        41.10151
307.11        41.22994
307.57        41.30165
308.02        41.31141
308.47          41.292
308.93        41.25274
309.38          41.206
309.83        41.22322
310.29        41.31362
310.74        41.45629
311.19        41.58204
311.65        41.57167
312.10        41.40106
312.55        41.11279
313.00        40.81059
313.46        40.65789
313.91        40.67435
314.36        40.80714
314.82        40.95444
315.27        40.97442
315.72        40.81457
316.18        40.53003
316.63        40.16568
317.08        39.80362
317.53        39.48521
317.99        39.20277
318.44        38.95352
318.89        38.73929
319.35        38.55668
319.80        38.40481
320.25        38.30323
320.70        38.27836
321.16        38.30795
321.61        38.38928
322.06        38.42992
322.51        38.29459
322.97        37.95925
323.42         37.4763
323.87        36.95111
324.32        36.55722
324.78        36.33118
325.23         36.2454
325.68        36.22645
326.13        36.14938
326.59        35.96968
327.04        35.74457
327.49         35.5076
327.94        35.32648
328.39        35.21393
328.85        35.11722
329.30        35.03667
329.75          34.923
330.20        34.76365
330.66        34.58025
331.11        34.37356
331.56        34.11147
332.01        33.80093
332.46        33.44825
332.92        33.11327
333.37         32.9443
333.82        32.95807
334.27        33.11377
334.72        33.30666
335.17        33.35817
335.63         33.2096
336.08        32.92185
336.53        32.55097
336.98        32.21804
337.43        31.97347
337.88        31.78578
338.34        31.64627
338.79        31.56051
339.24        31.51369
339.69        31.52041
340.14        31.54985
340.59        31.54332
341.05        31.48847
341.50        31.38877
341.95        31.28444
342.40        31.25203
342.85        31.30089
343.30        31.39834
343.75        31.48099
344.20        31.45154
344.66        31.29907
345.11        31.05378
345.56        30.77344
346.01         30.5449
346.46        30.40392
346.91         30.3323
347.36        30.31483
347.81        30.32846
348.26        30.35491
348.72        30.38573
349.17        30.41969
349.62        30.44833
350.07        30.46216
350.52        30.46431
350.97        30.41633
351.42        30.26124
351.87         30.0081
352.32         29.6904
352.77        29.40593
353.22        29.31021
353.67        29.43323
354.13        29.71626
354.58        30.06262
355.03        30.31622
355.48         30.4157
355.93        30.39076
356.38        30.26413
356.83        30.07598
357.28        29.85132
357.73        29.58849
358.18        29.29691
358.63        28.99641
359.08        28.70031
359.53        28.41162
359.98        28.16698
360.43        28.01476
360.88        27.95322
361.33         27.9644
361.78        27.96657
362.23        27.82985
362.68        27.53403
363.13         27.1249
363.58        26.69526
364.03        26.39519
364.48        26.26184
364.93        26.24384
365.38        26.28529
365.83        26.29486
366.28        26.23895
366.73        26.14872
367.18        26.02211
367.63        25.85405
368.08        25.65193
368.53        25.41038
368.98        25.17124
369.43        25.00734
369.88        24.93494
370.33        24.94155
370.78        24.97015
371.23        24.92301
371.68        24.77423
372.13        24.54422
372.58        24.29632
373.03        24.13487
373.48        24.07876
373.93        24.09171
374.38        24.09562
374.83        23.96518
375.28        23.68263
375.72        23.29939
376.17        22.91939
376.62        22.64411
377.07        22.49738
377.52        22.43661
377.97        22.43727
378.42        22.46004
378.87        22.48135
379.32        22.51329
379.77        22.52164
380.22        22.45475
380.67        22.30591
381.11        22.07942
381.56         21.8367
382.01        21.68413
382.46        21.64825
382.91        21.70594
383.36        21.77791
383.81         21.7392
384.26        21.56766
384.71        21.30208
385.15         21.0276
385.60        20.90492
386.05        20.94876
386.50        21.10046
386.95        21.25908
387.40        21.26974
387.85         21.1051
388.29        20.81737
388.74        20.51485
389.19        20.27664
389.64        20.12707
390.09        20.03096
390.54        19.98508
390.98        19.98399
391.43        20.02151
391.88          20.094
392.33        20.15566
392.78        20.15979
393.23        20.10198
393.67        19.94759
394.12        19.75642
394.57        19.74784
395.02        19.64561
395.47        19.65715
395.91        19.66415
396.36        19.60221
396.81        19.46668
397.26        19.28975
397.71        19.10902
398.15        18.96737
398.60        18.90159
399.05        18.85401
399.50        18.81078
399.95        18.83484
400.39        18.82172
400.84        18.77155
401.29        18.66741
401.74        18.59642
402.18        18.56868
402.63        18.52144
403.08        18.47776
403.53        18.48774
403.97        18.55114
404.42        18.65791
404.87        18.74182
405.32        18.69616
405.76         18.5028
406.21        18.20385
406.66        17.90436
407.11        17.77016
407.55        17.84122
408.00         18.0702
408.45        18.34023
408.90        18.43852
409.34        18.30701
409.79        18.00983
410.24        17.69091
410.68         17.5667
411.13        17.68364
411.58        17.97309
412.03         18.2942
412.47        18.40967
412.92        18.24743
413.37        17.90173
413.81        17.50971
414.26         17.2958
414.71        17.29478
415.15         17.4416
415.60        17.63064
416.05        17.70708
416.49        17.62631
416.94        17.44916
417.39        17.23977
417.83        17.09168
418.28        17.04034
418.73        17.04481
419.17        17.09278
419.62        17.17103
420.07        17.26144
420.51         17.3647
420.96        17.44908
421.41        17.45333
421.85        17.36606
422.30        17.22511
422.74        17.06286
423.19          16.957
423.64        16.91817
424.08        16.93575
424.53         16.9829
424.98        17.04038
425.42         17.0978
425.87        17.14591
426.31        17.17354
426.76        17.19029
427.21        17.13735
427.65        17.04416
428.10        16.92016
428.54        16.76023
428.99        16.59313
429.44        16.53796
429.88        16.55217
430.33        16.35633
430.77        16.06491
431.22        16.20379
431.66        16.71249
432.11        16.98415
432.56        16.92594
433.00        16.87507
433.45        16.83537
433.89        16.55615
434.34        16.19037
434.78         16.1501
435.23        16.37636
435.67        16.43652
436.12        16.30994
436.57        16.24008
437.01        16.25732
437.46        16.29751
437.90        16.35846
438.35        16.45089
438.79        16.53672
439.24        16.52861
439.68        16.44137
440.13        16.36689
440.57        16.30894
441.02        16.28122
441.46        16.29428
441.91        16.22512
442.35        16.11572
442.80        16.37976
443.24        16.85981
443.69        16.75751
444.13        16.16713
444.58        15.91841
445.02        16.02715
445.47        16.06313
445.91        15.99806
446.36        15.99715
446.80        16.04859
447.24        16.11512
447.69        16.18341
448.13        16.23065
448.58         16.2514
449.02        16.24997
449.47        16.24152
449.91        16.24068
450.36        16.25432
450.80        16.27735
451.25        16.29708
451.69        16.29006
452.13         16.2516
452.58        16.19811
453.02        16.14476
453.47        16.11324
453.91        16.10489
454.36        16.15902
454.80        16.18077
455.24        16.20503
455.69        16.20454
456.13        16.18202
456.58        16.15666
457.02        16.14345
457.46        16.14872
457.91        16.16315
458.35        16.16843
458.79        16.14535
459.24        16.10183
459.68        16.05611
460.13        16.02293
460.57        15.95088
461.01        15.96818
461.46        15.91304
461.90        15.85412
462.34        15.98844
462.79        16.24315
463.23        16.26633
463.68        16.07644
464.12        16.00288
464.56        16.05675
465.01        16.07152
465.45        16.02905
465.89        15.97443
466.34        15.93712
466.78        15.98083
467.22        16.12102
467.67        16.12409
468.11        15.99231
468.55        15.81349
468.99        15.65421
469.44        15.57503
469.88        15.59413
470.32        15.70114
470.77        15.83012
471.21        15.88745
471.65        15.84414
472.10        15.73611
472.54        15.62211
472.98        15.60986
473.42        15.71794
473.87         15.9049
474.31        16.09984
474.75        16.19884
475.20        16.18278
475.64        16.08288
476.08        15.95466
476.52        15.87897
476.97        15.87937
477.41        15.92808
477.85        16.00346
478.29        16.06915
478.74         16.1177
479.18        16.15382
479.62        16.17872
480.06        16.23093
480.50        16.32167
480.95        16.28929
481.39        16.38661
481.83        16.46475
482.27         16.6081
482.72        16.66975
483.16         16.8525
483.60        16.92368
484.04        16.93409
484.48        16.90172
484.93        16.87808
485.37        16.91441
485.81        16.96535
486.25        17.20082
486.69        16.65155
487.14        16.90709
487.58        17.56248
488.02        17.21386
488.46        17.48555
488.90        18.22962
489.34        17.37912
489.79        17.42787
490.23        17.59397
490.67         17.7778
491.11        17.89223
491.55        17.89025
491.99        17.84323
492.43        17.94987
492.88         18.2186
493.32        18.48454
493.76        18.70389
494.20         18.9131
494.64         19.1044
495.08        19.26151
495.52        19.36244
495.96        19.42706
496.41         19.4711
496.85        19.38222
497.29        19.23775
497.73        19.49928
498.17         19.8712
498.61        20.03218
499.05        19.91447
499.49        19.93429
499.93        20.11669
500.37        20.28384
500.82        20.41063
501.26        20.50711
501.70        20.56893
502.14        20.62576
502.58        20.69292
503.02        20.76956
503.46        20.86209
503.90        20.97583
504.34        21.10828
504.78        21.24974
505.22        21.39204
505.66        21.52859
506.10        21.64184
506.54        21.73137
506.98        21.79843
507.42            21.8
507.86         21.7304
508.30        21.82855
508.74        21.70568
509.18        21.68638
509.62         21.6707
510.06        21.69574
510.50        21.76372
510.94        21.87176
511.38         21.9996
511.82        22.10008
512.26        22.15834
512.70        22.18099
513.14          22.185
513.58        22.19944
514.02        22.23279
514.46        22.27867
514.90        22.31937
515.34        22.32707
515.78         22.2986
516.22         22.2453
516.66        22.19838
517.10        22.20502
517.54        22.27081
517.98        22.37554
518.42        22.48021
518.86        22.52201
519.30        22.48586
519.74        22.39528
520.18        22.27705
520.62        22.17168
521.06        22.09647
521.50        22.04273
521.93        22.01594
522.37         22.0182
522.81        22.04665
523.25        22.09532
523.69        22.14917
524.13        22.18358
524.57        22.18942
525.01        22.17054
525.45          22.121
525.89        22.03607
526.32        21.91832
526.76        21.77702
527.20        21.63747
527.64        21.53918
528.08        21.48884
528.52        21.47744
528.96         21.4757
529.40        21.43464
529.83        21.34267
530.27        21.21821
530.71        21.08765
531.15        20.99587
531.59        20.95323
532.03        20.94325
532.46        20.94365
532.90        20.92679
533.34        20.88363
533.78        20.82834
534.22        20.76876
534.66        20.71535
535.09        20.67074
535.53        20.63469
535.97        20.61163
536.41        20.61623
536.85        20.64678
537.28        20.69666
537.72        20.74432
538.16        20.75738
538.60        20.72998
539.04        20.67713
539.47        20.61094
539.91        20.57033
540.35        20.56159
540.79        20.58239
541.22        20.63394
541.66        20.72111
542.10        20.83804
542.54        20.98151
542.97        21.14158
543.41        21.30386
543.85        21.46151
544.29        21.62023
544.72        21.76179
545.16        21.87604
545.60        21.96202
546.04        22.01381
546.47        22.06945
546.91        22.22436
547.35        22.47157
547.79        22.71645
548.22        22.91179
548.66        23.10784
549.10        23.30194
549.53        23.38824
549.97        23.35916
550.41        23.68436
550.84        23.66641
551.28        23.82542
551.72        23.94273
552.15        24.21757
552.59        24.34162
553.03        24.55802
553.46        24.75792
553.90        24.90623
554.34        24.99153
554.77         25.0498
555.21        25.10446
555.65        25.12805
556.08         25.1534
556.52        25.29121
556.96        25.50426
557.39        25.67304
557.83        25.77637
558.27        25.81408
558.70        25.83066
559.14        25.92875
559.57        26.09598
560.01        26.27713
560.45        26.42838
560.88        26.41081
561.32        26.38594
561.75        26.38131
562.19        26.44913
562.63        26.48408
563.06        26.48829
563.50        26.53941
563.93        26.62934
564.37         26.7339
564.80         26.8402
565.24        26.96004
565.68        27.07808
566.11        27.18768
566.55        27.28701
566.98        27.33956
567.42        27.39502
567.85        27.47269
568.29        27.56971
568.72        27.79024
569.16        28.16696
569.60        28.05034
570.03        28.28335
570.47        28.72705
570.90        28.62112
571.34        28.87701
571.77        28.92941
572.21        28.98855
572.64        28.98996
573.08        29.13555
573.51        29.43586
573.95        29.56634
574.38         29.6451
574.82        29.77403
575.25        29.55801
575.69        29.54573
576.12        29.41866
576.56        29.46359
576.99        29.82939
577.42        29.66132
577.86        29.61557
578.29         29.5654
578.73        29.71537
579.16        29.58687
579.60        29.61843
580.03        29.45105
580.47         29.6613
580.90        29.46786
581.33        29.07381
581.77        29.04107
582.20        29.03988
582.64        28.91044
583.07        28.54534
583.51         28.3776
583.94        28.51822
584.37        28.40748
584.81        28.07838
585.24        28.11123
585.68        28.30343
586.11        28.13035
586.54        27.77524
586.98        27.78053
587.41        28.11718
587.85        27.91579
588.28         27.8276
588.71        27.85611
589.15        27.81525
589.58        27.75764
590.01        27.76316
590.45        27.69614
590.88        27.66225
591.31        27.60421
591.75        27.50921
592.18         27.6643
592.61         28.0351
593.05        27.63071
593.48        27.63647
593.91        27.74327
594.35         27.6447
594.78        27.78091
595.21        27.95166
595.65        28.01469
596.08        27.90363
596.51        28.28958
596.94        28.67436
597.38        28.99259
597.81        29.03634
598.24         29.2526
598.68        29.45961
599.11        29.58802
599.54        29.86472
599.97        30.38907
600.41        30.35256
600.84        30.82303
601.27        31.07915
601.70        31.50994
602.14        31.92937
602.57        32.19865
603.00        32.34896
603.43        32.71505
603.87        33.20038
604.30         33.6406
604.73        33.98855
605.16        34.35134
605.60        34.71843
606.03        35.18082
606.46         35.6451
606.89        35.99124
607.32        36.26417
607.76        36.60884
608.19        37.04739
608.62        37.42755
609.05        37.92434
609.48        38.20153
609.92        38.33847
610.35        38.46854
610.78        38.98026
611.21        38.93411
611.64        39.34407
612.07        39.55281
612.50        39.81093
612.94        40.17321
613.37        40.69117
613.80        40.68022
614.23        41.23963
614.66        41.48257
615.09        41.75111
615.52        41.91147
615.96        41.95662
616.39        42.40281
616.82        42.11555
617.25        42.44655
617.68        42.39985
618.11         42.7554
618.54        43.21894
618.97        43.46212
619.40        43.50826
619.84        43.66356
620.27        43.96629
620.70        44.23488
621.13        44.39051
621.56        44.41408
621.99        44.29678
622.42        44.14432
622.85        44.49814
623.28        44.66015
623.71        44.98034
624.14        44.34021
624.57        44.79823
625.00        44.70227
625.43         44.6377
625.86        44.54002
626.29         44.4297
626.72        44.31294
627.15        44.17264
627.58         44.0712
628.01        43.97436
628.44        43.72232
628.87        43.36356
629.30        43.16573
629.73        43.11335
630.16        43.00169
630.59        42.67223
631.02         42.4951
631.45        42.22604
631.88        41.92979
632.31        41.54511
632.74         41.1059
633.17        40.64293
633.60        40.20881
634.03        39.82161
634.46        39.46264
634.89        39.11706
635.32        38.76411
635.75        38.39494
636.18        38.01411
636.61        37.62873
637.04        37.25518
637.47        36.90489
637.89        36.54819
638.32        36.16331
638.75        35.82688
639.18        35.55866
639.61        35.00072
640.04        34.80336
640.47         34.4778
640.90        34.21769
641.33        34.00957
641.76        33.84228
642.18        33.68829
642.61        33.52582
643.04        33.36839
643.47         33.2481
643.90          33.204
644.33        33.23838
644.76        33.38211
645.18        33.56543
645.61        33.58407
646.04        33.39262
646.47        33.40561
646.90         33.6177
647.33        33.79209
647.75        33.92726
648.18        34.19624
648.61        34.56749
649.04        34.91299
649.47        35.22752
649.89        35.53867
650.32        35.87271
650.75        36.35283
651.18        36.95069
651.61        37.47882
652.03        37.93906
652.46          38.483
652.89         39.0417
653.32        39.46586
653.74        39.84212
654.17        40.04498
654.60        40.10234
655.03        41.53225
655.46        41.07249
655.88        42.22122
656.31        44.48985
656.74         44.4982
657.16        44.13588
657.59        43.42296
658.02        44.04854
658.45        44.89559
658.87         45.6878
659.30        45.31902
659.73         46.0025
660.15          46.618
660.58        46.83667
661.01        47.11399
661.44        47.21889
661.86        47.13258
662.29        46.98771
662.72        47.33381
663.14        48.06954
663.57        48.26614
664.00        47.98659
664.42        48.03697
664.85        48.45288
665.27        48.89222
665.70        49.03635
666.13        49.27168
666.55         49.5132
666.98        49.71041
667.41        49.86258
667.83        49.97055
668.26        50.03487
668.69         50.0677
669.11        50.08911
669.54         50.1303
669.96        50.20231
670.39        50.30079
670.82        50.41005
671.24        50.50874
671.67        50.58123
672.09         50.6332
672.52        50.69941
672.94        50.87746
673.37        50.78059
673.80        51.29528
674.22        51.26426
674.65        51.51481
675.07        51.73735
675.50        51.94954
675.92         52.1313
676.35        52.24563
676.77        52.30284
677.20        52.29396
677.62        52.27311
678.05          52.326
678.47         52.4663
678.90        52.67887
679.32        52.88937
679.75         52.9853
680.17         52.9402
680.60        52.80044
681.02        52.65123
681.45         52.6183
681.87        52.73389
682.30        52.98046
682.72        53.29503
683.15        53.44306
683.57        53.44792
684.00        53.57019
684.42        53.78926
684.85        53.89491
685.27        53.88688
685.70        53.82953
686.12        53.79904
686.54        54.03954
686.97        54.48119
687.39        54.80996
687.82        54.92622
688.24        54.99754
688.66        55.00454
689.09        54.81187
689.51        54.51485
689.94        54.35542
690.36        54.37668
690.78         54.5098
691.21        54.70367
691.63        54.88126
692.06        55.00731
692.48           55.11
692.90        55.18469
693.33        55.22113
693.75        55.22488
694.17        55.18407
694.60        55.13798
695.02        55.14727
695.44         55.2188
695.87        55.41291
696.29        55.67058
696.71        55.68336
697.14        55.51963
697.56        55.60977
697.98        55.93122
698.41         56.1007
698.83        56.09842
699.25        56.15569
699.68        56.25164
700.10        56.28677
700.52         56.2473
700.94        56.17384
701.37        56.09231
701.79        56.05994
702.21          56.083
702.64        56.15312
703.06        56.25121
703.48        56.35503
703.90        56.45746
704.33        56.57571
704.75        56.67925
705.17        56.77826
705.59        56.85117
706.01        56.89512
706.44        56.92837
706.86        56.97538
707.28        57.03695
707.70        57.14609
708.12         57.2793
708.55        57.30524
708.97        57.25728
709.39        57.33186
709.81        57.53215
710.23        57.70261
710.66        57.82449
711.08        58.00327
711.50        58.20217
711.92          58.343
712.34        58.41678
712.76        58.44585
713.19        58.42984
713.61        58.40846
714.03        58.38206
714.45        58.35008
714.87        58.33535
715.29         58.3714
715.71        58.46008
716.13        58.58959
716.56          58.715
716.98        58.82969
717.40        58.89406
717.82        58.91777
718.24        58.90676
718.66         58.8742
719.08        58.83083
719.50        58.77534
719.92        58.72735
720.34         58.7178
720.76        58.75251
721.19        58.81806
721.61        58.90335
722.03         58.9647
722.45        58.98778
722.87        58.97858
723.29        58.95073
723.71        58.92788
724.13        58.91971
724.55        58.92585
724.97        58.93454
725.39        58.92507
725.81        58.90023
726.23        58.87317
726.65         58.8763
727.07        58.96111
727.49        59.12945
727.91        59.34847
728.33        59.57839
728.75        59.75339
729.17        59.84746
729.59        59.88432
730.01        59.84911
730.43        59.72252
730.85        59.52498
731.27        59.27241
731.69        59.05589
732.10        59.03268
732.52        59.22997
732.94        59.58177
733.36        59.97113
733.78        60.33163
734.20        60.39261
734.62        60.33288
735.04        60.18301
735.46        60.21222
735.88        60.42594
736.30        60.49921
736.72        60.41555
737.13        60.54514
737.55        60.75528
737.97        60.50244
738.39        59.93568
738.81        59.67783
739.23        59.83337
739.65        60.27777
740.06        60.77844
740.48        60.98219
740.90        60.81159
741.32        60.44025
741.74        60.04623
742.16        59.87328
742.57        60.00701
742.99        60.34591
743.41        60.75504
743.83        61.03304
744.25        61.10772
744.67         60.9949
745.08        60.79318
745.50        60.70116
745.92        60.77049
746.34        60.90312
746.75        61.07708
747.17        61.22474
747.59        61.31628
748.01        61.49051
748.42        61.74089
748.84        61.44901
749.26        61.59237
749.68        61.31628
750.09        61.00442
750.51        61.04517
750.93        61.35337
751.35        61.36314
751.76        61.09229
752.18        61.03536
752.60        61.20247
753.01        61.31083
753.43        61.31718
753.85        61.31792
754.27        61.32302
754.68        61.33302
755.10        61.35238
755.52        61.39239
755.93        61.43231
756.35        61.43694
756.77        61.49026
757.18        61.63467
757.60        61.86283
758.02        62.43335
758.43         63.0473
758.85         62.6455
759.26        61.49035
759.68        61.02118
760.10        61.35098
760.51         61.7005
760.93        61.92595
761.34        62.07856
761.76        62.10572
762.18        62.17551
762.59        62.26017
763.01        61.93931
763.42        61.37921
763.84        61.13985
764.26        61.29846
764.67        61.56968
765.09        61.86302
765.50        62.14234
765.92        62.35201
766.33        62.35983
766.75        62.12038
767.16        62.19905
767.58         62.1098
768.00        61.99799
768.41        61.79942
768.83        62.01118
769.24        62.44993
769.66        62.45539
770.07        61.97161
770.49        61.62887
770.90        61.54361
771.32        61.84465
771.73        62.39758
772.15        62.58712
772.56        62.35668
772.97         62.2739
773.39        62.02316
773.80        62.07397
774.22        62.30321
774.63        62.72097
775.05        63.13627
775.46        63.33386
775.88        63.22773
776.29        62.91323
776.70        62.51311
777.12        62.25079
777.53        62.20284
777.95        62.29677
778.36        62.47979
778.77        62.65632
779.19        62.79019
779.60        62.93299
780.02        63.06216
780.43        63.24658
780.84        63.48558
781.26        63.55011
781.67        63.46967
782.09        63.82504
782.50        64.26531
782.91        63.92917
783.33         63.2637
783.74        62.81408
784.15        62.77432
784.57         62.7232
784.98        62.65184
785.39        62.62837
785.81        62.69638
786.22        63.05212
786.63        63.60253
787.04        63.98349
787.46        64.14154
787.87        64.21651
788.28        64.27348
788.70        64.31812
789.11        64.35909
789.52        64.50952
789.93        64.67912
790.35        64.48293
790.76        64.02582
791.17        63.88665
791.58        64.10601
792.00        64.21645
792.41        64.21803
792.82         64.4968
793.23        64.95284
793.65        64.99583
794.06        64.71139
794.47        64.76985
794.88        65.12413
795.29        65.18658
795.71        64.91507
796.12         64.7543
796.53        64.74084
796.94        64.57446
797.35         64.3553
797.76        64.58898
798.18        65.15233
798.59        65.44112
799.00        65.37357
799.41        65.26981
799.82        65.19458
800.23        65.12769
800.64        65.10286
801.06        65.09443
801.47         65.1416
801.88        65.24456
802.29        65.38437
802.70        65.53336
803.11        65.65431
803.52        65.68628
803.93        65.63259
804.34         65.5349
804.75        65.37282
805.17        65.21691
805.58        65.13805
805.99        64.79804
806.40        64.39065
806.81        64.97044
807.22        66.21461
807.63        66.33025
808.04        65.39305
808.45        65.10577
808.86        65.57507
809.27        65.78718
809.68        65.65676
810.09        65.57433
810.50        65.54462
810.91        65.45183
811.32        65.37869
811.73        65.45779
812.14        65.70224
812.55        66.09726
812.96        66.48881
813.37        66.57854
813.78        66.31111
814.19        65.80786
814.60        65.27139
815.01        64.98706
815.42        65.01886
815.83        65.27522
816.24        65.67167
816.65        66.02908
817.05        66.25498
817.46         66.3687
817.87        66.37035
818.28        66.21074
818.69        65.90807
819.10        65.46812
819.51        65.02378
819.92        64.83504
820.33        64.97021
820.74         65.3503
821.14        65.83072
821.55        66.18459
821.96        66.33436
822.37        66.34805
822.78        66.24338
823.19        66.06783
823.60        65.85839
824.00        65.58679
824.41        65.32865
824.82        65.23803
825.23        65.33738
825.64        65.61707
826.04        65.94057
826.45        65.98692
826.86        65.71169
827.27        65.20435
827.68        64.69246
828.08         64.5629
828.49        64.86093
828.90        65.50553
829.31        66.28886
829.72        66.84834
830.12         67.0869
830.53        67.02258
830.94        66.84243
831.35        66.82881
831.75        67.07605
832.16        67.42767
832.57        67.73925
832.97        67.73875
833.38        67.38065
833.79        66.83263
834.20        66.25015
834.60        65.82545
835.01        65.64939
835.42        65.63268
835.82         65.8274
836.23        66.25782
836.64        66.90067
837.04        67.75628
837.45        68.52264
837.86        68.84279
838.26        68.62406
838.67        67.97544
839.08        67.14715
839.48        66.52044
839.89        66.25784
840.29        66.26563
840.70        66.46053
841.11        66.71191
841.51        66.98064
841.92        67.26585
842.33        67.58811
842.73        67.95426
843.14        68.29546
843.54        68.61047
843.95        68.81458
844.35        68.85217
844.76        68.69949
845.17        68.37122
845.57        67.99594
845.98        67.74964
846.38        67.69936
846.79         67.8122
847.19        67.94413
847.60         67.7984
848.00         67.3454
848.41        66.69982
848.81        66.11655
849.22        65.97066
849.62         66.3632
850.03        67.12324
850.43        68.06032
850.84        68.65494
851.24        68.78542
851.65        68.49492
852.05        67.96631
852.46        67.46324
852.86        67.08886
853.27        66.84776
853.67        66.60155
854.07        66.31432
854.48         65.9276
854.88        65.48354
855.29        65.05365
855.69        64.95105
856.10         65.1675
856.50        65.70234
856.90        66.24294
857.31        66.35782
857.71        66.01411
858.12        65.29951
858.52        64.54682
858.92        64.27729
859.33        64.60648
859.73        65.40672
860.13        66.37719
860.54        67.03232
860.94        67.26187
861.34        67.13396
861.75        66.75439
862.15        66.36182
862.55        66.03098
862.96        65.72273
863.36        65.38306
863.76        64.95309
864.17        64.45749
864.57        63.97398
864.97        63.60936
865.38        63.47101
865.78        63.59578
866.18        63.90185
866.58        64.33006
866.99         64.7384
867.39        65.09224
867.79         65.4114
868.19        65.56809
868.60        65.37428
869.00         64.8422
869.40        64.01021
869.80        63.27221
870.21        63.29355
870.61        64.22855
871.01        65.82321
871.41        67.46382
871.81         68.1759
872.22        67.73103
872.62        66.42294
873.02        64.79284
873.42        63.75752
873.82        63.60413
874.22         64.0826
874.63        64.82019
875.03        65.24355
875.43        65.19158
875.83        64.84778
876.23         64.4944
876.63        64.57354
877.03        65.17032
877.44        66.06132
877.84        66.94618
878.24        67.26791
878.64        66.91571
879.04         66.1219
879.44        65.20661
879.84        64.62664
880.24        64.49333
880.64        64.64103
881.04        64.97901
881.44        65.35291
881.84        65.68469
882.24         66.0537
882.65        66.29482
883.05        66.24849
883.45        65.86114
883.85        65.21002
884.25         64.6097
884.65        64.55299
885.05        65.11247
885.45        66.10167
885.85        67.22899
886.25         67.9814
886.65        68.17091
887.05        67.96062
887.45        67.39075
887.85        66.56127
888.25        65.62246
888.65        64.60487
889.04        63.75057
889.44        63.43711
889.84        63.65766
890.24        64.35225
890.64        65.25767
891.04        65.79089
891.44        65.75867
891.84        65.35033
892.24        64.84785
892.64        64.65413
893.04        64.85468
893.44        65.29371
893.83        65.91592
894.23        66.54857
894.63        67.12069
895.03        67.68887
895.43        68.13888
895.83        68.29555
896.23        68.14386
896.63        67.68736
897.02        67.15114
897.42        66.99153
897.82        67.27438
898.22        67.91045
898.62        68.53244
899.01        68.52917
899.41        67.77164
899.81        66.48098
900.21        65.13048
900.61        64.43719
901.00        64.55747
901.40        65.27943
901.80        66.16862
902.20        66.50956
902.59        66.11764
902.99        65.22519
903.39         64.2288
903.79        63.71334
904.18        63.81527
904.58        64.35848
904.98         65.0321
905.38        65.37592
905.77        65.24931
906.17        64.79853
906.57        64.28683
906.96        64.14758
907.36         64.4536
907.76        65.10008
908.15         65.7746
908.55        65.84922
908.95        65.26209
909.34        64.21069
909.74        63.23825
910.14        63.03856
910.53        63.78086
910.93        65.18263
911.33        66.84218
911.72        68.12917
912.12        68.74849
912.52         68.8828
912.91        68.72797
913.31        68.62312
913.70        68.69281
914.10        68.78396
914.49        68.77261
914.89        68.46665
915.29        67.86793
915.68        67.10557
916.08        66.39451
916.47        65.91486
916.87        65.76862
917.26        65.84859
917.66        66.10416
918.05        66.46853
918.45        66.83682
918.84        67.26637
919.24        67.57449
919.64        67.59412
920.03        67.30723
920.42        66.74391
920.82        66.13789
921.21        65.76185
921.61        65.70522
922.00        65.92394
922.40        66.28374
922.79        66.62197
923.19        66.84068
923.58        66.99686
923.98        67.14202
924.37        67.37627
924.77        67.69769
925.16         68.0479
925.55        68.32214
925.95        68.37009
926.34        68.18105
926.74        67.80704
927.13        67.34356
927.52        66.90398
927.92        66.55502
928.31        66.26828
928.70        66.07057
929.10        65.97984
929.49        65.98591
929.89        66.06065
930.28        66.17444
930.67        66.20057
931.07        66.10491
931.46        65.94021
931.85        65.72405
932.24        65.49796
932.64        65.30062
933.03         65.1315
933.42        65.06189
933.82        65.19402
934.21        65.54656
934.60        66.03574
934.99        66.57741
935.39        67.01064
935.78        67.32175
936.17        67.52406
936.56         67.4853
936.96         67.0422
937.35         66.2433
937.74        65.19923
938.13        64.27446
938.53        63.92343
938.92        64.17933
939.31        64.95933
939.70        65.94855
940.09        66.51781
940.49        66.44529
940.88        65.91919
941.27        65.24545
941.66        64.90244
942.05        65.01268
942.44        65.45954
942.84        65.98206
943.23        66.18676
943.62        65.92044
944.01        65.31184
944.40        64.72968
944.79          64.703
945.18        65.31918
945.57        66.42603
945.97        67.48994
946.36        67.82788
946.75        67.16732
947.14         65.7599
947.53        64.22895
947.92        63.50997
948.31        63.82344
948.70        64.92511
949.09        66.25647
949.48        66.80404
949.87        66.27548
950.26        65.01019
950.65        63.61536
951.04        62.92062
951.43         63.1134
951.82        63.96958
952.21        65.02679
952.60        65.45776
952.99        65.02189
953.38        63.99011
953.77        62.94783
954.16        62.66929
954.55        63.30482
954.94        64.69915
955.33        66.26224
955.72         66.7435
956.11        65.76205
956.50        63.77825
956.89         61.7779
957.28        61.03385
957.66        61.82326
958.05         63.7329
958.44        66.05611
958.83        67.32725
959.22        67.03336
959.61        65.67847
960.00        64.03133
960.39        63.07354
960.78         62.9925
961.16        63.48724
961.55        64.15794
961.94        64.31127
962.33        63.73444
962.72        62.80574
963.11        61.82813
963.49         61.1503
963.88        60.87256
964.27        60.84993
964.66        61.15161
965.04        61.95781
965.43        63.15144
965.82        64.67934
966.21         66.1581
966.60        66.88373
966.98        66.69889
967.37        65.85722
967.76        64.73321
968.15        63.84063
968.53         63.3042
968.92        62.92785
969.31        62.82598
969.69        63.21275
970.08        64.04513
970.47        65.42141
970.86        66.73415
971.24        66.91914
971.63        65.77158
972.02        63.63533
972.40        61.56143
972.79        61.22554
973.17         62.8908
973.56        65.92391
973.95        69.29721
974.33        71.05427
974.72        70.51388
975.11        68.35522
975.49        65.55115
975.88          63.904
976.26         63.8857
976.65        64.92471
977.04        66.51926
977.42        67.75708
977.81        68.10818
978.19        67.95047
978.58        67.45127
978.96        66.72655
979.35        65.95626
979.74        65.11886
980.12        64.36091
980.51         63.9519
980.89        64.02052
981.28        64.33643
981.66        65.12762
982.05        66.46278
982.43        68.35867
982.82        70.75908
983.20        72.78294
983.59        72.83501
983.97        70.69921
984.35        66.90807
984.74        63.18167
985.12        61.96389
985.51        63.60181
985.89        67.47204
986.28        71.81618
986.66        74.02888
987.04        73.17245
987.43        70.02959
987.81        65.92652
988.20        63.52367
988.58        63.57723
988.96        65.39957
989.35        67.53632
989.73        67.84351
990.12        65.73814
990.50        62.11038
990.88        58.24185
991.27        56.13234
991.65        56.27761
992.03        58.03824
992.42        60.58662
992.80        63.00353
993.18        64.81348
993.56        66.29774
993.95        67.41239
994.33        68.18061
994.71        68.54086
995.10        68.46554
995.48        68.05835
995.86        67.62877
996.24        67.29821
996.63        66.94041
997.01        66.84579
997.39        67.29174
997.77        68.23344
998.15        69.55369
998.54        70.64313
998.92        70.55565
999.30        69.11266
999.68        66.63956
1000.06        63.82262
1000.45        61.96623
1000.83        61.66549
1001.21        62.61264
1001.59        64.56844
1001.97        67.06234
1002.35        69.72112
1002.73        72.50629
1003.12        74.93869
1003.50        76.23109
1003.88        76.26971
1004.26         75.2534
1004.64        73.52123
1005.02        71.79122
1005.40        70.42592
1005.78         69.3189
1006.16         68.6465
1006.54        68.57752
1006.92        69.08143
1007.30         70.2411
1007.69        71.57975
1008.07        72.10257
1008.45        71.42701
1008.83        69.75731
1009.21        67.88214
1009.59        67.22681
1009.97        68.11759
1010.35        70.00889
1010.73        72.20551
1011.11        73.57118
1011.49        73.73315
1011.86        73.18825
1012.24         71.8912
1012.62        69.93713
1013.00        67.46029
1013.38        64.33852
1013.76        61.26489
1014.14        59.77418
1014.52         60.4164
1014.90        62.92698
1015.28        66.07735
1015.66        67.84562
1016.04        67.69848
1016.41        66.16158
1016.79        64.01333
1017.17        62.91768
1017.55        63.39715
1017.93        64.74223
1018.31        66.39259
1018.69        68.05566
1019.06        69.91836
1019.44        72.20541
1019.82        75.28897
1020.20        78.78961
1020.58        81.55814
1020.95        82.86348
1021.33        82.67056
1021.71        81.22308
1022.09        78.53416
1022.46        74.15189
1022.84        68.31454
1023.22         62.5495
1023.60        58.92285
1023.97        57.75133
1024.35        58.28043
1024.73        59.37106
