SpectraSmart Spectrum 2.9.0.0
--------- Device Information -----------
Spectrum Name :  反射率_0
Saving Time :  2024/04/30 01:10:12
Spectro-Module Model Name : SE2030-DUVN
Spectro-Module Serial Number : OS361AC55029948
Wavelength Start : 200
Wavelength End : 1025
Wavelength Unit : Wavelength(nm)
Spectrum Unit : Reflectance(%)
-----------Spectrum Setting ------------
Integration Time : 20ms
Average : 10
Boxcar : 0
Background removal :  enabled
linearity correction :  enabled
SC :  disabled
Intensity correction :  disabled
DWT denoise :  enabled
savitzky-golay :  disabled
FFT :  disabled
Running average :  disabled
Kalman :  disabled
High pass :  disabled
---------------BEGIN--------------------
Wavelength(nm)             Reflectance(%)
200.29               0
200.75        41.77501
201.21        33.63573
201.67        24.17214
202.13        15.13227
202.58        7.680152
203.04        1.684597
203.50      -0.5356509
203.96         5.81681
204.42        21.23008
204.88        42.89338
205.34        62.52934
205.80         68.4222
206.26        61.77927
206.72        50.41753
207.18        39.08975
207.64        30.12888
208.10        22.98876
208.55        15.76341
209.01        10.31277
209.47        11.65876
209.93        19.47577
210.39        30.72754
210.85        40.03217
211.31        43.01874
211.77        39.55045
212.23        29.09295
212.69        13.96413
213.14        8.097247
213.60        17.75304
214.06        34.69668
214.52        48.69489
214.98        53.30173
215.44        49.87365
215.90        41.15857
216.36        30.74636
216.81        25.46547
217.27        28.91929
217.73        40.62749
218.19        59.38543
218.65        74.69774
219.11        77.85667
219.57        72.02039
220.02        63.92604
220.48        58.79209
220.94        56.10923
221.40        53.97297
221.86        50.54311
222.32        43.84492
222.77        36.17034
223.23        31.05493
223.69        28.44825
224.15        27.45276
224.61        27.45982
225.06        27.93801
225.52        29.72677
225.98        33.41319
226.44        37.80934
226.90        41.87507
227.36        44.23178
227.81        44.01266
228.27        41.60547
228.73         37.2371
229.19        32.53065
229.65         31.0902
230.10        33.41425
230.56        37.51649
231.02        41.07492
231.48         42.0643
231.93        40.52243
232.39        37.36317
232.85        33.59125
233.31        31.13473
233.77        30.73941
234.22        31.93648
234.68        34.00628
235.14        35.58736
235.60        36.18097
236.05        36.18828
236.51        36.26048
236.97        37.27523
237.43        39.54868
237.88        43.15362
238.34        47.49581
238.80        50.80579
239.26        51.62961
239.71        50.33581
240.17        47.95274
240.63         46.2005
241.08        45.58397
241.54        45.84451
242.00        47.56732
242.46        51.44324
242.91        57.13988
243.37        63.21234
243.83        67.96436
244.28        71.21207
244.74        73.31445
245.20        73.70659
245.66        72.76389
246.11        71.74579
246.57        71.41682
247.03        72.54922
247.48        73.22362
247.94         69.3334
248.40        62.66937
248.85        56.05227
249.31        52.66133
249.77        53.82828
250.22         59.5894
250.68        71.09354
251.14        88.10965
251.59        97.06758
252.05        88.89487
252.51        74.73814
252.96         63.4925
253.42        57.72932
253.88        55.38807
254.33        54.59983
254.79        55.36052
255.25        56.96612
255.70        58.44036
256.16        59.98904
256.62        61.14462
257.07        61.63463
257.53        61.93492
257.99         61.9187
258.44        61.42236
258.90         60.9597
259.35        60.25456
259.81        59.65201
260.27        59.04121
260.72        58.34795
261.18        57.74399
261.63        56.99088
262.09        56.20399
262.55        55.21121
263.00        54.01162
263.46        52.88165
263.91        51.74243
264.37        50.78682
264.83        49.93132
265.28        49.08795
265.74        48.38852
266.19        47.80332
266.65        47.39604
267.11        47.10915
267.56        46.84776
268.02         46.4835
268.47        45.95194
268.93        45.28419
269.38        44.51422
269.84        43.82519
270.30        43.24293
270.75        42.71791
271.21         42.1653
271.66        41.41346
272.12        40.44789
272.57        39.32222
273.03        38.17844
273.48         37.1514
273.94        36.36154
274.39        35.72976
274.85        35.26689
275.31        34.89937
275.76        34.56606
276.22        34.29552
276.67         34.0186
277.13        33.73951
277.58        33.39632
278.04        33.02448
278.49        32.56398
278.95        32.04091
279.40        31.42246
279.86          30.789
280.31        30.14252
280.77        29.60746
281.22        29.17069
281.68        28.84892
282.13        28.60207
282.59        28.42145
283.04        28.27015
283.50        28.14794
283.95        28.02369
284.41        27.86787
284.86         27.6629
285.32        27.45467
285.77         27.2162
286.22        26.98774
286.68        26.79094
287.13        26.57787
287.59        26.41421
288.04        26.33778
288.50        26.36567
288.95         26.4589
289.41        26.54322
289.86        26.46216
290.32        26.22743
290.77        25.89143
291.22        25.58287
291.68        25.50094
292.13        25.67624
292.59         26.0561
293.04        26.57191
293.50         27.1546
293.95        27.76488
294.40        28.43295
294.86        29.10036
295.31        29.69179
295.77        30.19579
296.22        30.61786
296.68        31.06058
297.13        31.66524
297.58        32.46539
298.04        33.38876
298.49        34.32737
298.95        35.11005
299.40        35.68865
299.85        36.11784
300.31        36.47667
300.76        36.82719
301.21         37.2238
301.67        37.65139
302.12        38.06676
302.58        38.54947
303.03        39.08048
303.48        39.53204
303.94        39.87331
304.39         40.6682
304.84        40.85869
305.30        41.29132
305.75        41.62014
306.20        41.87019
306.66        42.05093
307.11        42.15464
307.57        42.22996
308.02        42.26156
308.47        42.27272
308.93        42.27079
309.38        42.25179
309.83        42.26237
310.29        42.31054
310.74        42.38725
311.19         42.4402
311.65        42.37756
312.10        42.18464
312.55         41.8954
313.00        41.61933
313.46        41.52798
313.91        41.63508
314.36        41.88213
314.82        42.13661
315.27        42.20719
315.72        42.03086
316.18        41.67675
316.63        41.22186
317.08        40.80199
317.53        40.47525
317.99        40.22142
318.44        40.02128
318.89        39.84847
319.35        39.69157
319.80        39.56077
320.25        39.48481
320.70        39.50285
321.16        39.59554
321.61        39.75318
322.06        39.87401
322.51        39.81011
322.97        39.52985
323.42        39.08435
323.87        38.58393
324.32        38.21154
324.78        38.00598
325.23        37.94051
325.68        37.92804
326.13        37.82147
326.59         37.5745
327.04        37.25299
327.49        36.92226
327.94        36.70082
328.39        36.61157
328.85        36.58817
329.30        36.59254
329.75        36.50231
330.20        36.28728
330.66        35.99572
331.11        35.66755
331.56        35.33337
332.01        35.01832
332.46        34.70388
332.92        34.44023
333.37        34.36113
333.82        34.46731
334.27        34.72327
334.72        34.98998
335.17        35.03021
335.63        34.77903
336.08        34.31818
336.53        33.76477
336.98        33.34645
337.43        33.14509
337.88        33.10027
338.34        33.15946
338.79        33.25552
339.24        33.34457
339.69        33.45497
340.14         33.5575
340.59        33.59792
341.05         33.5659
341.50        33.45735
341.95        33.31391
342.40         33.2208
342.85        33.19375
343.30        33.20506
343.75        33.20408
344.20        33.10942
344.66        32.91479
345.11        32.64937
345.56        32.35952
346.01        32.11099
346.46        31.93625
346.91        31.82614
347.36        31.77655
347.81        31.78069
348.26        31.82485
348.72        31.89425
349.17        31.98461
349.62        32.08108
350.07        32.16719
350.52        32.24265
350.97        32.26205
351.42        32.16058
351.87        31.94353
352.32         31.6413
352.77        31.35094
353.22         31.2306
353.67        31.30945
354.13         31.5271
354.58         31.7896
355.03        31.94258
355.48        31.93454
355.93        31.81301
356.38        31.59862
356.83        31.32495
357.28         31.0194
357.73        30.67433
358.18        30.34108
358.63         30.1046
359.08        29.97647
359.53        29.93452
359.98        29.91692
360.43        29.81702
360.88        29.60958
361.33        29.33144
361.78        29.02186
362.23        28.74358
362.68        28.52313
363.13        28.34522
363.58        28.21185
364.03        28.12721
364.48        28.08174
364.93        28.06579
365.38        28.06256
365.83        28.04351
366.28        27.99497
366.73        27.92101
367.18        27.80168
367.63        27.61067
368.08        27.35115
368.53        27.03335
368.98        26.71416
369.43        26.48495
369.88        26.36818
370.33        26.34512
370.78        26.35113
371.23        26.27642
371.68          26.091
372.13        25.82037
372.58        25.52984
373.03        25.32571
373.48        25.22976
373.93        25.20638
374.38        25.18285
374.83        25.04312
375.28         24.7709
375.72        24.41304
376.17        24.06957
376.62        23.83487
377.07        23.72972
377.52         23.7126
377.97        23.75372
378.42        23.80539
378.87        23.84191
379.32        23.87564
379.77        23.88162
380.22        23.82356
380.67        23.69677
381.11         23.5007
381.56        23.28422
382.01        23.13301
382.46        23.06968
382.91        23.07967
383.36        23.09659
383.81        23.01425
384.26        22.81593
384.71        22.53546
385.15        22.25275
385.60        22.12021
386.05        22.15016
386.50        22.28804
386.95        22.43424
387.40        22.43567
387.85        22.26501
388.29        21.97038
388.74        21.66248
389.19        21.42199
389.64        21.27174
390.09        21.17515
390.54        21.12223
390.98         21.0967
391.43        21.09381
391.88        21.11692
392.33        21.13018
392.78        21.10093
393.23        21.02715
393.67        20.86677
394.12        20.67695
394.57        20.67904
395.02        20.58089
395.47        20.60306
395.91        20.61866
396.36        20.55531
396.81        20.40828
397.26        20.21226
397.71        20.01555
398.15        19.87704
398.60        19.83568
399.05        19.82475
399.50         19.8189
399.95        19.86968
400.39        19.86351
400.84        19.80414
401.29        19.67901
401.74        19.58962
402.18        19.55072
402.63        19.49443
403.08        19.44161
403.53        19.43986
403.97        19.48757
404.42        19.57585
404.87        19.64203
405.32        19.58366
405.76        19.38446
406.21        19.08817
406.66        18.79173
407.11         18.6493
407.55        18.69839
408.00        18.89019
408.45        19.12664
408.90        19.22746
409.34        19.13884
409.79          18.915
410.24        18.66074
410.68        18.53326
411.13        18.56986
411.58        18.72021
412.03        18.89392
412.47         18.9426
412.92        18.81833
413.37         18.5874
413.81        18.33502
414.26         18.2109
414.71        18.23158
415.15        18.35292
415.60        18.50069
416.05        18.57365
416.49        18.53985
416.94        18.43726
417.39        18.29886
417.83        18.17192
418.28        18.08074
418.73        18.00354
419.17        17.95248
419.62        17.95044
420.07        17.99283
420.51        18.07185
420.96        18.14924
421.41        18.15273
421.85        18.06586
422.30        17.93006
422.74        17.77794
423.19         17.6878
423.64        17.66861
424.08        17.70696
424.53        17.76912
424.98        17.82669
425.42        17.86773
425.87        17.88607
426.31        17.87959
426.76        17.87286
427.21        17.80911
427.65        17.71594
428.10        17.59864
428.54        17.44309
428.99         17.2761
429.44         17.2255
429.88        17.24636
430.33        17.04498
430.77         16.7402
431.22        16.88101
431.66        17.40875
432.11        17.69084
432.56        17.62853
433.00        17.60081
433.45        17.60531
433.89        17.28734
434.34         16.8417
434.78        16.87218
435.23        17.27099
435.67        17.36448
436.12        17.11859
436.57        16.90757
437.01        16.81026
437.46        16.79719
437.90        16.88517
438.35        17.07035
438.79        17.27283
439.24        17.33808
439.68        17.26266
440.13        17.16031
440.57        17.05199
441.02        16.98199
441.46        16.97321
441.91        16.88705
442.35        16.76378
442.80        17.03026
443.24        17.52059
443.69        17.40866
444.13        16.79358
444.58        16.53615
445.02        16.65171
445.47        16.69149
445.91        16.62469
446.36        16.62103
446.80        16.66905
447.24        16.73342
447.69        16.79948
448.13        16.84226
448.58        16.85666
449.02        16.84469
449.47        16.83279
449.91        16.85292
450.36        16.91175
450.80         16.9977
451.25        17.07157
451.69         17.0679
452.13        16.97608
452.58        16.82761
453.02        16.67125
453.47        16.58216
453.91        16.57442
454.36        16.67172
454.80        16.75064
455.24        16.80577
455.69        16.79685
456.13        16.74059
456.58        16.66971
457.02        16.61879
457.46        16.60166
457.91        16.60282
458.35        16.60075
458.79        16.57313
459.24        16.52667
459.68        16.48151
460.13        16.45469
460.57        16.39542
461.01        16.43422
461.46        16.40253
461.90        16.36329
462.34        16.50926
462.79        16.76331
463.23        16.76525
463.68        16.54385
464.12        16.45324
464.56         16.5076
465.01        16.53017
465.45        16.49601
465.89        16.44243
466.34        16.39693
466.78        16.42818
467.22        16.55299
467.67        16.53256
468.11        16.37351
468.55        16.16975
468.99        15.99169
469.44        15.90499
469.88        15.92876
470.32        16.04749
470.77        16.20105
471.21         16.3045
471.65        16.32492
472.10        16.29352
472.54        16.24098
472.98         16.2329
473.42        16.28405
473.87        16.36898
474.31        16.45643
474.75        16.50498
475.20        16.50933
475.64        16.48091
476.08        16.44245
476.52        16.42326
476.97        16.43193
477.41        16.45476
477.85        16.48758
478.29        16.52286
478.74        16.56088
479.18        16.59429
479.62        16.61298
480.06        16.63996
480.50        16.68537
480.95         16.5982
481.39        16.64609
481.83        16.68562
482.27        16.80985
482.72        16.87377
483.16        17.08669
483.60        17.21121
484.04         17.2898
484.48        17.34699
484.93        17.42947
485.37        17.50333
485.81        17.50342
486.25         17.8092
486.69        17.41836
487.14        17.51891
487.58        17.65291
488.02        17.82332
488.46        18.06215
488.90        18.51386
489.34        17.85343
489.79        17.78258
490.23        17.92355
490.67        18.14642
491.11        18.35846
491.55        18.34621
491.99        18.18839
492.43        18.26364
492.88        18.58797
493.32        18.90013
493.76        19.13878
494.20         19.3601
494.64        19.55073
495.08        19.68422
495.52        19.75831
495.96        19.82288
496.41        19.89767
496.85        19.87307
497.29         19.7885
497.73        20.02876
498.17        20.29288
498.61        20.33824
499.05        20.13982
499.49        20.12436
499.93        20.32926
500.37        20.59153
500.82        20.84521
501.26         21.0168
501.70        21.08195
502.14        21.09331
502.58         21.0957
503.02        21.13586
503.46         21.2321
503.90        21.37166
504.34        21.52849
504.78        21.65625
505.22        21.73915
505.66        21.78922
506.10        21.80997
506.54        21.83101
506.98        21.86465
507.42        21.85932
507.86        21.80537
508.30        21.93636
508.74        21.85469
509.18        21.88433
509.62        21.91644
510.06        21.97556
510.50        22.05988
510.94        22.16908
511.38        22.28246
511.82        22.35411
512.26         22.3751
512.70        22.35635
513.14        22.32879
513.58         22.3424
514.02        22.40765
514.46          22.508
514.90        22.61336
515.34        22.67446
515.78        22.67759
516.22        22.63882
516.66        22.58129
517.10        22.54053
517.54        22.52683
517.98        22.52864
518.42        22.53312
518.86        22.52044
519.30        22.48555
519.74        22.43763
520.18        22.38578
520.62        22.34123
521.06        22.30844
521.50        22.28522
521.93        22.26871
522.37        22.24824
522.81        22.22396
523.25        22.19639
523.69        22.17203
524.13        22.16122
524.57        22.16199
525.01        22.16655
525.45        22.15977
525.89        22.11829
526.32        22.03653
526.76        21.93278
527.20        21.81801
527.64        21.71004
528.08        21.61671
528.52        21.53287
528.96        21.46811
529.40        21.43714
529.83        21.43644
530.27        21.46205
530.71        21.48463
531.15        21.46041
531.59        21.37985
532.03        21.25504
532.46        21.11246
532.90        21.00254
533.34        20.93873
533.78        20.91216
534.22        20.90243
534.66        20.87654
535.09        20.82554
535.53        20.76578
535.97        20.71767
536.41        20.71902
536.85         20.7731
537.28        20.86074
537.72        20.94796
538.16        20.98533
538.60        20.96205
539.04        20.90046
539.47        20.81731
539.91        20.75804
540.35        20.73244
540.79        20.73591
541.22        20.77477
541.66        20.86217
542.10        20.99279
542.54         21.1616
542.97         21.3483
543.41        21.52167
543.85        21.67177
544.29        21.80942
544.72        21.92767
545.16        22.03461
545.60        22.13354
546.04         22.2128
546.47        22.30084
546.91        22.47795
547.35        22.73286
547.79        22.97471
548.22        23.16244
548.66        23.35802
549.10         23.5592
549.53        23.65103
549.97        23.62185
550.41        23.94013
550.84        23.90056
551.28        24.03856
551.72        24.12639
552.15        24.35311
552.59        24.41171
553.03        24.54979
553.46        24.69211
553.90        24.85573
554.34        25.03356
554.77        25.24372
555.21        25.45392
555.65        25.54485
556.08        25.53112
556.52         25.5548
556.96        25.63593
557.39        25.74474
557.83        25.88157
558.27        26.01655
558.70        26.15242
559.14         26.3257
559.57        26.50517
560.01        26.65783
560.45        26.76354
560.88        26.72262
561.32        26.70617
561.75        26.71336
562.19        26.79616
562.63        26.86339
563.06        26.91348
563.50        27.01071
563.93        27.13586
564.37        27.26432
564.80        27.37264
565.24        27.44411
565.68        27.48498
566.11        27.55256
566.55        27.65474
566.98        27.72748
567.42         27.8078
567.85        27.90891
568.29        28.03713
568.72        28.26334
569.16        28.62056
569.60        28.55574
570.03        28.94366
570.47        29.13044
570.90        29.34587
571.34        29.42311
571.77        29.59408
572.21        29.68527
572.64        29.75048
573.08        29.84633
573.51        30.05133
573.95        30.19208
574.38        30.39385
574.82         30.8616
575.25        30.45632
575.69        30.31474
576.12        30.11587
576.56        30.40204
576.99        30.51451
577.42        30.30511
577.86        30.55032
578.29        30.52783
578.73        30.57691
579.16         30.3656
579.60        30.34275
580.03        30.15373
580.47        30.34295
580.90         30.1448
581.33         29.6738
581.77        30.20929
582.20        29.92141
582.64        29.86545
583.07        29.55098
583.51        29.23787
583.94        29.08634
584.37        28.91214
584.81        28.77062
585.24        28.86162
585.68        28.96488
586.11        28.75067
586.54        28.43028
586.98        28.40853
587.41        28.76256
587.85        28.60071
588.28        28.46469
588.71        28.36556
589.15        28.21701
589.58        28.29596
590.01         28.0799
590.45        27.99039
590.88        27.95981
591.31         28.0577
591.75        28.26779
592.18        28.36323
592.61         28.4379
593.05        27.88986
593.48        28.32222
593.91        28.44801
594.35        28.26292
594.78        28.30408
595.21        28.45355
595.65        28.54131
596.08        28.57174
596.51        28.89393
596.94        29.16328
597.38        29.46923
597.81        29.71108
598.24        29.65546
598.68        29.67888
599.11        30.33363
599.54        30.70635
599.97        31.18571
600.41        31.10043
600.84        31.46262
601.27        31.80066
601.70        32.26484
602.14         32.7094
602.57        32.80734
603.00         33.0658
603.43         33.3979
603.87        33.81039
604.30        34.57785
604.73        34.77085
605.16        35.23969
605.60        35.69958
606.03        36.19484
606.46        36.63247
606.89        37.00147
607.32        37.33951
607.76        37.66633
608.19        37.99157
608.62        38.32117
609.05        38.69422
609.48        39.03005
609.92        39.28179
610.35        39.79667
610.78        40.22491
611.21        40.19262
611.64        40.51031
612.07        40.97707
612.50        41.01853
612.94        41.37206
613.37        41.84348
613.80         41.9342
614.23        42.51262
614.66        42.70065
615.09        42.78612
615.52        42.92257
615.96        43.13468
616.39        43.24266
616.82        43.23986
617.25        43.62791
617.68         43.6052
618.11        44.02406
618.54         44.5274
618.97        44.70492
619.40        44.60869
619.84        44.67266
620.27         44.9503
620.70         45.3483
621.13        45.50745
621.56          45.525
621.99         45.5411
622.42        45.26076
622.85        45.83595
623.28        45.59376
623.71        46.14705
624.14        45.29878
624.57        45.84348
625.00        45.72199
625.43        45.65546
625.86        45.49549
626.29        45.31468
626.72        45.37434
627.15        45.10898
627.58        45.01812
628.01        44.90598
628.44        44.68757
628.87        44.37922
629.30        44.13823
629.73        43.98032
630.16        43.76889
630.59        43.49527
631.02        43.33537
631.45        43.07354
631.88        42.79795
632.31        42.44035
632.74        42.02523
633.17        41.56832
633.60        41.10231
634.03        40.64292
634.46        40.18021
634.89        39.72039
635.32        39.27716
635.75        38.85183
636.18        38.44059
636.61        38.04103
637.04        37.65071
637.47        37.27618
637.89        36.89859
638.32        36.49269
638.75        36.12989
639.18        35.83111
639.61        35.23185
640.04        35.00972
640.47        34.71006
640.90        34.52884
641.33        34.44484
641.76        34.41119
642.18        34.28948
642.61        34.03259
643.04        33.77724
643.47        33.63496
643.90        33.28277
644.33        33.52358
644.76          33.737
645.18        34.04667
645.61        34.16317
646.04        34.02241
646.47        34.05757
646.90         34.2662
647.33        34.43218
647.75        34.55984
648.18        34.81748
648.61        35.17736
649.04        35.51119
649.47         35.8171
649.89        36.14578
650.32        36.51468
650.75        36.99627
651.18        37.56969
651.61        38.11393
652.03        38.63919
652.46        39.23034
652.89        39.81734
653.32         40.3194
653.74        40.82416
654.17        40.92195
654.60        40.95963
655.03        42.24958
655.46        42.12854
655.88        43.56515
656.31         47.0033
656.74        48.13498
657.16        47.09351
657.59        45.35417
658.02        45.16448
658.45        46.08093
658.87        46.56859
659.30        46.68713
659.73        47.69543
660.15        47.83543
660.58        47.68461
661.01        47.96478
661.44        48.63118
661.86        48.76782
662.29        48.46644
662.72        48.69952
663.14        49.42357
663.57        49.68957
664.00        49.53661
664.42        49.65915
664.85        50.09698
665.27        50.48378
665.70         50.7536
666.13        50.98214
666.55        51.15915
666.98        51.26322
667.41        51.33032
667.83         51.4102
668.26        51.51322
668.69        51.63589
669.11        51.76304
669.54        51.87183
669.96        51.95822
670.39        52.03271
670.82        52.09985
671.24        52.17399
671.67        52.24846
672.09         52.3135
672.52        52.39576
672.94        52.58288
673.37         52.4725
673.80        52.99314
674.22        52.94415
674.65        53.17078
675.07         53.3545
675.50        53.51124
675.92        53.65234
676.35        53.79123
676.77         53.9441
677.20          54.088
677.62        54.21633
678.05        54.31894
678.47        54.39177
678.90        54.44773
679.32        54.49047
679.75        54.53037
680.17        54.56084
680.60        54.60892
681.02        54.68615
681.45        54.73409
681.87        54.73837
682.30        55.00668
682.72        55.02356
683.15        55.10549
683.57        55.14354
684.00        55.31536
684.42        55.56426
684.85        55.71097
685.27        55.75154
685.70        55.66395
686.12        55.55474
686.54        55.87748
686.97        56.50118
687.39        56.74817
687.82        56.57539
688.24        56.55991
688.66        56.71278
689.09        56.68287
689.51        56.50146
689.94         56.4136
690.36        56.44599
690.78        56.50286
691.21        56.58857
691.63        56.78944
692.06        57.05566
692.48        57.22305
692.90        57.28093
693.33        57.35665
693.75        57.44647
694.17         57.4484
694.60        57.40984
695.02        57.40308
695.44        57.42122
695.87        57.65375
696.29        58.01143
696.71        57.76444
697.14        57.13836
697.56        57.44461
697.98        58.48044
698.41        58.72916
698.83        58.20771
699.25        58.07574
699.68        58.36636
700.10        58.45527
700.52        58.32864
700.94        58.30928
701.37        58.38448
701.79        58.42339
702.21        58.41292
702.64        58.39338
703.06         58.3913
703.48        58.46161
703.90        58.61327
704.33        58.82907
704.75        59.03838
705.17         59.1926
705.59        59.25447
706.01        59.24646
706.44        59.20907
706.86        59.21557
707.28        59.27592
707.70        59.37504
708.12        59.51376
708.55        59.64557
708.97        59.71953
709.39        59.98347
709.81        59.84092
710.23        59.95268
710.66        60.13982
711.08        60.34592
711.50        60.51652
711.92        60.64688
712.34         60.7344
712.76        60.77185
713.19        60.78232
713.61        60.84365
714.03        60.95102
714.45        61.08761
714.87         61.2181
715.29        61.28751
715.71        61.28513
716.13        61.22821
716.56        61.13354
716.98        61.11221
717.40        61.16208
717.82        61.24374
718.24        61.35632
718.66         61.4237
719.08         61.4415
719.50        61.42817
719.92        61.40269
720.34        61.39294
720.76        61.40865
721.19        61.43177
721.61        61.47153
722.03        61.52135
722.45        61.57547
722.87        61.63248
723.29        61.68231
723.71        61.70776
724.13        61.70571
724.55        61.68346
724.97        61.65012
725.39        61.61891
725.81        61.60252
726.23        61.60862
726.65        61.64232
727.07        61.71219
727.49        61.81396
727.91         61.9283
728.33        62.06478
728.75        62.23497
729.17        62.42664
729.59         62.6474
730.01        62.81478
730.43        62.77103
730.85        62.52567
731.27        62.19574
731.69        61.91565
732.10        61.84652
732.52         62.0254
732.94        62.41526
733.36        62.91121
733.78        63.26842
734.20        63.39683
734.62         63.4581
735.04        63.48334
735.46        63.26498
735.88        62.92915
736.30        63.07272
736.72        63.61125
737.13        63.63284
737.55        63.26326
737.97        63.20886
738.39        62.88702
738.81        62.74657
739.23        62.66283
739.65        63.01904
740.06        63.58406
740.48        63.75945
740.90        63.47746
741.32        63.01447
741.74        62.55967
742.16        62.35531
742.57        62.49824
742.99        62.82682
743.41        63.21966
743.83        63.64008
744.25        63.94822
744.67        63.82459
745.08        63.41058
745.50         63.2716
745.92        63.48282
746.34        63.74264
746.75        63.97913
747.17         64.1377
747.59        64.17986
748.01        64.24911
748.42         64.3882
748.84        64.06542
749.26        64.26031
749.68        64.11487
750.09        63.97043
750.51        64.13709
750.93        64.51721
751.35        64.60604
751.76        64.40862
752.18        64.35405
752.60        64.45162
753.01        64.45531
753.43        64.34061
753.85        64.22407
754.27        64.13504
754.68        64.08325
755.10        64.08088
755.52        64.14304
755.93        64.24153
756.35        64.33485
756.77        64.50011
757.18        64.74084
757.60        65.03619
758.02        65.72469
758.43        66.47163
758.85        65.98728
759.26         64.5989
759.68         64.1568
760.10        64.75282
760.51        65.12144
760.93        65.12048
761.34        65.34928
761.76        65.66963
762.18        65.48371
762.59        64.90942
763.01        64.55885
763.42         64.5338
763.84        64.46507
764.26        64.39141
764.67        64.44977
765.09        64.65675
765.50        65.09527
765.92         65.6208
766.33        65.68961
766.75        65.25253
767.16        65.04908
767.58        65.10692
768.00        64.85847
768.41        64.45488
768.83        64.63646
769.24        65.20387
769.66        65.41026
770.07        65.24843
770.49        64.65301
770.90        64.54784
771.32        64.87674
771.73        65.68582
772.15        65.92839
772.56        65.53374
772.97        65.32117
773.39        64.98597
773.80        64.96896
774.22        65.15385
774.63        65.58176
775.05        66.04341
775.46         66.2816
775.88        66.20031
776.29        65.90851
776.70        65.53361
777.12        65.30964
777.53        65.30657
777.95        65.43134
778.36         65.6389
778.77        65.81873
779.19        65.93019
779.60        66.13346
780.02        66.35464
780.43        66.35048
780.84         66.2123
781.26        66.24847
781.67        66.50399
782.09        67.00823
782.50        67.55894
782.91        67.50674
783.33        66.90276
783.74        66.52945
784.15        66.44785
784.57        66.19694
784.98        65.83708
785.39        65.70501
785.81        65.83543
786.22        66.13221
786.63        66.53363
787.04        66.93652
787.46        67.28615
787.87        67.57397
788.28        67.80061
788.70        67.93182
789.11        67.95704
789.52        67.99532
789.93        68.00781
790.35          67.716
790.76         67.2394
791.17        67.09085
791.58        67.30545
792.00        67.41155
792.41        67.39149
792.82        67.70937
793.23        68.24171
793.65        68.13148
794.06        67.58013
794.47        67.79142
794.88         68.5859
795.29        68.78024
795.71        68.30553
796.12        67.84231
796.53        67.56071
796.94        67.46741
797.35        67.62722
797.76        68.03514
798.18        68.51859
798.59        68.83399
799.00        68.89043
799.41        68.76281
799.82        68.53042
800.23        68.34079
800.64         68.2522
801.06        68.18694
801.47        68.20374
801.88        68.33276
802.29        68.55786
802.70        68.86014
803.11        69.14988
803.52        69.26816
803.93        69.18887
804.34        68.96687
804.75        68.66338
805.17         68.4569
805.58         68.4443
805.99        68.35365
806.40        68.25108
806.81         68.7646
807.22        69.63774
807.63        69.63987
808.04        68.89439
808.45        68.70488
808.86        69.16933
809.27        69.55811
809.68         69.6972
810.09        69.63371
810.50        69.34653
810.91        68.89941
811.32         68.4863
811.73        68.34037
812.14        68.52539
812.55        69.02044
812.96        69.61354
813.37        69.87487
813.78        69.69781
814.19        69.23728
814.60        68.71483
815.01        68.44503
815.42        68.50372
815.83        68.78347
816.24        69.19228
816.65         69.5474
817.05        69.75732
817.46        69.84735
817.87        69.83955
818.28        69.71048
818.69        69.48267
819.10        69.15665
819.51        68.83599
819.92        68.72439
820.33        68.87369
820.74        69.22056
821.14        69.65504
821.55        70.00667
821.96        70.21195
822.37        70.31958
822.78        70.32236
823.19        70.22258
823.60         70.0349
824.00         69.7398
824.41        69.41985
824.82        69.24039
825.23        69.23052
825.64        69.38144
826.04        69.56011
826.45        69.44842
826.86        69.01849
827.27        68.37321
827.68        67.76262
828.08        67.60361
828.49        67.94048
828.90        68.67411
829.31        69.57696
829.72        70.24999
830.12        70.58008
830.53        70.59436
830.94        70.45194
831.35        70.39216
831.75        70.51049
832.16        70.65266
832.57         70.7685
832.97        70.74536
833.38        70.56298
833.79        70.33555
834.20        70.08089
834.60        69.78455
835.01         69.4987
835.42        69.19614
835.82        69.04498
836.23        69.26194
836.64        69.88888
837.04          70.882
837.45        71.85669
837.86        72.31314
838.26        72.11585
838.67        71.41986
839.08        70.54973
839.48        69.99993
839.89        69.94753
840.29         70.2372
840.70        70.70735
841.11        71.10966
841.51        71.37332
841.92        71.54427
842.33        71.67263
842.73         71.8162
843.14        71.94088
843.54        72.03633
843.95        72.07931
844.35        72.11108
844.76         72.1131
845.17        72.07378
845.57        72.00742
845.98        71.89512
846.38        71.76001
846.79        71.62166
847.19        71.43994
847.60        71.10292
848.00        70.63587
848.41        70.08641
848.81        69.65688
849.22        69.64118
849.62        70.11527
850.03        70.95223
850.43        71.93858
850.84         72.4937
851.24        72.50445
851.65        72.01894
852.05        71.34432
852.46        70.94911
852.86        70.94408
853.27        71.23576
853.67        71.50971
854.07        71.52785
854.48        71.19228
854.88        70.60546
855.29        69.90501
855.69        69.57169
856.10        69.66801
856.50        70.16782
856.90         70.7075
857.31        70.77518
857.71        70.31659
858.12         69.4473
858.52        68.56709
858.92        68.29173
859.33        68.75307
859.73        69.79414
860.13         70.9984
860.54        71.69541
860.94        71.73626
861.34        71.23228
861.75        70.43987
862.15        69.86848
862.55        69.65554
862.96        69.67166
863.36        69.69869
863.76        69.41868
864.17        68.79946
864.57        68.01826
864.97        67.28918
865.38        66.86856
865.78        66.84781
866.18        67.09963
866.58        67.56479
866.99        68.10284
867.39        68.65627
867.79        69.22284
868.19        69.62189
868.60        69.58723
869.00        69.10921
869.40        68.24559
869.80        67.37629
870.21        67.15655
870.61        67.77321
871.01        68.99612
871.41        70.31554
871.81        70.91729
872.22        70.59309
872.62        69.57568
873.02        68.30248
873.42        67.50618
873.82        67.41685
874.22         67.8546
874.63        68.45362
875.03        68.65336
875.43        68.32938
875.83        67.65684
876.23        67.05971
876.63        67.22038
877.03        68.25786
877.44        69.87418
877.84         71.5361
878.24        72.28907
878.64         71.9267
879.04        70.80835
879.44        69.45132
879.84        68.61294
880.24        68.48125
880.64        68.78909
881.04         69.3717
881.44        69.95484
881.84        70.41198
882.24        70.87734
882.65        71.16422
883.05        71.07079
883.45        70.54782
883.85         69.6781
884.25        68.85836
884.65        68.71562
885.05        69.33753
885.45        70.48971
885.85        71.79652
886.25        72.59617
886.65        72.65578
887.05        72.19556
887.45         71.2956
887.85        70.12629
888.25        68.89989
888.65        67.65709
889.04        66.67652
889.44        66.38831
889.84        66.77861
890.24        67.76086
890.64        69.04133
891.04        69.94791
891.44         70.2037
891.84        69.98229
892.24        69.51206
892.64         69.1381
893.04        68.96141
893.44        68.86007
893.83        68.87917
894.23        69.03705
894.63        69.34064
895.03         69.8032
895.43          70.277
895.83        70.51717
896.23        70.46912
896.63        70.16016
897.02         69.7517
897.42        69.58927
897.82        69.72993
898.22        70.11695
898.62         70.4965
899.01        70.45491
899.41        69.91104
899.81        69.01948
900.21        68.16145
900.61        67.91541
901.00        68.38215
901.40        69.36922
901.80        70.44448
902.20        70.89789
902.59        70.54941
902.99        69.63052
903.39        68.53094
903.79        67.83395
904.18        67.69423
904.58        67.95524
904.98        68.37958
905.38        68.61508
905.77        68.53701
906.17        68.25926
906.57        67.94635
906.96        67.87096
907.36        68.06499
907.76        68.46824
908.15        68.85271
908.55        68.73779
908.95        68.11181
909.34        67.12942
909.74        66.27963
910.14        66.17102
910.53        66.94666
910.93        68.35177
911.33        70.01465
911.72        71.34892
912.12        72.06963
912.52         72.3413
912.91        72.32327
913.31        72.29735
913.70        72.36758
914.10        72.38396
914.49        72.27203
914.89        71.91653
915.29        71.33601
915.68        70.65499
916.08        70.00978
916.47        69.44982
916.87         69.0705
917.26        68.81554
917.66        68.78475
918.05        69.15981
918.45        69.88194
918.84        70.92015
919.24        71.90878
919.64        72.37052
920.03        72.17934
920.42        71.44343
920.82        70.50307
921.21        69.79632
921.61        69.47706
922.00        69.46532
922.40         69.6203
922.79        69.77738
923.19        69.84412
923.58        69.90287
923.98        70.02448
924.37        70.31871
924.77        70.77374
925.16        71.31165
925.55          71.774
925.95           71.93
926.34        71.74644
926.74        71.29044
927.13         70.7003
927.52        70.16525
927.92        69.77388
928.31        69.47614
928.70        69.27431
929.10        69.14547
929.49        69.06665
929.89        69.02232
930.28        68.99899
930.67        68.89024
931.07        68.67761
931.46        68.41988
931.85        68.12784
932.24         67.8267
932.64        67.56064
933.03        67.34584
933.42        67.28685
933.82        67.54051
934.21        68.12933
934.60        68.92649
934.99        69.81331
935.39        70.57499
935.78        71.17011
936.17        71.62577
936.56         71.7367
936.96        71.23355
937.35        70.17117
937.74        68.70738
938.13        67.38647
938.53         66.9019
938.92        67.31695
939.31        68.49739
939.70        69.94619
940.09        70.67621
940.49        70.36672
940.88        69.32732
941.27        68.09191
941.66        67.46023
942.05        67.62782
942.44        68.39238
942.84        69.34598
943.23        69.82519
943.62        69.58141
944.01        68.83253
944.40        68.08578
944.79        68.07536
945.18        68.93398
945.57        70.42915
945.97        71.91394
946.36        72.52226
946.75         71.9106
947.14        70.38786
947.53        68.66053
947.92        67.78178
948.31        68.01968
948.70        69.11732
949.09        70.47243
949.48        71.00076
949.87         70.3911
950.26        68.99143
950.65        67.51823
951.04        66.95236
951.43        67.49702
951.82        68.90447
952.21        70.48143
952.60        70.97904
952.99        70.07738
953.38        68.19836
953.77        66.31727
954.16        65.73395
954.55        66.69131
954.94        68.91939
955.33         71.4931
955.72        72.41891
956.11         71.0471
956.50        68.08975
956.89        64.98157
957.28        63.57122
957.66        64.24416
958.05        66.41167
958.44        69.14212
958.83        70.54028
959.22        69.96497
959.61        68.12112
960.00           65.98
960.39        64.75129
960.78        64.68086
961.16        65.39684
961.55        66.45522
961.94        67.07122
962.33        66.94238
962.72        66.42883
963.11        65.82876
963.49        65.51048
963.88        65.57855
964.27        65.86114
964.66        66.34702
965.04        67.09739
965.43        67.96619
965.82        68.94821
966.21        69.80922
966.60        70.10965
966.98        69.78636
967.37        69.04696
967.76        68.12366
968.15        67.31807
968.53         66.7065
968.92        66.13933
969.31        65.83764
969.69        66.21632
970.08         67.2828
970.47        69.07137
970.86        70.80955
971.24        71.15705
971.63        69.84641
972.02        67.33037
972.40        64.84718
972.79        64.34005
973.17        66.12367
973.56        69.47189
973.95        73.25555
974.33        75.33421
974.72        74.94779
975.11        72.83869
975.49        69.99644
975.88        68.24578
976.26        68.08728
976.65        68.92664
977.04        70.33898
977.42        71.55432
977.81        72.08124
978.19        72.28678
978.58        72.22331
978.96        71.82244
979.35        71.20844
979.74        70.37811
980.12        69.61059
980.51        69.39396
980.89        69.91863
981.28        70.91196
981.66        72.36044
982.05        73.92142
982.43        75.50912
982.82        77.10722
983.20         78.2588
983.59        78.09926
983.97        76.56663
984.35        73.96488
984.74         71.3502
985.12        70.18832
985.51         70.6853
985.89        72.52681
986.28        74.68608
986.66        75.77245
987.04        75.19829
987.43        73.45969
987.81        71.16478
988.20        69.67712
988.58        69.34687
988.96        69.80045
989.35        70.37114
989.73        70.22769
990.12         69.1121
990.50         67.5023
990.88        65.78009
991.27        64.51848
991.65        63.89015
992.03        63.72883
992.42        64.14938
992.80         65.6711
993.18         68.1731
993.56        71.53145
993.95         74.8745
994.33        76.67298
994.71        76.34657
995.10        74.40321
995.48        71.77239
995.86        69.93921
996.24        69.32872
996.63        69.45771
997.01        70.22234
997.39        71.18327
997.77        72.05875
998.15        73.03928
998.54        73.76373
998.92        73.63654
999.30        72.57656
999.68        70.68429
1000.06        68.60005
1000.45        67.58625
1000.83        68.09463
1001.21        69.77681
1001.59        72.04661
1001.97        73.87362
1002.35         74.8847
1002.73        75.36843
1003.12        75.39613
1003.50        75.01361
1003.88        74.38722
1004.26        73.49593
1004.64           72.67
1005.02        72.52102
1005.40        73.14539
1005.78        74.31609
1006.16        75.69839
1006.54        76.82172
1006.92        77.55763
1007.30        78.03517
1007.69        78.15491
1008.07        77.87019
1008.45        77.16711
1008.83        76.09165
1009.21        74.95109
1009.59        74.28392
1009.97        74.22346
1010.35        74.59504
1010.73        75.27415
1011.11        75.99257
1011.49        76.59335
1011.86         77.2382
1012.24         77.4529
1012.62        76.71936
1013.00        74.96984
1013.38        72.22491
1013.76        69.27151
1014.14        67.85732
1014.52        68.55627
1014.90        70.88914
1015.28         73.5901
1015.66        74.59697
1016.04        73.41668
1016.41        70.82465
1016.79        67.51897
1017.17        65.12663
1017.55        64.42915
1017.93        64.77373
1018.31        66.03156
1018.69        68.40773
1019.06        72.15758
1019.44        77.73385
1019.82        84.94127
1020.20        90.53876
1020.58        91.55534
1020.95        88.24364
1021.33        83.18302
1021.71        79.04716
1022.09        75.97595
1022.46        73.03101
1022.84        69.72615
1023.22        65.15872
1023.60        60.30189
1023.97        56.68369
1024.35        54.86588
1024.73        54.85153
