SpectraSmart Spectrum 2.9.0.0
--------- Device Information -----------
Spectrum Name :  反射率_0
Saving Time :  2024/04/30 01:18:16
Spectro-Module Model Name : SE2030-DUVN
Spectro-Module Serial Number : OS361AC55029948
Wavelength Start : 200
Wavelength End : 1025
Wavelength Unit : Wavelength(nm)
Spectrum Unit : Reflectance(%)
-----------Spectrum Setting ------------
Integration Time : 20ms
Average : 10
Boxcar : 0
Background removal :  enabled
linearity correction :  enabled
SC :  disabled
Intensity correction :  disabled
DWT denoise :  enabled
savitzky-golay :  disabled
FFT :  disabled
Running average :  disabled
Kalman :  disabled
High pass :  disabled
---------------BEGIN--------------------
Wavelength(nm)             Reflectance(%)
200.29               0
200.75        24.41442
201.21        12.18181
201.67       -2.650153
202.13       -12.82923
202.58       -14.94846
203.04       -9.834555
203.50       0.8373128
203.96        13.13112
204.42        23.81985
204.88        32.25717
205.34        38.05438
205.80        41.09243
206.26         41.7608
206.72        41.02875
207.18        38.12248
207.64        31.84508
208.10        22.33678
208.55        9.405566
209.01       -3.248037
209.47       -6.107907
209.93        2.018446
210.39        15.96299
210.85         28.0429
211.31        31.90553
211.77        27.17029
212.23        13.68593
212.69       -5.729217
213.14       -13.97429
213.60       -2.640504
214.06        17.87592
214.52        35.42208
214.98        42.66687
215.44        41.13949
215.90        33.99156
216.36        24.91075
216.81        20.66177
217.27        24.86872
217.73        37.23734
218.19        56.12114
218.65        70.08894
219.11        70.87998
219.57        62.73442
220.02        53.88245
220.48        50.52576
220.94        52.24929
221.40        57.41045
221.86        63.25878
222.32        61.87567
222.77        52.54769
223.23        42.50184
223.69        35.09004
224.15        31.05335
224.61        29.42094
225.06        28.93934
225.52        30.26336
225.98        33.85585
226.44        38.48761
226.90         43.1493
227.36        46.38442
227.81        47.37728
228.27         46.5818
228.73         44.1922
229.19        41.55429
229.65        41.44022
230.10         44.0147
230.56        47.75502
231.02        50.73527
231.48        51.29841
231.93        49.52226
232.39        46.17242
232.85        42.31149
233.31        40.00778
233.77         39.9872
234.22        41.76961
234.68         44.2949
235.14        45.58501
235.60        45.05872
236.05        43.41103
236.51        41.74608
236.97        41.44772
237.43        42.90384
237.88        46.00985
238.34        50.19988
238.80        53.80681
239.26        55.32401
239.71        55.06594
240.17        53.58923
240.63         52.0548
241.08         50.7526
241.54        48.92118
242.00        46.64855
242.46        45.66185
242.91        47.99215
243.37        53.40751
243.83        58.88122
244.28        61.20192
244.74        59.99272
245.20        55.57517
245.66        49.33654
246.11        45.22944
246.57        45.69542
247.03        49.88218
247.48        56.18956
247.94        59.75266
248.40        59.34215
248.85        57.04863
249.31        55.21726
249.77        54.58566
250.22        55.16853
250.68        56.87748
251.14        59.52598
251.59        60.75624
252.05        59.18198
252.51        56.73132
252.96        54.92739
253.42        54.60664
253.88        55.20078
254.33        56.22423
254.79        57.37158
255.25        57.31047
255.70         56.0055
256.16        54.69346
256.62        53.73882
257.07        53.28742
257.53        53.51257
257.99        54.01505
258.44        54.42796
258.90        54.85568
259.35        54.86428
259.81        54.83311
260.27        54.64845
260.72        54.25576
261.18        53.85178
261.63        53.21712
262.09        52.54488
262.55        51.78142
263.00        50.91539
263.46        50.16558
263.91         49.3527
264.37        48.53816
264.83        47.64849
265.28        46.63921
265.74        45.76479
266.19        45.18543
266.65        44.97947
267.11        45.02506
267.56        45.06231
268.02        44.72558
268.47        43.92543
268.93        42.77738
269.38        41.50803
269.84        40.62705
270.30        40.24397
270.75        40.19825
271.21        40.20486
271.66        39.81941
272.12        38.95728
272.57        37.73985
273.03        36.43313
273.48        35.36703
273.94        34.69837
274.39        34.28191
274.85        33.98143
275.31        33.53032
275.76        32.86246
276.22        32.09656
276.67        31.35417
277.13        30.89717
277.58        30.69774
278.04        30.68611
278.49        30.62318
278.95        30.27188
279.40         29.5645
279.86        28.68487
280.31        27.77847
280.77        27.17457
281.22        26.90022
281.68        26.87267
282.13        26.96626
282.59        27.05984
283.04         27.0761
283.50        27.03832
283.95         26.9187
284.41        26.68725
284.86        26.34039
285.32        25.93633
285.77        25.46145
286.22        24.97035
286.68        24.50577
287.13        24.03769
287.59        23.67637
288.04         23.5275
288.50        23.60557
288.95        23.83249
289.41        24.07516
289.86        24.09615
290.32        23.87713
290.77          23.493
291.22        23.06315
291.68        22.77905
292.13        22.69258
292.59        22.76265
293.04        22.98492
293.50        23.37936
293.95        23.91747
294.40        24.59414
294.86        25.29227
295.31        25.83898
295.77        26.19244
296.22        26.38863
296.68        26.54313
297.13        26.82382
297.58        27.28163
298.04        27.83401
298.49        28.40957
298.95        28.89124
299.40        29.23817
299.85        29.49028
300.31        29.67072
300.76        29.75747
301.21        29.79222
301.67        29.79364
302.12        29.77575
302.58        29.90012
303.03        30.17879
303.48        30.43735
303.94        30.61594
304.39        31.34483
304.84        31.38647
305.30         31.7263
305.75         31.9761
306.20        32.16487
306.66         32.2936
307.11         32.3526
307.57        32.37976
308.02        32.36255
308.47        32.31841
308.93        32.25775
309.38        32.17226
309.83        32.09528
310.29        32.03246
310.74         31.9764
311.19        31.90239
311.65        31.76219
312.10        31.54871
312.55        31.28369
313.00        31.01891
313.46        30.83329
313.91        30.73104
314.36        30.68826
314.82        30.65841
315.27        30.58587
315.72        30.44208
316.18        30.25402
316.63        30.02192
317.08        29.75838
317.53        29.48123
317.99        29.19732
318.44        28.93233
318.89        28.73177
319.35        28.60198
319.80        28.52644
320.25        28.48989
320.70        28.46474
321.16        28.42399
321.61        28.38411
322.06        28.30408
322.51        28.13112
322.97        27.86005
323.42        27.50947
323.87        27.14235
324.32        26.86366
324.78        26.68969
325.23        26.61131
325.68        26.55702
326.13        26.40571
326.59        26.12587
327.04        25.76804
327.49        25.40661
327.94        25.17357
328.39        25.09334
328.85        25.10405
329.30        25.14705
329.75        25.08175
330.20        24.87052
330.66        24.56896
331.11        24.21649
331.56        23.85159
332.01        23.50329
332.46        23.15131
332.92         22.8626
333.37        22.78106
333.82        22.91674
334.27        23.23108
334.72        23.56718
335.17        23.65523
335.63        23.42566
336.08        22.96167
336.53        22.39881
336.98        21.99325
337.43        21.83131
337.88        21.83476
338.34        21.94368
338.79        22.08029
339.24        22.19511
339.69        22.32642
340.14        22.42436
340.59        22.39931
341.05        22.24416
341.50        21.97045
341.95        21.68133
342.40        21.55668
342.85        21.62736
343.30        21.83441
343.75         22.0594
344.20        22.10773
344.66        21.94381
345.11        21.63413
345.56        21.26502
346.01        20.97114
346.46        20.80427
346.91        20.72006
347.36        20.71511
347.81        20.78768
348.26          20.917
348.72        21.10004
349.17        21.27316
349.62        21.32512
350.07        21.23173
350.52        21.02638
350.97        20.77392
351.42        20.57754
351.87        20.47147
352.32        20.43449
352.77        20.45147
353.22        20.49408
353.67        20.54664
354.13          20.613
354.58        20.68864
355.03        20.76557
355.48         20.8324
355.93        20.87825
356.38        20.88055
356.83        20.81235
357.28        20.67459
357.73        20.48265
358.18        20.27118
358.63        20.09382
359.08        19.96678
359.53        19.87906
359.98        19.81614
360.43        19.75029
360.88        19.67365
361.33        19.59868
361.78        19.52557
362.23        19.45363
362.68        19.38412
363.13        19.31148
363.58        19.24694
364.03        19.21123
364.48         19.2027
364.93        19.21079
365.38        19.20979
365.83        19.15887
366.28        19.05187
366.73        18.90713
367.18        18.74657
367.63        18.60461
368.08        18.49321
368.53        18.40129
368.98          18.335
369.43        18.30171
369.88        18.29898
370.33         18.3297
370.78         18.3607
371.23        18.33662
371.68        18.24655
372.13        18.09881
372.58        17.94532
373.03        17.87487
373.48         17.8988
373.93        17.98155
374.38        18.05372
374.83        18.00116
375.28        17.80413
375.72        17.51147
376.17        17.19468
376.62        16.91797
377.07        16.70558
377.52        16.53149
377.97        16.42138
378.42        16.41781
378.87        16.51442
379.32        16.69541
379.77        16.87279
380.22        16.91557
380.67        16.79782
381.11        16.54649
381.56        16.25815
382.01        16.09471
382.46        16.10111
382.91        16.24001
383.36        16.40495
383.81        16.43248
384.26        16.29159
384.71        16.02851
385.15        15.76397
385.60        15.71073
386.05        15.88603
386.50        16.20709
386.95        16.50849
387.40        16.53667
387.85        16.25504
388.29        15.76668
388.74        15.24805
389.19        14.88074
389.64        14.71125
390.09        14.67486
390.54        14.73685
390.98        14.83729
391.43        14.94462
391.88        15.07217
392.33        15.17991
392.78        15.22439
393.23        15.20329
393.67        15.08537
394.12        14.92968
394.57        14.92682
395.02        14.87216
395.47        14.91705
395.91        14.95656
396.36        14.91235
396.81        14.77599
397.26        14.58386
397.71         14.3833
398.15         14.2325
398.60        14.16658
399.05        14.13394
399.50         14.1119
399.95        14.13015
400.39        14.10497
400.84        14.03997
401.29        13.93316
401.74        13.86792
402.18        13.85667
402.63        13.84799
403.08        13.84017
403.53        13.84251
403.97        13.85072
404.42         13.8647
404.87        13.86318
405.32        13.81129
405.76        13.70284
406.21        13.55497
406.66        13.41033
407.11        13.33821
407.55        13.35752
408.00        13.44951
408.45        13.55929
408.90        13.58536
409.34        13.50008
409.79        13.33085
410.24        13.15955
410.68        13.11047
411.13        13.20719
411.58        13.41146
412.03        13.62185
412.47        13.66747
412.92        13.50218
413.37        13.19878
413.81         12.8708
414.26        12.70612
414.71        12.73095
415.15        12.88873
415.60        13.09159
416.05        13.20898
416.49        13.19782
416.94        13.10733
417.39        12.96922
417.83        12.82985
418.28        12.71684
418.73        12.60599
419.17        12.52613
419.62        12.52697
420.07         12.6075
420.51        12.75278
420.96        12.89739
421.41         12.9282
421.85        12.82336
422.30        12.63533
422.74        12.42515
423.19        12.30479
423.64        12.29243
424.08        12.35986
424.53        12.46066
424.98         12.5381
425.42        12.56881
425.87        12.55996
426.31         12.5155
426.76        12.46169
427.21        12.36438
427.65        12.24145
428.10        12.10431
428.54        11.95503
428.99        11.81801
429.44        11.77867
429.88        11.80213
430.33        11.68305
430.77         11.4968
431.22        11.61582
431.66        12.00004
432.11        12.20412
432.56        12.15779
433.00        12.12981
433.45        12.11475
433.89        11.84312
434.34        11.46633
434.78        11.43678
435.23        11.68599
435.67        11.73847
436.12        11.57178
436.57         11.4554
437.01        11.42849
437.46        11.43721
437.90        11.48616
438.35        11.58077
438.79        11.68247
439.24         11.7098
439.68        11.66594
440.13        11.61876
440.57        11.56854
441.02        11.52537
441.46        11.49909
441.91        11.40505
442.35         11.2818
442.80        11.42788
443.24        11.73386
443.69         11.6445
444.13        11.22298
444.58        11.03962
445.02        11.10211
445.47        11.11269
445.91        11.05803
446.36        11.06279
446.80        11.11962
447.24        11.20142
447.69        11.28194
448.13        11.32153
448.58        11.31291
449.02        11.26631
449.47        11.21893
449.91        11.22395
450.36         11.2912
450.80        11.40088
451.25        11.50858
451.69        11.54423
452.13        11.49144
452.58        11.38098
453.02        11.25054
453.47        11.15952
453.91        11.12344
454.36        11.15858
454.80        11.18893
455.24        11.22041
455.69        11.22858
456.13         11.2223
456.58         11.2204
457.02        11.23927
457.46        11.28326
457.91        11.33898
458.35        11.38659
458.79        11.40213
459.24        11.39021
459.68        11.36693
460.13        11.34928
460.57        11.30838
461.01        11.33884
461.46        11.32154
461.90        11.30538
462.34        11.42829
462.79        11.63703
463.23        11.68101
463.68        11.56777
464.12        11.52722
464.56        11.56767
465.01        11.57288
465.45        11.53607
465.89        11.50014
466.34        11.48794
466.78        11.54101
467.22        11.66929
467.67        11.69989
468.11         11.6315
468.55        11.53191
468.99         11.4421
469.44         11.3941
469.88        11.40068
470.32        11.45661
470.77        11.53553
471.21        11.60783
471.65        11.65571
472.10        11.69315
472.54        11.72502
472.98        11.77388
473.42        11.84175
473.87        11.91468
474.31        11.97851
474.75        12.01441
475.20        12.02356
475.64        12.01318
476.08        11.99198
476.52        11.97011
476.97        11.95394
477.41        11.93745
477.85        11.93992
478.29        11.98912
478.74        12.08948
479.18        12.22558
479.62        12.35313
480.06         12.4344
480.50        12.46552
480.95        12.34599
481.39        12.31568
481.83        12.33788
482.27        12.49527
482.72        12.65388
483.16        12.92176
483.60        13.05805
484.04        13.08465
484.48        13.01953
484.93        12.94501
485.37        13.00957
485.81        13.12781
486.25        13.39272
486.69        12.80764
487.14        13.04609
487.58        13.67559
488.02        13.67282
488.46        13.75146
488.90        13.97247
489.34        13.63439
489.79        13.68865
490.23        13.82839
490.67        14.10321
491.11        14.39722
491.55        14.40636
491.99        14.21035
492.43        14.24769
492.88        14.54102
493.32        14.80586
493.76        14.99303
494.20        15.18243
494.64         15.3645
495.08        15.51118
495.52        15.61087
495.96        15.68897
496.41        15.75805
496.85        15.72591
497.29        15.64105
497.73        15.85697
498.17        16.13043
498.61        16.20828
499.05        16.06058
499.49        16.05959
499.93        16.23498
500.37        16.43749
500.82        16.62233
501.26        16.75815
501.70        16.83054
502.14        16.87046
502.58        16.91935
503.02        17.02398
503.46        17.19526
503.90        17.41937
504.34        17.64783
504.78        17.79686
505.22        17.84544
505.66         17.8181
506.10        17.75233
506.54        17.72971
506.98        17.77432
507.42        17.82497
507.86        17.85261
508.30        18.01266
508.74        17.96653
509.18        17.99543
509.62        18.00772
510.06        18.01873
510.50        18.03237
510.94        18.04865
511.38        18.07892
511.82        18.13416
512.26        18.21464
512.70        18.31353
513.14        18.41641
513.58        18.50126
514.02        18.56143
514.46        18.60137
514.90        18.62399
515.34        18.63615
515.78        18.64153
516.22        18.63786
516.66        18.63026
517.10        18.62707
517.54        18.62923
517.98        18.63531
518.42        18.63863
518.86         18.6265
519.30        18.59764
519.74        18.55919
520.18        18.51707
520.62         18.4796
521.06        18.45116
521.50        18.42996
521.93        18.42294
522.37        18.43509
522.81        18.46691
523.25        18.51384
523.69        18.56131
524.13        18.58784
524.57        18.58693
525.01        18.56042
525.45        18.51862
525.89        18.48096
526.32        18.44967
526.76        18.42376
527.20        18.38986
527.64        18.32848
528.08         18.2387
528.52        18.13201
528.96         18.0259
529.40        17.94661
529.83        17.90067
530.27        17.88174
530.71        17.87875
531.15        17.87654
531.59        17.86686
532.03        17.85065
532.46        17.82508
532.90        17.79143
533.34        17.75089
533.78        17.70834
534.22        17.66228
534.66        17.61049
535.09          17.555
535.53         17.5034
535.97        17.47377
536.41        17.49939
536.85        17.58118
537.28        17.70363
537.72        17.82998
538.16        17.90517
538.60        17.91548
539.04        17.88089
539.47         17.8199
539.91        17.78012
540.35        17.77264
540.79        17.79257
541.22        17.84154
541.66        17.92482
542.10         18.0373
542.54        18.17679
542.97        18.33438
543.41        18.49566
543.85         18.6524
544.29        18.80689
544.72        18.94041
545.16        19.04039
545.60        19.10669
546.04        19.14023
546.47        19.17352
546.91        19.28819
547.35        19.48203
547.79        19.67405
548.22        19.84023
548.66        20.04971
549.10        20.29955
549.53        20.48358
549.97        20.56395
550.41        20.90399
550.84        20.87597
551.28        20.95713
551.72        20.97321
552.15        21.12878
552.59        21.16847
553.03        21.29795
553.46        21.43468
553.90        21.56552
554.34        21.68017
554.77        21.80622
555.21        21.93709
555.65        22.00162
556.08        22.01723
556.52        22.09272
556.96        22.22341
557.39        22.34905
557.83        22.46051
558.27        22.55001
558.70        22.61825
559.14        22.72496
559.57        22.84688
560.01        22.95243
560.45        23.02483
560.88        22.97389
561.32        22.94794
561.75        22.95955
562.19        23.04499
562.63        23.09822
563.06        23.11585
563.50        23.17186
563.93        23.25955
564.37        23.35692
564.80         23.4546
565.24        23.56256
565.68        23.67304
566.11        23.79049
566.55        23.91441
566.98        24.00578
567.42        24.09668
567.85        24.20554
568.29        24.33384
568.72        24.52748
569.16        24.81231
569.60         24.7825
570.03        24.95481
570.47        25.19706
570.90        25.30391
571.34        25.26175
571.77        25.46581
572.21        25.48684
572.64        25.48932
573.08        25.63002
573.51        25.94021
573.95        25.93968
574.38        26.38574
574.82        26.27684
575.25        26.08034
575.69        26.18823
576.12        25.89409
576.56        26.36742
576.99        26.33741
577.42        26.37829
577.86        26.40383
578.29        26.29006
578.73        26.16752
579.16        26.25172
579.60        26.23493
580.03        26.09274
580.47        26.04345
580.90        25.94884
581.33         25.8526
581.77        25.94249
582.20        25.63081
582.64        25.45616
583.07        25.26028
583.51         25.1693
583.94         25.2568
584.37        25.20741
584.81        25.04005
585.24         25.0225
585.68        24.99258
586.11        25.05554
586.54        24.60686
586.98        24.71842
587.41        25.10173
587.85        24.93409
588.28        24.68441
588.71        24.77622
589.15        24.57789
589.58        24.70648
590.01         24.5876
590.45        24.49744
590.88        24.39271
591.31        24.46851
591.75          24.651
592.18        24.73136
592.61         24.7385
593.05        24.50206
593.48        24.59078
593.91         24.9248
594.35        24.70564
594.78        24.76449
595.21        24.84294
595.65        24.89354
596.08        24.85994
596.51        25.26923
596.94        25.49542
597.38        25.80145
597.81        25.96492
598.24        26.03948
598.68        26.37071
599.11        26.37199
599.54        26.85836
599.97        27.13395
600.41         27.1058
600.84        27.25294
601.27        27.65764
601.70        28.06212
602.14        28.44596
602.57        28.73577
603.00        28.93253
603.43        29.20592
603.87        29.49748
604.30        29.96078
604.73         30.2487
605.16        30.70254
605.60        31.16831
606.03        31.50362
606.46         31.6876
606.89        31.99061
607.32        32.42484
607.76        32.77393
608.19        33.03656
608.62        33.31741
609.05        33.65702
609.48        34.09355
609.92        34.44639
610.35        34.84347
610.78        34.98752
611.21        34.94492
611.64        35.45338
612.07        35.68053
612.50        35.84722
612.94        36.15872
613.37        36.68325
613.80        36.66101
614.23        37.29929
614.66        37.49226
615.09        37.61712
615.52        37.77209
615.96        37.99133
616.39         38.1787
616.82        38.29249
617.25        38.67267
617.68        38.60756
618.11        38.90497
618.54        39.29719
618.97        39.50423
619.40        39.55518
619.84        39.70581
620.27        40.00066
620.70         40.3227
621.13        40.59764
621.56        40.55728
621.99        40.79659
622.42        40.31064
622.85        40.74154
623.28        40.69764
623.71        41.08086
624.14        40.55252
624.57        41.12851
625.00        41.12162
625.43        41.07047
625.86        40.96692
626.29         40.8436
626.72        40.73989
627.15        40.65308
627.58        40.58743
628.01        40.48074
628.44        40.39204
628.87        39.93751
629.30         39.7382
629.73        39.67933
630.16        39.53573
630.59        39.29226
631.02        39.18613
631.45        39.01163
631.88        38.78185
632.31        38.43163
632.74         38.0024
633.17        37.53949
633.60        37.12341
634.03        36.77866
634.46        36.47697
634.89        36.19028
635.32        35.87707
635.75        35.52296
636.18        35.14089
636.61        34.74701
637.04        34.37045
637.47        34.02708
637.89         33.6857
638.32        33.32299
638.75        33.00461
639.18        32.74659
639.61        32.22049
640.04        32.02765
640.47        31.72131
640.90        31.47975
641.33        31.28955
641.76        31.13325
642.18         30.9744
642.61        30.79205
643.04        30.60265
643.47        30.44862
643.90        30.38614
644.33        30.42074
644.76        30.57354
645.18        30.76663
645.61        30.78907
646.04        30.59307
646.47        30.56587
646.90        30.70822
647.33        30.81683
647.75        30.89203
648.18        31.07985
648.61         31.3562
649.04        31.60888
649.47        31.83379
649.89        32.07316
650.32        32.32016
650.75        32.62292
651.18        32.96981
651.61        33.22105
652.03        33.43445
652.46        33.87838
652.89        34.45435
653.32        34.82783
653.74        35.04399
654.17        35.07853
654.60        35.11161
655.03        36.24329
655.46        35.75813
655.88        36.89393
656.31        38.83247
656.74        38.59752
657.16        37.80586
657.59        37.23392
658.02        37.93111
658.45        38.91312
658.87        39.73031
659.30        39.40166
659.73        39.85445
660.15        39.95505
660.58        40.48079
661.01        40.64427
661.44        40.57659
661.86        40.58025
662.29        40.71763
662.72        41.00791
663.14        41.41582
663.57        41.67744
664.00        41.78806
664.42        41.97908
664.85        42.27307
665.27        42.50069
665.70        42.65691
666.13         42.8441
666.55        43.07463
666.98        43.31741
667.41         43.5574
667.83        43.76331
668.26        43.92075
668.69        44.04353
669.11        44.16187
669.54         44.3114
669.96        44.49672
670.39         44.7505
670.82        45.02278
671.24        45.11643
671.67        45.06766
672.09        45.17701
672.52         45.4376
672.94        45.64222
673.37        45.44046
673.80        45.78695
674.22         45.6945
674.65        45.93125
675.07        46.24195
675.50        46.52066
675.92        46.90647
676.35        47.13535
676.77        47.25546
677.20        47.27232
677.62        47.25283
678.05        47.30113
678.47        47.43925
678.90        47.65068
679.32        47.86505
679.75         48.0065
680.17        48.03951
680.60        48.02306
681.02        48.01477
681.45        48.02689
681.87        48.06636
682.30        48.41386
682.72        48.53272
683.15        48.68666
683.57         48.7515
684.00        48.90781
684.42         49.1355
684.85        49.31793
685.27         49.4582
685.70        49.51633
686.12        49.55013
686.54        49.90891
686.97         50.4656
687.39        50.63808
687.82         50.4138
688.24        50.34727
688.66        50.46357
689.09        50.43917
689.51        50.30696
689.94        50.28095
690.36        50.37611
690.78         50.5414
691.21         50.7527
691.63        50.95224
692.06        51.11432
692.48        51.33785
692.90        51.47162
693.33        51.58925
693.75        51.65003
694.17        51.66092
694.60        51.67367
695.02        51.73329
695.44        51.84409
695.87         52.1194
696.29        52.51542
696.71        52.41311
697.14        52.46125
697.56        52.51934
697.98        52.77473
698.41        52.95996
698.83         53.0704
699.25         53.2625
699.68        53.49265
700.10        53.66135
700.52        53.74088
700.94        53.77228
701.37        53.77099
701.79        53.77832
702.21        53.80405
702.64        53.84678
703.06        53.91961
703.48        54.05157
703.90        54.24654
704.33        54.50768
704.75        54.77687
705.17        55.01048
705.59        55.16968
706.01        55.26811
706.44        55.33253
706.86        55.40346
707.28        55.48953
707.70        55.61395
708.12        55.76891
708.55        55.84938
708.97        55.89142
709.39         56.0904
709.81        56.41096
710.23        56.62524
710.66        56.70059
711.08        56.76792
711.50        56.84182
711.92        56.92354
712.34        57.02679
712.76        57.15276
713.19        57.27134
713.61        57.36786
714.03        57.42155
714.45        57.44548
714.87        57.47352
715.29        57.55759
715.71        57.70492
716.13        57.89333
716.56        58.07048
716.98        58.21917
717.40        58.29768
717.82        58.32337
718.24        58.30894
718.66        58.27616
719.08        58.24035
719.50        58.19837
719.92        58.17393
720.34        58.20374
720.76        58.29317
721.19        58.42793
721.61        58.58548
722.03        58.70236
722.45        58.76077
722.87        58.77254
723.29        58.76432
723.71        58.78275
724.13        58.84122
724.55        58.92676
724.97        59.01847
725.39        59.08124
725.81        59.11038
726.23        59.12463
726.65        59.14654
727.07        59.21212
727.49        59.32724
727.91        59.46618
728.33        59.61493
728.75         59.7743
729.17        59.93784
729.59        60.06804
730.01        60.10658
730.43        60.21992
730.85        60.04822
731.27        59.85106
731.69        59.65265
732.10        59.79405
732.52        59.97862
732.94        60.42957
733.36        60.93544
733.78        61.29078
734.20        61.42106
734.62        61.37718
735.04        61.25785
735.46        61.22875
735.88        61.34017
736.30        61.50071
736.72        61.62765
737.13         61.7431
737.55         61.7235
737.97        61.29628
738.39        60.67226
738.81        60.44706
739.23        60.70696
739.65         61.2327
740.06        61.77034
740.48        62.04567
740.90        61.97398
741.32        61.65073
741.74         61.2596
742.16        61.11979
742.57        61.32858
742.99        61.71918
743.41         62.1479
743.83         62.5107
744.25        62.68458
744.67        62.44768
745.08        61.98054
745.50        61.83207
745.92         62.0867
746.34        62.46872
746.75        62.84097
747.17        63.06906
747.59        63.09796
748.01         63.0241
748.42        62.90718
748.84        62.72448
749.26        62.56967
749.68        62.62154
750.09         62.8368
750.51        63.00177
750.93        63.08121
751.35        63.20636
751.76        63.35705
752.18        63.42963
752.60         63.4132
753.01        63.34562
753.43        63.25224
753.85        63.18645
754.27        63.18106
754.68        63.32353
755.10        63.48122
755.52        63.60642
755.93        63.64993
756.35        63.70245
756.77        63.84962
757.18        64.03529
757.60        64.25688
758.02        64.84232
758.43        65.45899
758.85        64.95971
759.26        63.69124
759.68        62.94249
760.10        63.47404
760.51        63.79585
760.93        64.06331
761.34        63.87937
761.76        64.65286
762.18        64.76637
762.59        64.64165
763.01        64.23199
763.42        63.73879
763.84        63.53315
764.26        63.69548
764.67        63.95085
765.09        64.19929
765.50        64.75018
765.92        65.02831
766.33        64.99089
766.75        64.50838
767.16        64.45959
767.58        64.52872
768.00        64.55593
768.41        64.45811
768.83        64.73222
769.24        65.19238
769.66        65.10442
770.07        64.56893
770.49        64.27985
770.90        64.35011
771.32        64.66297
771.73        65.09414
772.15        65.24326
772.56        65.06142
772.97        65.00251
773.39        64.71214
773.80        64.71068
774.22        64.86901
774.63        65.19535
775.05        65.53246
775.46        65.71354
775.88        65.66869
776.29        65.49847
776.70         65.2685
777.12        65.10692
777.53        65.05656
777.95        65.04481
778.36        65.11938
778.77        65.30648
779.19        65.58939
779.60        66.12301
780.02        66.68011
780.43        66.69437
780.84        66.25893
781.26        65.90926
781.67        65.83203
782.09        66.24998
782.50         66.9374
782.91        66.93732
783.33        66.27282
783.74        65.94526
784.15        65.99905
784.57        65.80372
784.98        65.42877
785.39         65.3236
785.81         65.5295
786.22        65.90073
786.63        66.35096
787.04        66.78764
787.46        67.15939
787.87        67.39671
788.28        67.49184
788.70        67.77549
789.11        67.62325
789.52        67.66537
789.93         67.6924
790.35        67.41615
790.76        66.97668
791.17        66.98956
791.58        67.42977
792.00        67.64408
792.41        67.59491
792.82        67.75407
793.23        68.07439
793.65        67.97955
794.06         67.6197
794.47        67.78491
794.88        68.32678
795.29        68.42343
795.71        68.01366
796.12         67.5713
796.53        67.26037
796.94        67.18236
797.35        67.40691
797.76        67.90321
798.18        68.48023
798.59        68.87067
799.00        68.97219
799.41        68.85229
799.82        68.62212
800.23        68.48192
800.64        68.49616
801.06        68.57912
801.47        68.70499
801.88        68.76351
802.29        68.71687
802.70        68.58949
803.11        68.44148
803.52        68.36272
803.93        68.39504
804.34        68.53097
804.75        68.66586
805.17        68.71557
805.58        68.69969
805.99        68.35242
806.40        67.89622
806.81         68.3632
807.22        69.48685
807.63        69.61278
808.04        68.80126
808.45          68.586
808.86        69.05498
809.27        69.29896
809.68        69.22548
810.09        69.15559
810.50        69.08955
810.91        68.93407
811.32        68.78953
811.73        68.81752
812.14        69.04543
812.55         69.4531
812.96        69.89392
813.37         70.0809
813.78         69.9453
814.19        69.58512
814.60         69.1815
815.01        68.99472
815.42        69.08276
815.83        69.36721
816.24         69.7349
816.65        69.96307
817.05         69.9665
817.46        69.78454
817.87        69.52338
818.28        69.28011
818.69        69.09921
819.10        68.96246
819.51        68.87776
819.92        68.86782
820.33        68.93282
820.74         69.0544
821.14        69.24524
821.55        69.53041
821.96        69.88733
822.37        70.30563
822.78        70.65057
823.19        70.69032
823.60        70.37522
824.00         69.7752
824.41         69.1019
824.82        68.71693
825.23        68.70663
825.64        68.99448
826.04        69.40822
826.45        69.55811
826.86        69.36627
827.27        68.95477
827.68        68.51577
828.08        68.37272
828.49        68.56205
828.90         69.0041
829.31        69.56934
829.72        70.04121
830.12        70.36227
830.53        70.51847
830.94        70.59257
831.35        70.68125
831.75        70.82953
832.16        70.92518
832.57        70.94746
832.97        70.83359
833.38        70.59107
833.79        70.31925
834.20        70.04171
834.60        69.75912
835.01        69.52223
835.42        69.29668
835.82        69.24764
836.23        69.58273
836.64        70.32869
837.04        71.43405
837.45        72.47423
837.86        72.88699
838.26        72.53219
838.67        71.59789
839.08        70.46564
839.48        69.71532
839.89        69.55286
840.29        69.80292
840.70        70.30187
841.11        70.79272
841.51        71.18828
841.92        71.53221
842.33        71.82881
842.73        72.05698
843.14        72.16258
843.54        72.15295
843.95        72.05049
844.35        71.97738
844.76        71.94261
845.17        71.91549
845.57        71.89359
845.98        71.83045
846.38        71.73095
846.79          71.614
847.19        71.43845
847.60        71.08607
848.00        70.58377
848.41        69.99363
848.81        69.48907
849.22        69.32034
849.62        69.56169
850.03        70.08827
850.43        70.79362
850.84        71.29179
851.24        71.51017
851.65        71.44614
852.05        71.20975
852.46         70.9392
852.86        70.69031
853.27        70.50294
853.67        70.27746
854.07        70.04858
854.48        69.77389
854.88        69.48057
855.29         69.2075
855.69        69.21833
856.10        69.47216
856.50        69.98784
856.90        70.48253
857.31        70.57573
857.71         70.2458
858.12        69.56078
858.52        68.83014
858.92        68.52797
859.33        68.76471
859.73        69.44875
860.13        70.29322
860.54         70.8355
860.94        70.97527
861.34        70.74711
861.75        70.30497
862.15        69.97491
862.55        69.82452
862.96        69.79244
863.36        69.65483
863.76        69.08594
864.17        68.09689
864.57        66.88212
864.97        65.79489
865.38        65.30782
865.78        65.55319
866.18        66.36118
866.58        67.52369
866.99        68.56936
867.39        69.29452
867.79         69.7562
868.19        69.89815
868.60        69.66364
869.00        69.11026
869.40        68.24354
869.80        67.38432
870.21        67.09594
870.61        67.54989
871.01          68.564
871.41        69.72295
871.81        70.34383
872.22        70.23547
872.62        69.57835
873.02        68.67797
873.42        68.05312
873.82        67.88641
874.22        68.07243
874.63        68.36917
875.03        68.40981
875.43        68.12278
875.83        67.61766
876.23        67.25695
876.63        67.62433
877.03        68.78455
877.44        70.45222
877.84        72.08634
878.24        72.71761
878.64        72.15511
879.04        70.79029
879.44        69.14469
879.84        67.97675
880.24        67.50108
880.64        67.46725
881.04        67.81757
881.44        68.44833
881.84        69.25554
882.24         70.3108
882.65        71.26042
883.05        71.60028
883.45        71.17439
883.85        70.13883
884.25        69.00502
884.65        68.57991
885.05         69.0227
885.45        70.07232
885.85        71.34368
886.25        72.15914
886.65        72.28011
887.05        71.93198
887.45        71.23716
887.85        70.41209
888.25        69.62923
888.65        68.86587
889.04         68.2607
889.44         68.0807
889.84        68.29711
890.24        68.87083
890.64        69.63833
891.04        70.20798
891.44        70.41985
891.84        70.37885
892.24        70.19128
892.64        70.03137
893.04        69.95409
893.44        69.87897
893.83        69.90237
894.23        70.11883
894.63        70.55308
895.03        71.19233
895.43        71.80176
895.83        72.01495
896.23        71.76579
896.63        71.11794
897.02        70.38529
897.42        70.16302
897.82        70.54737
898.22        71.39038
898.62        72.23311
899.01        72.31985
899.41        71.49409
899.81        70.04755
900.21         68.5293
900.61        67.76974
901.00        67.95756
901.40        68.82609
901.80        69.94598
902.20        70.60762
902.59        70.59203
902.99        70.12167
903.39        69.46609
903.79        69.02021
904.18        68.90095
904.58        68.99284
904.98        69.16505
905.38        69.25133
905.77        69.18301
906.17        69.02883
906.57        68.88824
906.96        68.92892
907.36        69.14828
907.76        69.51229
908.15        69.84544
908.55        69.74724
908.95        69.22143
909.34        68.39654
909.74         67.6716
910.14        67.51934
910.53        68.07246
910.93        69.13326
911.33        70.46439
911.72        71.69723
912.12        72.59209
912.52        73.23332
912.91        73.66515
913.31        73.95869
913.70        74.14846
914.10        74.16682
914.49         73.9501
914.89        73.40761
915.29        72.59221
915.68        71.59784
916.08        70.70524
916.47        70.20044
916.87        70.19183
917.26         70.5519
917.66        71.10667
918.05        71.57407
918.45        71.79726
918.84        71.90095
919.24        71.82211
919.64        71.61723
920.03        71.33623
920.42        70.92875
920.82         70.5574
921.21        70.38845
921.61        70.46101
922.00        70.75428
922.40        71.10634
922.79        71.31183
923.19        71.27712
923.58        71.08485
923.98        70.83776
924.37        70.71394
924.77        70.75233
925.16        70.90192
925.55        71.08739
925.95        71.18983
926.34        71.19785
926.74          71.147
927.13         71.0843
927.52        71.04478
927.92        71.05257
928.31        71.06348
928.70         71.0987
929.10        71.18764
929.49        71.31736
929.89        71.44163
930.28        71.50751
930.67        71.34997
931.07        70.95435
931.46        70.42811
931.85        69.85751
932.24        69.36477
932.64         69.0186
933.03        68.81064
933.42        68.81364
933.82        69.12458
934.21        69.73789
934.60         70.5347
934.99         71.3865
935.39        72.06565
935.78        72.52934
936.17         72.8005
936.56        72.69264
936.96        71.97955
937.35        70.74293
937.74        69.15227
938.13        67.74308
938.53        67.18247
938.92        67.52959
939.31        68.65795
939.70        70.09975
940.09        70.92013
940.49        70.79286
940.88        69.97989
941.27         68.9593
941.66        68.46515
942.05        68.67444
942.44        69.40298
942.84        70.23084
943.23        70.48865
943.62         69.9539
944.01        68.86798
944.40        67.81888
944.79         67.6468
945.18        68.50435
945.57         70.1432
945.97        71.84724
946.36        72.61532
946.75         72.0589
947.14        70.51361
947.53        68.74852
947.92        67.92294
948.31        68.32569
948.70        69.66002
949.09        71.25793
949.48        71.91438
949.87        71.29233
950.26        69.80296
950.65        68.22119
951.04        67.61185
951.43        68.19724
951.82        69.67497
952.21         71.3815
952.60        72.11285
952.99        71.51587
953.38        69.99212
953.77        68.35081
954.16        67.65617
954.55        68.12685
954.94        69.54201
955.33          71.216
955.72        71.70367
956.11        70.56243
956.50        68.33126
956.89        66.12585
957.28        65.37908
957.66        66.38911
958.05        68.68091
958.44        71.39866
958.83        72.79445
959.22        72.27126
959.61        70.43876
960.00         68.2588
960.39        66.94653
960.78        66.73645
961.16        67.28555
961.55        68.08669
961.94        68.25069
962.33        67.50931
962.72        66.30858
963.11         65.1086
963.49        64.47511
963.88        64.53057
964.27        65.04254
964.66        65.88176
965.04        66.89049
965.43        67.84203
965.82        68.78474
966.21        69.52599
966.60         69.7173
966.98        69.33876
967.37        68.55723
967.76        67.63379
968.15        66.91995
968.53        66.49476
968.92        66.21301
969.31        66.22128
969.69         66.7817
970.08        67.84085
970.47        69.44009
970.86        70.90824
971.24        71.10081
971.63        69.79549
972.02         67.3916
972.40        64.98021
972.79        64.27947
973.17        65.58553
973.56        68.27573
973.95        71.39553
974.33        73.11632
974.72        72.77891
975.11        71.00998
975.49        68.69411
975.88        67.49246
976.26        67.82027
976.65        69.12203
977.04        70.86845
977.42        72.10568
977.81         72.3249
978.19         71.9531
978.58        71.24578
978.96        70.47564
979.35        69.84507
979.74        69.23852
980.12         68.8431
980.51         68.9612
980.89        69.69694
981.28        70.86537
981.66        72.31977
982.05        73.49356
982.43        74.28889
982.82        74.71581
983.20        74.72962
983.59         74.2189
983.97        73.26347
984.35        71.91164
984.74        70.63498
985.12        70.03603
985.51        70.16871
985.89         71.0263
986.28        71.98071
986.66         72.3134
987.04        71.66697
987.43        70.31754
987.81        68.76463
988.20        68.17754
988.58         68.7654
988.96        70.22361
989.35        71.65484
989.73        71.85353
990.12        70.47717
990.50        68.02177
990.88        65.23785
991.27        63.34469
991.65        62.68646
992.03        62.99771
992.42        63.94457
992.80        65.30441
993.18        66.80901
993.56        68.52455
993.95        70.23019
994.33         71.6038
994.71        72.37901
995.10        72.61858
995.48        72.33842
995.86        71.71763
996.24        70.88186
996.63        69.70289
997.01         68.6702
997.39         68.4669
997.77        69.22456
998.15        70.80085
998.54        72.41222
998.92        72.81203
999.30        71.72527
999.68         69.4864
1000.06        66.96632
1000.45        65.80998
1000.83        66.60415
1001.21        68.83194
1001.59        71.71126
1001.97        73.94439
1002.35        75.06351
1002.73        75.43752
1003.12        75.25676
1003.50        74.73471
1003.88        74.10262
1004.26         73.3165
1004.64         72.5966
1005.02        72.38914
1005.40        72.75174
1005.78        73.47369
1006.16        74.43242
1006.54        75.45431
1006.92        76.42791
1007.30        77.42179
1007.69        77.93279
1008.07        77.10338
1008.45        74.71768
1008.83         71.1328
1009.21        67.40802
1009.59        65.28661
1009.97        65.25964
1010.35        66.82161
1010.73        69.38078
1011.11        71.86173
1011.49        73.72277
1011.86        75.24561
1012.24        75.93996
1012.62        75.28246
1013.00        73.24957
1013.38        69.84275
1013.76        65.86902
1014.14        63.24243
1014.52        62.75409
1014.90        64.06467
1015.28        66.25884
1015.66        67.69925
1016.04        67.88788
1016.41        67.37444
1016.79        66.33826
1017.17        65.27162
1017.55         64.5854
1017.93        64.12116
1018.31        64.09801
1018.69        64.89653
1019.06        66.66149
1019.44        69.44672
1019.82        73.22942
1020.20        76.42091
1020.58        77.41071
1020.95         76.2644
1021.33        73.92915
1021.71        71.33409
1022.09        68.49631
1022.46        64.80112
1022.84        60.57201
1023.22        56.93218
1023.60        55.22641
1023.97        55.50116
1024.35        57.01261
1024.73        58.91423
