SpectraSmart Spectrum 2.9.0.0
--------- Device Information -----------
Spectrum Name :  反射率_0
Saving Time :  2024/04/30 00:40:17
Spectro-Module Model Name : SE2030-DUVN
Spectro-Module Serial Number : OS361AC55029948
Wavelength Start : 200
Wavelength End : 1025
Wavelength Unit : Wavelength(nm)
Spectrum Unit : Reflectance(%)
-----------Spectrum Setting ------------
Integration Time : 20ms
Average : 10
Boxcar : 0
Background removal :  enabled
linearity correction :  enabled
SC :  disabled
Intensity correction :  disabled
DWT denoise :  enabled
savitzky-golay :  disabled
FFT :  disabled
Running average :  disabled
Kalman :  disabled
High pass :  disabled
---------------BEGIN--------------------
Wavelength(nm)             Reflectance(%)
200.29               0
200.75        45.45297
201.21         29.7629
201.67        11.28359
202.13       -2.339197
202.58       -7.520734
203.04       -5.512873
203.50        2.881549
203.96        15.12433
204.42        28.31942
204.88        41.98405
205.34        51.82841
205.80        52.34151
206.26        45.80696
206.72        37.04384
207.18        28.93962
207.64         22.9627
208.10          18.582
208.55        14.30194
209.01        11.93753
209.47        15.58978
209.93        24.28947
210.39        35.23843
210.85        43.42456
211.31        44.64524
211.77        38.63883
212.23        24.50457
212.69        4.604487
213.14       -4.697766
213.60        4.996747
214.06        24.09864
214.52        41.03465
214.98        48.61015
215.44         48.2066
215.90         43.0209
216.36        35.81586
216.81        31.59299
217.27        33.11241
217.73        39.44549
218.19        50.62962
218.65        62.33662
219.11        68.89132
219.57        70.22387
220.02        68.45322
220.48        66.19934
220.94        63.33669
221.40        58.69131
221.86         50.9069
222.32        40.89256
222.77        32.69994
223.23        28.37932
223.69        26.46914
224.15        25.05371
224.61        23.57814
225.06        22.04645
225.52         21.7571
225.98        24.50419
226.44        29.47764
226.90        34.75078
227.36        38.63641
227.81        40.34719
228.27        40.29742
228.73         38.8333
229.19         36.8743
229.65        36.30291
230.10        37.42198
230.56        39.33688
231.02        40.82085
231.48        40.76976
231.93        39.18004
232.39         36.5494
232.85        33.65334
233.31        32.01484
233.77        32.13742
234.22        33.67719
234.68        35.68977
235.14        36.42175
235.60        35.42721
236.05        33.35923
236.51        31.32173
236.97        30.68188
237.43        31.80767
237.88        34.59299
238.34        38.60624
238.80        42.36418
239.26        44.42625
239.71        44.95956
240.17        44.33468
240.63        43.59335
241.08        43.07996
241.54        42.28012
242.00        41.24489
242.46        40.97396
242.91        42.60352
243.37        45.95465
243.83        49.47739
244.28        51.53925
244.74        51.98152
245.20        51.14381
245.66         49.6079
246.11        48.90111
246.57        50.07719
247.03        52.81297
247.48        56.51526
247.94        58.80075
248.40        59.09608
248.85        58.15441
249.31        57.57846
249.77        57.90921
250.22        59.27267
250.68         61.7824
251.14        65.20102
251.59        66.31343
252.05        63.50598
252.51        59.69867
252.96        56.49222
253.42        54.31713
253.88        52.37746
254.33        50.00917
254.79        47.81934
255.25        46.68497
255.70        46.53725
256.16        47.04209
256.62        47.21366
257.07        46.24355
257.53        44.55814
257.99        42.44149
258.44        40.33101
258.90        39.46827
259.35        39.56906
259.81         40.2111
260.27        40.87514
260.72        41.20821
261.18         41.2839
261.63        41.05297
262.09        40.62984
262.55        39.90993
263.00        38.94428
263.46        37.97427
263.91        36.94359
264.37        35.97443
264.83        35.02716
265.28        34.02594
265.74        33.22424
266.19        32.81936
266.65        32.85596
267.11        33.21243
267.56        33.54028
268.02        33.32673
268.47        32.47961
268.93        31.14616
269.38        29.68302
269.84        28.82767
270.30         28.7308
270.75        29.15281
271.21        29.64479
271.66        29.54878
272.12        28.74211
272.57        27.44461
273.03        26.02964
273.48        25.00549
273.94        24.55861
274.39        24.47132
274.85         24.5479
275.31         24.4749
275.76        24.15912
276.22        23.72259
276.67        23.24628
277.13        22.90113
277.58         22.6787
278.04        22.53999
278.49        22.34613
278.95         21.9827
279.40        21.41098
279.86        20.75226
280.31        20.10432
280.77        19.70149
281.22        19.54986
281.68        19.58966
282.13        19.70064
282.59        19.74463
283.04         19.6685
283.50        19.49803
283.95        19.26291
284.41          19.009
284.86        18.74891
285.32        18.50052
285.77        18.20879
286.22        17.85175
286.68        17.44974
287.13        16.99924
287.59        16.61624
288.04        16.42626
288.50        16.45369
288.95        16.62952
289.41        16.82916
289.86        16.84255
290.32        16.65193
290.77         16.3275
291.22         15.9894
291.68        15.82651
292.13        15.88026
292.59        16.09543
293.04        16.43571
293.50         16.8668
293.95        17.35733
294.40        17.91367
294.86        18.45757
295.31        18.88256
295.77        19.16336
296.22        19.31949
296.68        19.43898
297.13        19.64595
297.58        19.98208
298.04        20.38697
298.49        20.81203
298.95        21.16363
299.40        21.41792
299.85         21.6104
300.31        21.75961
300.76        21.84743
301.21        21.90433
301.67        21.92978
302.12        21.94345
302.58        22.11181
303.03        22.44577
303.48        22.75008
303.94        22.90951
304.39        23.56524
304.84         23.3402
305.30        23.35488
305.75        23.28465
306.20        23.31454
306.66        23.46588
307.11        23.68744
307.57         23.8974
308.02         23.9173
308.47        23.73026
308.93         23.4049
309.38        23.03621
309.83        22.81096
310.29        22.77124
310.74        22.86023
311.19        22.97567
311.65        22.95435
312.10        22.76069
312.55         22.4492
313.00        22.12129
313.46          21.931
313.91        21.90072
314.36        21.97789
314.82        22.06765
315.27        22.03945
315.72        21.84948
316.18        21.55194
316.63        21.20066
317.08        20.89097
317.53         20.6587
317.99         20.4808
318.44        20.33582
318.89        20.19379
319.35        20.04118
319.80        19.88653
320.25        19.74501
320.70        19.63707
321.16        19.55532
321.61        19.49972
322.06        19.42319
322.51        19.25957
322.97        19.00175
323.42        18.68033
323.87        18.36038
324.32        18.14595
324.78        18.05391
325.23         18.0604
325.68        18.10523
326.13        18.08712
326.59        17.96985
327.04        17.79057
327.49        17.57698
327.94        17.38396
328.39        17.22543
328.85        17.06931
329.30        16.91799
329.75        16.75683
330.20        16.58512
330.66        16.42071
331.11        16.25138
331.56        16.03463
332.01        15.76674
332.46        15.45146
332.92        15.15057
333.37        14.98733
333.82        14.98323
334.27        15.10268
334.72        15.23674
335.17        15.20144
335.63        14.95254
336.08        14.54957
336.53        14.09205
336.98         13.7604
337.43        13.61575
337.88        13.60529
338.34        13.67607
338.79         13.7625
339.24        13.82594
339.69        13.89454
340.14        13.94984
340.59        13.95881
341.05        13.91667
341.50        13.81255
341.95        13.69174
342.40        13.63968
342.85        13.66799
343.30        13.75179
343.75        13.81436
344.20        13.73186
344.66        13.49375
345.11         13.1423
345.56        12.77127
346.01         12.5243
346.46        12.44592
346.91        12.49585
347.36        12.61607
347.81        12.72052
348.26        12.77705
348.72        12.80002
349.17        12.80653
349.62        12.83114
350.07        12.87613
350.52        12.92372
350.97        12.92798
351.42        12.82364
351.87        12.61318
352.32        12.33608
352.77        12.07058
353.22        11.93879
353.67        11.96995
354.13        12.11949
354.58         12.3342
355.03         12.5281
355.48        12.65992
355.93        12.74607
356.38        12.76818
356.83        12.70156
357.28        12.55475
357.73        12.33937
358.18        12.10498
358.63        11.93495
359.08        11.84942
359.53        11.82538
359.98        11.83786
360.43        11.84031
360.88        11.81472
361.33         11.7786
361.78        11.71806
362.23        11.61024
362.68         11.4606
363.13        11.27773
363.58        11.10716
364.03        11.02357
364.48        11.03926
364.93        11.12708
365.38        11.24033
365.83        11.30299
366.28        11.28814
366.73        11.21311
367.18        11.09313
367.63        10.95377
368.08        10.80933
368.53        10.65871
368.98        10.50708
369.43        10.36276
369.88        10.23491
370.33        10.13124
370.78         10.0675
371.23        10.06378
371.68        10.11674
372.13        10.20854
372.58        10.30949
373.03        10.37537
373.48        10.38698
373.93        10.34935
374.38        10.26079
374.83        10.12526
375.28        9.957464
375.72        9.764625
376.17        9.582961
376.62        9.438996
377.07        9.338859
377.52        9.273459
377.97        9.244934
378.42         9.25188
378.87        9.287399
379.32        9.351606
379.77        9.407681
380.22        9.403383
380.67        9.329727
381.11        9.191743
381.56        9.049688
382.01        9.000517
382.46        9.064918
382.91        9.219576
383.36        9.377261
383.81        9.404438
384.26        9.279622
384.71        9.042006
385.15        8.796095
385.60         8.72772
386.05        8.856277
386.50        9.113924
386.95        9.373529
387.40        9.436649
387.85        9.271415
388.29        8.958965
388.74        8.620499
389.19        8.381651
389.64        8.275864
390.09        8.252761
390.54        8.303391
390.98        8.412071
391.43        8.554868
391.88         8.73362
392.33        8.884126
392.78        8.924349
393.23        8.849582
393.67        8.659408
394.12        8.444139
394.57        8.392642
395.02        8.404726
395.47        8.545026
395.91        8.695083
396.36        8.705308
396.81        8.550628
397.26        8.289232
397.71        8.022739
398.15        7.891213
398.60         7.93205
399.05        8.072524
399.50        8.234624
399.95        8.346292
400.39        8.339229
400.84        8.244141
401.29        8.101904
401.74        8.034655
402.18        8.071545
402.63        8.154657
403.08        8.248277
403.53        8.308065
403.97        8.318642
404.42        8.298223
404.87        8.250842
405.32        8.180192
405.76        8.090737
406.21        7.983996
406.66        7.883767
407.11        7.830638
407.55         7.83541
408.00        7.891864
408.45        7.958517
408.90        7.957474
409.34        7.869924
409.79         7.71726
410.24        7.571901
410.68        7.544549
411.13        7.655527
411.58        7.871242
412.03        8.096533
412.47         8.16924
412.92         8.04439
413.37        7.786203
413.81        7.501553
414.26        7.364825
414.71        7.402944
415.15        7.564824
415.60        7.765374
416.05        7.876383
416.49        7.856048
416.94        7.750397
417.39        7.603425
417.83        7.481255
418.28         7.41366
418.73        7.374592
419.17        7.360993
419.62        7.369884
420.07        7.395453
420.51        7.441741
420.96        7.493847
421.41        7.521338
421.85        7.514965
422.30        7.488075
422.74        7.451088
423.19        7.435913
423.64        7.445588
424.08        7.476898
424.53        7.510239
424.98        7.531333
425.42        7.533872
425.87         7.51299
426.31        7.476943
426.76        7.452651
427.21        7.419564
427.65        7.391509
428.10        7.351536
428.54        7.258748
428.99        7.125595
429.44        7.013758
429.88        6.944391
430.33        6.865763
430.77        6.826993
431.22        7.022406
431.66         7.38468
432.11        7.551159
432.56        7.455043
433.00        7.288086
433.45        7.101873
433.89        6.838572
434.34        6.625376
434.78        6.687875
435.23        6.949738
435.67        7.073761
436.12        7.022598
436.57        6.974174
437.01         6.96541
437.46        6.982792
437.90        7.033327
438.35        7.109362
438.79        7.174891
439.24        7.160751
439.68        7.070916
440.13          6.9617
440.57        6.855043
441.02        6.793823
441.46        6.792304
441.91        6.784604
442.35        6.780285
442.80        6.944394
443.24        7.207066
443.69        7.229006
444.13        7.027383
444.58        6.934255
445.02        6.954136
445.47        6.910339
445.91        6.815364
446.36        6.782441
446.80        6.815834
447.24        6.887848
447.69        6.976132
448.13        7.047019
448.58        7.088952
449.02        7.114525
449.47        7.129311
449.91        7.139193
450.36        7.147361
450.80        7.147069
451.25        7.144511
451.69        7.154115
452.13        7.173182
452.58        7.203053
453.02        7.220517
453.47         7.18919
453.91        7.103778
454.36        7.002103
454.80        6.880487
455.24         6.81196
455.69        6.800547
456.13        6.828247
456.58        6.883602
457.02        6.940188
457.46        6.988457
457.91        7.032426
458.35        7.061552
458.79        7.059383
459.24        7.033024
459.68        6.989499
460.13        6.951484
460.57        6.919708
461.01        6.956062
461.46        6.979181
461.90        7.007946
462.34        7.104968
462.79        7.231162
463.23        7.239368
463.68        7.139072
464.12        7.082061
464.56        7.077173
465.01        7.049406
465.45        7.001857
465.89        6.971352
466.34        6.971717
466.78        7.027351
467.22        7.127741
467.67        7.138124
468.11        7.051129
468.55        6.916088
468.99        6.786644
469.44        6.726795
469.88        6.752217
470.32        6.848269
470.77        6.964593
471.21        7.031436
471.65        7.024542
472.10        6.971727
472.54        6.909115
472.98        6.905129
473.42        6.972126
473.87        7.080073
474.31        7.192681
474.75        7.253329
475.20        7.251794
475.64        7.208697
476.08        7.145208
476.52        7.091365
476.97        7.059201
477.41        7.035981
477.85        7.032841
478.29         7.06621
478.74        7.136155
479.18        7.236267
479.62        7.330569
480.06        7.381807
480.50         7.38412
480.95        7.278903
481.39        7.220349
481.83        7.213692
482.27        7.313453
482.72        7.433198
483.16         7.61522
483.60        7.693989
484.04        7.679851
484.48        7.564426
484.93         7.43242
485.37        7.512363
485.81         7.71489
486.25        7.905424
486.69        7.296696
487.14         7.50118
487.58        8.293942
488.02        7.922164
488.46        8.147642
488.90        8.275809
489.34        7.801742
489.79        7.845404
490.23        8.048085
490.67        8.251958
491.11        8.359292
491.55        8.330122
491.99        8.223231
492.43        8.241905
492.88        8.401386
493.32        8.550896
493.76        8.655301
494.20        8.753088
494.64        8.839012
495.08        8.895208
495.52        8.936068
495.96        9.012076
496.41        9.132119
496.85        9.227252
497.29        9.286359
497.73        9.462319
498.17        9.598741
498.61        9.562403
499.05          9.3731
499.49        9.308195
499.93        9.400948
500.37        9.548077
500.82        9.706264
501.26        9.829413
501.70        9.898335
502.14        9.941816
502.58        9.985584
503.02        10.05775
503.46        10.16624
503.90        10.29892
504.34        10.43335
504.78        10.53269
505.22        10.58676
505.66        10.60795
506.10        10.60726
506.54         10.6144
506.98        10.64035
507.42        10.65445
507.86        10.65356
508.30        10.75333
508.74        10.75627
509.18        10.82177
509.62        10.88101
510.06        10.92161
510.50        10.94054
510.94        10.94555
511.38        10.95155
511.82        10.97836
512.26        11.03067
512.70        11.09895
513.14        11.17397
513.58        11.24222
514.02        11.29832
514.46         11.3462
514.90        11.38086
515.34        11.39447
515.78        11.38746
516.22        11.36164
516.66        11.33111
517.10         11.3189
517.54        11.32897
517.98        11.35438
518.42        11.38006
518.86        11.38039
519.30        11.34965
519.74        11.29804
520.18         11.2367
520.62        11.18182
521.06        11.14033
521.50        11.10918
521.93        11.08987
522.37        11.08165
522.81        11.08364
523.25        11.09406
523.69        11.10928
524.13        11.12331
524.57        11.13234
525.01        11.13529
525.45        11.12619
525.89        11.09766
526.32        11.04827
526.76         10.9826
527.20        10.91081
527.64        10.84898
528.08        10.80107
528.52        10.76492
528.96        10.73121
529.40        10.68397
529.83        10.62045
530.27        10.54805
530.71        10.47833
531.15        10.43086
531.59        10.40847
532.03        10.40253
532.46        10.40025
532.90        10.38394
533.34        10.34967
533.78        10.30741
534.22        10.26088
534.66        10.21525
535.09        10.17287
535.53        10.13364
535.97        10.10819
536.41        10.11831
536.85         10.1629
537.28        10.23285
537.72        10.29793
538.16        10.31401
538.60        10.27384
539.04        10.19792
539.47          10.108
539.91        10.04982
540.35        10.03421
540.79        10.05209
541.22        10.10467
541.66        10.19501
542.10        10.31504
542.54        10.46165
542.97          10.615
543.41        10.74114
543.85        10.83395
544.29        10.90342
544.72        10.95687
545.16        11.01919
545.60        11.09687
546.04        11.17866
546.47        11.27366
546.91         11.4131
547.35        11.58727
547.79        11.75292
548.22        11.88883
548.66        12.02505
549.10        12.16278
549.53        12.24282
549.97        12.26236
550.41        12.46907
550.84        12.49553
551.28        12.61669
551.72        12.71245
552.15        12.88159
552.59        12.95928
553.03        13.07745
553.46         13.1883
553.90        13.28784
554.34        13.37297
554.77        13.45811
555.21        13.54421
555.65         13.5945
556.08        13.62122
556.52        13.69133
556.96        13.79809
557.39        13.89855
557.83        13.98581
558.27        14.05245
558.70        14.10949
559.14         14.1909
559.57        14.28592
560.01        14.37225
560.45        14.43822
560.88        14.42547
561.32        14.42639
561.75        14.44978
562.19        14.51985
562.63        14.57053
563.06        14.59959
563.50         14.6529
563.93        14.72571
564.37        14.80317
564.80        14.87878
565.24        14.95817
565.68        15.03685
566.11        15.11767
566.55         15.2016
566.98        15.26734
567.42        15.33567
567.85        15.41153
568.29        15.49932
568.72        15.63274
569.16         15.8314
569.60        15.82381
570.03        16.10347
570.47        16.24731
570.90        16.35111
571.34        16.56991
571.77        16.61016
572.21        16.63525
572.64        16.57673
573.08        16.76519
573.51        17.21423
573.95        17.06418
574.38        17.08958
574.82        17.31989
575.25        17.27785
575.69        17.28302
576.12         17.0991
576.56        17.43357
576.99        17.50952
577.42        17.61641
577.86        17.59993
578.29          17.478
578.73         17.3299
579.16        17.26376
579.60         17.1385
580.03        17.00727
580.47        17.12207
580.90        17.10548
581.33        16.94879
581.77        17.18996
582.20        16.69407
582.64        16.56409
583.07        16.49465
583.51        16.43954
583.94        16.43139
584.37        16.32011
584.81        16.14575
585.24         16.0925
585.68        16.06353
586.11        16.03982
586.54         15.7084
586.98        15.71955
587.41        15.96964
587.85        15.66219
588.28        15.61825
588.71        15.84972
589.15        15.54728
589.58        15.67474
590.01        15.59161
590.45        15.57837
590.88        15.55552
591.31        15.59149
591.75        15.65916
592.18        15.72652
592.61        15.79835
593.05        15.54734
593.48        15.73238
593.91        15.66657
594.35        15.68664
594.78        15.81965
595.21        16.07809
595.65        16.13944
596.08        16.01754
596.51        16.31331
596.94        16.52625
597.38        16.78364
597.81        16.90148
598.24        17.05239
598.68        17.43243
599.11        17.44724
599.54        17.74606
599.97        17.95038
600.41        18.25558
600.84        18.45725
601.27        18.80071
601.70        19.16266
602.14        19.57208
602.57        19.85558
603.00        20.02486
603.43        20.33236
603.87        20.73589
604.30        21.13838
604.73        21.53478
605.16        21.99574
605.60        22.48873
606.03          22.925
606.46        23.25695
606.89        23.60897
607.32         23.9978
607.76        24.34343
608.19        24.64738
608.62        24.91957
609.05        25.22828
609.48        25.70535
609.92         26.2295
610.35        26.74709
610.78        26.70566
611.21        26.73963
611.64        27.31029
612.07        27.66043
612.50        27.92969
612.94        28.25441
613.37        28.65979
613.80        28.90279
614.23        29.29203
614.66        29.56465
615.09        29.80853
615.52        30.07455
615.96        30.35508
616.39        30.51087
616.82        30.55654
617.25        30.91847
617.68        31.03443
618.11        31.43385
618.54        31.86976
618.97        32.12188
619.40        32.21693
619.84        32.38633
620.27        32.65544
620.70        32.94184
621.13        33.21346
621.56        33.15039
621.99        33.31174
622.42        33.30666
622.85         33.6431
623.28        33.79361
623.71        33.98328
624.14        33.40808
624.57        33.70768
625.00        33.56341
625.43        33.45075
625.86        33.34291
626.29        33.24704
626.72        33.13233
627.15        32.97754
627.58        32.84077
628.01        32.70064
628.44        32.43923
628.87        32.09174
629.30        31.86116
629.73        31.73796
630.16        31.51626
630.59        31.17961
631.02        30.91532
631.45        30.57769
631.88        30.21515
632.31        29.78532
632.74        29.31448
633.17         28.8166
633.60        28.31834
634.03        27.83349
634.46        27.35427
634.89        26.89268
635.32        26.46894
635.75        26.08307
636.18        25.72845
636.61        25.38138
637.04        25.00548
637.47        24.59766
637.89        24.15336
638.32        23.68586
638.75        23.29129
639.18        22.99609
639.61        22.55489
640.04        22.37216
640.47        22.10756
640.90        21.87617
641.33        21.67806
641.76        21.50659
642.18        21.34494
642.61        21.18237
643.04        21.02446
643.47        20.90026
643.90        20.84978
644.33         20.8769
644.76        20.99814
645.18        21.15532
645.61        21.19577
646.04        21.08464
646.47        21.08897
646.90        21.22434
647.33        21.37187
647.75        21.53979
648.18        21.83216
648.61        22.20396
649.04        22.54576
649.47        22.85143
649.89        23.11456
650.32        23.38647
650.75        23.88553
651.18         24.5545
651.61        25.06401
652.03         25.4251
652.46        25.91008
652.89        26.51971
653.32        27.08434
653.74        27.59885
654.17        28.08731
654.60        28.26848
655.03        29.32044
655.46        29.28715
655.88        30.77873
656.31        32.36714
656.74        32.82499
657.16        32.47829
657.59        31.94608
658.02        32.70117
658.45        33.45617
658.87        34.27665
659.30        34.50453
659.73        35.49004
660.15        35.47491
660.58        36.04869
661.01        36.31792
661.44        36.68037
661.86        36.81096
662.29        36.83528
662.72        37.31647
663.14        38.17035
663.57        38.61667
664.00        38.65015
664.42         38.8887
664.85        39.36524
665.27        39.71265
665.70        39.90895
666.13        40.11736
666.55         40.3504
666.98        40.56775
667.41        40.77357
667.83        40.96352
668.26        41.13218
668.69        41.29244
669.11          41.456
669.54        41.63136
669.96        41.82071
670.39        42.04536
670.82        42.27728
671.24        42.41859
671.67        42.48164
672.09        42.60519
672.52         42.8118
672.94        43.06244
673.37        43.02838
673.80        43.53828
674.22        43.60735
674.65        43.89322
675.07        44.13051
675.50        44.34409
675.92        44.53705
676.35        44.70913
676.77        44.87491
677.20        45.01641
677.62        45.14587
678.05        45.28388
678.47         45.4311
678.90        45.58764
679.32        45.73379
679.75          45.845
680.17        45.91358
680.60        45.95802
681.02        45.99771
681.45        46.05972
681.87        46.15471
682.30        46.28172
682.72        46.44739
683.15        46.57512
683.57        46.69981
684.00        46.95797
684.42        47.27639
684.85        47.46521
685.27        47.51199
685.70        47.39283
686.12        47.21849
686.54        47.54113
686.97        48.02794
687.39        48.32843
687.82        48.30607
688.24        48.37557
688.66        48.53373
689.09        48.52026
689.51        48.38171
689.94         48.3554
690.36        48.47422
690.78        48.59933
691.21        48.72605
691.63        49.02676
692.06         49.4006
692.48        49.46823
692.90        49.28495
693.33        49.27754
693.75         49.4808
694.17        49.64924
694.60         49.7609
695.02        49.89354
695.44        50.03652
695.87        50.19012
696.29         50.3591
696.71        50.42556
697.14        50.54539
697.56        50.60914
697.98        50.68259
698.41        50.78462
698.83        50.91283
699.25        51.06593
699.68        51.20654
700.10        51.31115
700.52        51.35712
700.94        51.36261
701.37        51.32913
701.79        51.27552
702.21        51.21027
702.64        51.14793
703.06        51.11945
703.48        51.17758
703.90        51.33271
704.33        51.57728
704.75        51.85359
705.17        52.11561
705.59         52.3191
706.01        52.47609
706.44        52.58699
706.86        52.65747
707.28        52.69312
707.70        52.71088
708.12        52.74129
708.55        52.78373
708.97        52.86578
709.39        53.06438
709.81        53.33984
710.23        53.54876
710.66        53.65602
711.08         53.7374
711.50        53.79634
711.92        53.84389
712.34        53.89206
712.76        53.93621
713.19        53.96685
713.61        54.00415
714.03        54.03778
714.45        54.07493
714.87        54.12446
715.29        54.19609
715.71        54.29034
716.13        54.40055
716.56        54.50422
716.98        54.63107
717.40        54.75245
717.82        54.86401
718.24        54.95301
718.66        55.00269
719.08        55.01249
719.50         54.9886
719.92        54.95098
720.34        54.93189
720.76        54.94123
721.19        54.96663
721.61        55.00742
722.03        55.03849
722.45         55.0527
722.87        55.05624
723.29        55.05535
723.71        55.05939
724.13        55.07194
724.55        55.09096
724.97        55.11309
725.39          55.132
725.81        55.15012
726.23         55.1755
726.65        55.21568
727.07        55.28323
727.49        55.37817
727.91        55.48613
728.33        55.60855
728.75        55.74765
729.17        55.89485
729.59        56.05034
730.01        56.17004
730.43        56.18317
730.85        56.08856
731.27        55.91863
731.69         55.7591
732.10         55.7457
732.52        55.90805
732.94        56.20795
733.36        56.56625
733.78        56.85364
734.20         57.0245
734.62        57.06124
735.04        57.02157
735.46        57.13771
735.88         57.3712
736.30        57.37531
736.72        57.19396
737.13        57.20965
737.55        57.31945
737.97        57.49137
738.39        57.05054
738.81        56.86335
739.23        56.81279
739.65        57.05601
740.06        57.43895
740.48        57.56122
740.90        57.37849
741.32        57.11779
741.74         56.8889
742.16        56.79192
742.57        56.88307
742.99         57.0565
743.41        57.25648
743.83        57.52752
744.25        57.76896
744.67        57.67559
745.08        57.34383
745.50        57.23043
745.92        57.38989
746.34        57.57204
746.75        57.74082
747.17        57.88906
747.59        57.98265
748.01        58.14562
748.42         58.3693
748.84        58.15292
749.26        58.04109
749.68        58.07003
750.09        58.31605
750.51        58.37337
750.93        58.22228
751.35        58.09262
751.76        58.03723
752.18        58.04099
752.60        58.11517
753.01        58.26814
753.43        58.43436
753.85          58.526
754.27        58.53479
754.68        58.51625
755.10        58.48969
755.52        58.49579
755.93        58.53433
756.35        58.51697
756.77        58.52726
757.18        58.71395
757.60        59.09022
758.02        59.47605
758.43        60.37552
758.85         59.8712
759.26        58.56308
759.68        58.06927
760.10        58.80015
760.51        59.18547
760.93        59.21922
761.34        59.10641
761.76        59.24588
762.18        59.37176
762.59        59.59102
763.01        59.14856
763.42        58.81661
763.84        58.61614
764.26        58.80055
764.67        58.98127
765.09          59.139
765.50        59.48841
765.92        59.90758
766.33         59.9357
766.75        59.54184
767.16        59.37061
767.58        59.45479
768.00        59.26814
768.41        58.92451
768.83        59.19307
769.24        59.83275
769.66        59.83001
770.07        59.24784
770.49        58.76817
770.90        58.61734
771.32        59.09173
771.73        59.97243
772.15        60.28918
772.56        59.94849
772.97        59.70015
773.39        59.31265
773.80        59.29512
774.22        59.53872
774.63        59.94777
775.05         60.3372
775.46        60.58443
775.88        60.60581
776.29        60.44613
776.70         60.1862
777.12        60.01176
777.53        59.96776
777.95        59.96206
778.36        60.02169
778.77        60.11704
779.19        60.22285
779.60        60.59807
780.02        61.04525
780.43         60.8282
780.84        60.14796
781.26        60.00941
781.67        60.46767
782.09        61.05896
782.50        61.53254
782.91        61.40808
783.33        60.75901
783.74        60.39362
784.15        60.37396
784.57        60.16304
784.98        59.82205
785.39        59.74439
785.81        59.96075
786.22        60.34885
786.63        60.81259
787.04        61.20248
787.46        61.46273
787.87        61.61021
788.28         61.6958
788.70        61.77411
789.11         61.8546
789.52        61.99712
789.93        62.13765
790.35        62.01826
790.76        61.70897
791.17         61.5947
791.58        61.71682
792.00         61.7637
792.41        61.73501
792.82        61.94002
793.23        62.29447
793.65        62.21524
794.06        61.84188
794.47        61.99943
794.88        62.54836
795.29        62.65384
795.71        62.26103
796.12        61.84818
796.53        61.57813
796.94        61.54425
797.35        61.80888
797.76        62.33688
798.18        62.93243
798.59        63.31696
799.00        63.38982
799.41        63.23074
799.82         62.9429
800.23        62.71382
800.64         62.6137
801.06        62.56136
801.47        62.58375
801.88        62.66029
802.29        62.76748
802.70        62.90862
803.11        63.04248
803.52        63.08558
803.93        63.03134
804.34        62.91673
804.75        62.75711
805.17         62.6346
805.58        62.61269
805.99        62.49532
806.40        62.38335
806.81        62.82095
807.22        63.62913
807.63        63.88025
808.04        63.57523
808.45        63.50512
808.86        63.70421
809.27        63.72532
809.68        63.55215
810.09        63.31176
810.50         63.0896
810.91        63.10061
811.32        63.33611
811.73        63.51389
812.14        63.60037
812.55        63.78082
812.96        63.97379
813.37        63.93061
813.78         63.6361
814.19        63.19318
814.60        62.75645
815.01          62.545
815.42         62.6057
815.83        62.86571
816.24        63.26604
816.65         63.6722
817.05        64.00002
817.46        64.24242
817.87        64.36652
818.28          64.286
818.69        64.00878
819.10        63.54962
819.51        63.05622
819.92        62.81559
820.33        62.90941
820.74        63.25731
821.14        63.70383
821.55        64.00305
821.96        64.07346
822.37        63.98753
822.78        63.79039
823.19        63.57697
823.60         63.3949
824.00        63.20282
824.41        63.02561
824.82        62.93729
825.23        62.94451
825.64        63.05981
826.04        63.20469
826.45         63.1677
826.86        62.93319
827.27         62.5556
827.68         62.2052
828.08        62.17685
828.49        62.48891
828.90        63.08795
829.31        63.79472
829.72        64.29415
830.12        64.51147
830.53        64.45793
830.94        64.31415
831.35         64.3559
831.75        64.67107
832.16        65.10216
832.57        65.51582
832.97        65.65461
833.38        65.46278
833.79         65.0937
834.20        64.64604
834.60        64.23402
835.01        63.94152
835.42        63.70444
835.82        63.65481
836.23         63.9539
836.64        64.61554
837.04        65.60784
837.45        66.55271
837.86        66.94913
838.26        66.66601
838.67        65.86304
839.08        64.85907
839.48        64.14264
839.89        63.89907
840.29        63.98402
840.70        64.28087
841.11        64.60956
841.51        64.90668
841.92        65.19501
842.33        65.46677
842.73        65.67896
843.14        65.77203
843.54        65.76712
843.95        65.67006
844.35        65.56835
844.76        65.46909
845.17        65.34451
845.57        65.23788
845.98        65.18191
846.38        65.19495
846.79        65.27976
847.19        65.32415
847.60         65.0949
848.00        64.58695
848.41        63.89066
848.81         63.2591
849.22        63.06884
849.62        63.41716
850.03        64.14519
850.43        65.05653
850.84        65.61869
851.24        65.71267
851.65        65.40307
852.05        64.87879
852.46        64.41716
852.86        64.11831
853.27        63.95298
853.67        63.81447
854.07        63.71109
854.48         63.5914
854.88        63.50332
855.29        63.40856
855.69        63.38364
856.10        63.35914
856.50        63.39459
856.90        63.41562
857.31        63.35553
857.71        63.25499
858.12        63.10799
858.52        63.00286
858.92        63.03431
859.33        63.20312
859.73        63.51366
860.13        63.89486
860.54        64.24689
860.94        64.56746
861.34        64.79285
861.75        64.87402
862.15        64.78265
862.55        64.49547
862.96        64.07236
863.36        63.49847
863.76        62.76666
864.17          61.952
864.57        61.12489
864.97         60.4711
865.38        60.22494
865.78        60.44963
866.18        61.05379
866.58        61.90041
866.99        62.66362
867.39        63.21348
867.79        63.57931
868.19        63.70615
868.60        63.54024
869.00        63.12338
869.40        62.45781
869.80        61.83022
870.21        61.73124
870.61        62.30099
871.01        63.37328
871.41        64.52079
871.81        65.05257
872.22        64.79343
872.62        63.92724
873.02        62.83443
873.42        62.16098
873.82        62.10283
874.22        62.50188
874.63        63.02011
875.03        63.13496
875.43        62.73289
875.83        62.00336
876.23        61.38378
876.63        61.39632
877.03        62.12088
877.44        63.63027
877.84        65.56649
878.24        65.39729
878.64        65.86411
879.04        64.92808
879.44        63.82161
879.84        63.00215
880.24        62.64297
880.64         62.5241
881.04        62.61979
881.44        62.96486
881.84        63.50603
882.24        64.29693
882.65        65.01608
883.05        65.20706
883.45        64.73088
883.85        63.73437
884.25        62.71247
884.65        62.43313
885.05        63.03032
885.45        64.24536
885.85        65.62196
886.25         66.3731
886.65         66.2421
887.05        65.47711
887.45        64.33792
887.85        63.27721
888.25        62.52542
888.65        62.00036
889.04         61.6796
889.44        61.59133
889.84        61.67397
890.24        61.94225
890.64        62.38645
891.04        62.91892
891.44        63.44516
891.84        63.92825
892.24        64.25053
892.64        64.29974
893.04        64.09141
893.44        63.65792
893.83         63.2112
894.23        63.06419
894.63        63.32213
895.03        63.88562
895.43        64.53024
895.83        64.90407
896.23        64.91512
896.63        64.65185
897.02        64.25868
897.42        64.04105
897.82        64.06033
898.22        64.25433
898.62         64.4629
899.01        64.43681
899.41        64.11729
899.81        63.60518
900.21        63.13213
900.61        63.04309
901.00        63.39337
901.40        64.06572
901.80        64.76405
902.20        65.01192
902.59        64.69177
902.99        63.94683
903.39        63.07676
903.79        62.52679
904.18        62.40905
904.58        62.62433
904.98        62.93933
905.38        62.99986
905.77        62.70583
906.17        62.17266
906.57        61.64173
906.96        61.51371
907.36        61.84016
907.76        62.51809
908.15        63.22713
908.55        63.32269
908.95        62.73944
909.34        61.68696
909.74        60.68863
910.14        60.41478
910.53        61.04067
910.93        62.28495
911.33        63.83192
911.72         65.1893
912.12        66.08083
912.52        66.64825
912.91        66.92957
913.31        66.99368
913.70        66.89779
914.10        66.57172
914.49        66.07407
914.89        65.49391
915.29        64.90498
915.68        64.35688
916.08        63.93354
916.47        63.61149
916.87        63.43695
917.26        63.36279
917.66        63.44111
918.05        63.76586
918.45        64.27336
918.84        64.96514
919.24        65.54017
919.64         65.6344
920.03        65.18602
920.42        64.29726
920.82        63.33998
921.21        62.79683
921.61        62.79546
922.00        63.20905
922.40        63.80007
922.79        64.22695
923.19         64.3428
923.58        64.29025
923.98        64.15305
924.37        64.07324
924.77        64.09055
925.16        64.13338
925.55         64.2075
925.95        64.34638
926.34        64.54984
926.74        64.79933
927.13        64.99222
927.52        64.92028
927.92        64.56321
928.31        63.97216
928.70         63.3175
929.10        62.86444
929.49        62.68348
929.89        62.68504
930.28        62.77967
930.67         62.7416
931.07        62.51161
931.46         62.2037
931.85        61.87634
932.24        61.60959
932.64         61.4571
933.03        61.40042
933.42        61.48848
933.82         61.7969
934.21        62.31806
934.60        62.94816
934.99        63.62171
935.39        64.21806
935.78        64.71549
936.17        65.11491
936.56        65.17924
936.96         64.5748
937.35        63.36136
937.74         61.7611
938.13        60.32439
938.53        59.74131
938.92        60.08965
939.31        61.21152
939.70        62.70428
940.09        63.75081
940.49        64.00853
940.88        63.67176
941.27        63.04894
941.66        62.63527
942.05        62.57264
942.44        62.75427
942.84         62.9036
943.23          62.623
943.62        61.82404
944.01        60.68512
944.40        59.74545
944.79        59.76192
945.18        60.83197
945.57        62.71798
945.97        64.65028
946.36        65.50693
946.75        64.87897
947.14         63.1462
947.53        61.09982
947.92         59.9459
948.31         60.0023
948.70        60.94315
949.09         62.2435
949.48        62.94591
949.87         62.7333
950.26        61.92779
950.65        60.98741
951.04        60.51977
951.43          60.675
951.82        61.27715
952.21        61.97027
952.60        62.15478
952.99        61.66862
953.38        60.70676
953.77        59.78728
954.16         59.5889
954.55        60.23263
954.94        61.60887
955.33        63.10821
955.72        63.44019
956.11         62.2416
956.50        59.99277
956.89        57.77073
957.28        56.96955
957.66        57.87289
958.05        60.03847
958.44         62.6758
958.83        64.13477
959.22        63.83728
959.61        62.35423
960.00        60.52595
960.39        59.42696
960.78        59.27419
961.16        59.73238
961.55        60.43295
961.94        60.72477
962.33        60.38205
962.72        59.75259
963.11        59.06339
963.49        58.56303
963.88        58.33279
964.27         58.2508
964.66        58.41655
965.04        59.07277
965.43        60.13579
965.82        61.53816
966.21        62.91427
966.60        63.58612
966.98        63.40528
967.37        62.62969
967.76         61.5964
968.15        60.76125
968.53        60.23688
968.92        59.83119
969.31        59.70206
969.69        60.14503
970.08        61.14087
970.47        62.76373
970.86        64.31622
971.24        64.57948
971.63        63.32175
972.02        60.94513
972.40        58.62708
972.79        58.21755
973.17        60.01307
973.56        63.32392
973.95        67.03558
974.33        69.03139
974.72        68.57236
975.11        66.38287
975.49        63.47846
975.88        61.73508
976.26        61.64774
976.65        62.61317
977.04        64.13331
977.42        65.30875
977.81         65.6191
978.19        65.46545
978.58         64.9745
978.96        64.18482
979.35        63.26529
979.74        62.19902
980.12        61.23415
980.51        60.82167
980.89        61.12194
981.28        61.85931
981.66        63.06534
982.05        64.48898
982.43        66.04587
982.82        67.73114
983.20        68.90522
983.59        68.42432
983.97         66.2067
984.35        62.68937
984.74        59.27578
985.12        57.94033
985.51        58.95848
985.89        61.86729
986.28        65.29034
986.66        67.23875
987.04         66.9496
987.43        65.06742
987.81        62.49536
988.20        61.15036
988.58        61.53886
988.96        63.12109
989.35        64.89909
989.73        65.51891
990.12        64.55994
990.50        62.61203
990.88        60.36608
991.27        58.89628
991.65        58.48177
992.03        58.80438
992.42        59.59745
992.80        60.77682
993.18        62.11279
993.56        63.70035
993.95        65.15942
994.33        65.86995
994.71        65.59981
995.10        64.58182
995.48        63.32204
995.86        62.67662
996.24        62.86644
996.63        63.56524
997.01        64.70564
997.39        65.92997
997.77        66.97137
998.15        67.91065
998.54        68.42906
998.92        68.03455
999.30        66.70171
999.68        64.62072
1000.06        62.37228
1000.45        61.07627
1000.83        61.17673
1001.21        62.34636
1001.59        64.35609
1001.97        66.73544
1002.35        69.14285
1002.73        71.64803
1003.12        73.58205
1003.50        73.85765
1003.88        72.41516
1004.26        69.55722
1004.64        66.39726
1005.02        64.93075
1005.40        65.61109
1005.78        67.74052
1006.16        70.30359
1006.54        71.85566
1006.92        72.02626
1007.30        71.25257
1007.69        69.74493
1008.07        68.08528
1008.45        66.65565
1008.83         65.3642
1009.21        64.46454
1009.59        64.38874
1009.97        65.13219
1010.35        66.48456
1010.73        68.19656
1011.11        69.76836
1011.49        70.93168
1011.86         71.8789
1012.24        71.97423
1012.62        70.48736
1013.00        67.34873
1013.38        62.58813
1013.76        57.50537
1014.14        54.92567
1014.52        55.87933
1014.90        59.78968
1015.28        64.54233
1015.66        66.68828
1016.04        65.35223
1016.41         61.5056
1016.79        56.71757
1017.17        54.24478
1017.55        55.00727
1017.93        57.49113
1018.31        60.43645
1018.69        62.99835
1019.06        65.31373
1019.44        67.87343
1019.82        70.98728
1020.20        74.05895
1020.58        76.01272
1020.95        76.32385
1021.33         75.3651
1021.71        73.75694
1022.09        71.54353
1022.46        68.25253
1022.84        64.20052
1023.22        60.42921
1023.60        58.30406
1023.97        58.01405
1024.35        58.77738
1024.73        59.54409
