SpectraSmart Spectrum 2.9.0.0
--------- Device Information -----------
Spectrum Name :  反射率_0
Saving Time :  2024/04/30 01:05:29
Spectro-Module Model Name : SE2030-DUVN
Spectro-Module Serial Number : OS361AC55029948
Wavelength Start : 200
Wavelength End : 1025
Wavelength Unit : Wavelength(nm)
Spectrum Unit : Reflectance(%)
-----------Spectrum Setting ------------
Integration Time : 20ms
Average : 10
Boxcar : 0
Background removal :  enabled
linearity correction :  enabled
SC :  disabled
Intensity correction :  disabled
DWT denoise :  enabled
savitzky-golay :  disabled
FFT :  disabled
Running average :  disabled
Kalman :  disabled
High pass :  disabled
---------------BEGIN--------------------
Wavelength(nm)             Reflectance(%)
200.29               0
200.75        55.79546
201.21        44.10088
201.67        29.37104
202.13         17.1844
202.58        10.31467
203.04         8.17747
203.50        10.12317
203.96        14.66088
204.42        20.36984
204.88        26.82303
205.34        34.17068
205.80        41.73345
206.26        47.72092
206.72        51.72885
207.18          52.021
207.64        46.95115
208.10        37.18618
208.55         23.2386
209.01        8.872017
209.47        4.160699
209.93        10.97939
210.39        23.96697
210.85        36.22424
211.31        42.44755
211.77        42.63401
212.23        37.52332
212.69         28.7942
213.14         25.4871
213.60        31.31752
214.06        40.99666
214.52        48.53487
214.98        50.14825
215.44        46.70423
215.90        40.13699
216.36        32.70582
216.81        28.68384
217.27        30.50297
217.73          37.577
218.19        50.13183
218.65        63.49078
219.11        71.23438
219.57        72.93105
220.02        70.50585
220.48        66.46267
220.94        60.60704
221.40        51.44823
221.86        38.53601
222.32        26.85418
222.77        21.64868
223.23        21.96637
223.69        23.98326
224.15        24.82584
224.61        24.31481
225.06        22.95927
225.52        22.10992
225.98        23.77823
226.44         27.5697
226.90        31.73428
227.36        34.66405
227.81        35.46682
228.27        34.47284
228.73        32.09842
229.19        29.47942
229.65        28.95317
230.10        30.79946
230.56        33.65315
231.02        36.07126
231.48        36.85019
231.93        35.99575
232.39        34.08184
232.85        31.67735
233.31        29.90021
233.77        29.18571
234.22        29.29591
234.68         29.7743
235.14        29.79035
235.60        29.16878
236.05        28.30112
236.51        27.73414
236.97        28.10202
237.43        29.61196
237.88         32.3056
238.34        35.93179
238.80        39.55072
239.26        41.99723
239.71        43.16665
240.17        43.11003
240.63        42.51235
241.08         41.5865
241.54        39.81928
242.00        37.06152
242.46        34.60087
242.91          34.671
243.37        37.72972
243.83        42.25375
244.28         46.3218
244.74        49.69555
245.20        52.80589
245.66        55.95197
246.11        59.45784
246.57        63.31474
247.03         67.6258
247.48        70.40924
247.94        67.76915
248.40        61.42308
248.85        54.33574
249.31        49.87541
249.77        49.13761
250.22        51.82262
250.68        58.48255
251.14        68.74374
251.59        73.69575
252.05        67.88934
252.51        58.58022
252.96        51.41105
253.42        48.07986
253.88         47.0541
254.33         46.8653
254.79        47.25846
255.25         47.2206
255.70        46.53181
256.16        46.12189
256.62        45.65378
257.07        44.73676
257.53        43.68688
257.99        42.38327
258.44          41.273
258.90        41.54658
259.35        42.62643
259.81        44.05703
260.27        44.99854
260.72         44.7851
261.18        43.72963
261.63        42.06927
262.09        40.38205
262.55        39.16019
263.00        38.43378
263.46        38.08776
263.91        37.76398
264.37        37.25365
264.83        36.47001
265.28        35.48546
265.74        34.56079
266.19        33.89228
266.65        33.57113
267.11        33.46419
267.56        33.38836
268.02        33.07497
268.47         32.4519
268.93        31.60878
269.38        30.66424
269.84        29.93544
270.30        29.48496
270.75        29.22026
271.21        28.98623
271.66        28.53839
272.12        27.83535
272.57        26.97097
273.03         26.0904
273.48        25.34655
273.94        24.83915
274.39        24.46202
274.85        24.22446
275.31        24.09498
275.76        24.00894
276.22        23.96795
276.67        23.84284
277.13        23.51526
277.58        22.94948
278.04        22.24194
278.49        21.46588
278.95        20.79537
279.40        20.24885
279.86         19.8475
280.31        19.54119
280.77        19.34527
281.22        19.21394
281.68         19.1559
282.13        19.15763
282.59        19.22652
283.04        19.33139
283.50        19.44135
283.95        19.48032
284.41        19.33841
284.86        19.01049
285.32        18.58536
285.77        18.12776
286.22        17.78477
286.68        17.60036
287.13         17.4978
287.59         17.4993
288.04        17.58712
288.50        17.74317
288.95        17.94486
289.41        18.10285
289.86        18.05571
290.32        17.81133
290.77        17.42719
291.22        17.04068
291.68        16.87163
292.13        16.96684
292.59        17.26941
293.04        17.72763
293.50        18.27838
293.95         18.8855
294.40          19.571
294.86        20.25532
295.31        20.83006
295.77        21.27131
296.22        21.58862
296.68        21.89654
297.13        22.36361
297.58         23.0267
298.04        23.80085
298.49        24.56676
298.95        25.12806
299.40        25.44104
299.85        25.57795
300.31        25.63068
300.76        25.68829
301.21        25.81527
301.67        25.99039
302.12        26.18795
302.58        26.50545
303.03        26.93423
303.48        27.31026
303.94        27.56826
304.39        28.36584
304.84         28.4159
305.30        28.74337
305.75        28.97305
306.20        29.17802
306.66        29.36883
307.11        29.53489
307.57        29.68046
308.02        29.74588
308.47        29.73941
308.93        29.68073
309.38        29.60808
309.83          29.625
310.29        29.74193
310.74        29.92405
311.19        30.07102
311.65        30.02061
312.10        29.74875
312.55        29.31805
313.00        28.86316
313.46         28.5931
313.91        28.54411
314.36        28.65121
314.82        28.80649
315.27         28.8528
315.72        28.73093
316.18        28.50084
316.63        28.19431
317.08        27.87378
317.53        27.57215
317.99        27.27334
318.44        26.99532
318.89        26.77467
319.35          26.614
319.80        26.50875
320.25        26.43333
320.70        26.33905
321.16        26.19963
321.61        26.03515
322.06        25.84089
322.51        25.62575
322.97        25.39654
323.42        25.15339
323.87         24.9077
324.32        24.68147
324.78        24.47227
325.23        24.29304
325.68        24.11774
326.13        23.90596
326.59        23.64871
327.04        23.36629
327.49        23.09843
327.94        22.92023
328.39        22.83801
328.85        22.81343
329.30        22.79357
329.75        22.65192
330.20        22.36311
330.66        21.97674
331.11        21.55672
331.56         21.1838
332.01        20.89093
332.46         20.6483
332.92        20.47858
333.37        20.44061
333.82         20.5227
334.27        20.70819
334.72        20.88494
335.17        20.86321
335.63        20.59879
336.08        20.14714
336.53        19.62143
336.98         19.2374
337.43        19.06473
337.88        19.04271
338.34        19.10589
338.79        19.16382
339.24        19.17224
339.69        19.17411
340.14        19.15193
340.59        19.07273
341.05        18.94107
341.50        18.74939
341.95        18.56809
342.40         18.5234
342.85         18.6271
343.30        18.83164
343.75        19.02345
344.20        19.01914
344.66        18.78891
345.11        18.39311
345.56        17.92825
346.01        17.54741
346.46        17.30919
346.91        17.17293
347.36        17.12102
347.81        17.12602
348.26         17.1621
348.72        17.23056
349.17        17.29404
349.62        17.28889
350.07        17.19946
350.52        17.04457
350.97        16.84363
351.42        16.62963
351.87        16.42718
352.32        16.24209
352.77        16.11057
353.22        16.08734
353.67        16.17692
354.13        16.35229
354.58        16.57216
355.03        16.76954
355.48        16.90948
355.93        16.99699
356.38        17.01007
356.83        16.92335
357.28          16.745
357.73         16.4896
358.18        16.21151
358.63        15.99815
359.08        15.87247
359.53        15.81502
359.98        15.79457
360.43        15.75352
360.88        15.67516
361.33        15.58178
361.78        15.47897
362.23        15.37428
362.68        15.27513
363.13        15.17522
363.58        15.09199
364.03        15.05682
364.48        15.06931
364.93        15.11413
365.38        15.15994
365.83        15.15658
366.28        15.08984
366.73        14.97481
367.18        14.82624
367.63        14.66809
368.08        14.51389
368.53        14.36248
368.98        14.22457
369.43        14.11632
369.88        14.04134
370.33        13.99691
370.78        13.97466
371.23        13.95772
371.68        13.93629
372.13        13.90882
372.58        13.86673
373.03        13.79969
373.48        13.70457
373.93        13.58115
374.38        13.44071
374.83        13.30478
375.28        13.18516
375.72        13.07994
376.17        12.99389
376.62        12.90263
377.07        12.80168
377.52        12.69205
377.97        12.60093
378.42        12.57286
378.87        12.61206
379.32         12.7022
379.77        12.78624
380.22         12.7814
380.67        12.67292
381.11        12.48125
381.56        12.27701
382.01        12.17406
382.46        12.20037
382.91        12.32462
383.36        12.46629
383.81        12.50177
384.26        12.40818
384.71         12.2249
385.15        12.02992
385.60        11.96847
386.05        12.05418
386.50        12.23015
386.95         12.4105
387.40        12.46312
387.85        12.36337
388.29        12.16201
388.74        11.93497
389.19        11.73767
389.64        11.59247
390.09        11.47424
390.54         11.4065
390.98        11.42902
391.43        11.53688
391.88        11.70929
392.33        11.87046
392.78        11.92449
393.23        11.86056
393.67        11.68216
394.12        11.46605
394.57        11.39924
395.02        11.33633
395.47        11.37893
395.91          11.436
396.36        11.42822
396.81        11.34241
397.26        11.21366
397.71        11.07973
398.15        10.98572
398.60        10.96013
399.05        10.95904
399.50        10.96633
399.95         11.0106
400.39        11.02608
400.84        11.01176
401.29        10.96161
401.74         10.9319
402.18        10.92948
402.63        10.91973
403.08        10.89793
403.53        10.86597
403.97        10.82444
404.42        10.77576
404.87        10.72598
405.32        10.68408
405.76        10.64748
406.21        10.61417
406.66        10.58491
407.11          10.564
407.55        10.55445
408.00        10.55729
408.45        10.54681
408.90        10.47637
409.34        10.34145
409.79        10.15812
410.24        9.997053
410.68         9.96383
411.13        10.07527
411.58        10.29973
412.03        10.53972
412.47        10.62725
412.92        10.51259
413.37        10.25891
413.81        9.968943
414.26        9.814885
414.71        9.824548
415.15        9.951089
415.60        10.11575
416.05        10.20277
416.49        10.17497
416.94         10.0734
417.39        9.942549
417.83        9.848696
418.28        9.816091
418.73        9.814068
419.17        9.824792
419.62         9.82343
420.07        9.801338
420.51        9.772791
420.96        9.737635
421.41        9.687605
421.85        9.624159
422.30        9.560118
422.74        9.507302
423.19        9.502112
423.64        9.543123
424.08        9.622733
424.53        9.712004
424.98        9.780478
425.42        9.814738
425.87         9.81276
426.31        9.773629
426.76        9.716047
427.21        9.614763
427.65        9.489517
428.10        9.358221
428.54        9.233572
428.99        9.136029
429.44         9.12298
429.88        9.160679
430.33        9.082066
430.77        8.941195
431.22        9.030241
431.66        9.311835
432.11        9.424298
432.56        9.317111
433.00        9.204619
433.45        9.107409
433.89        8.866499
434.34        8.609682
434.78        8.658454
435.23        8.944161
435.67        9.076158
436.12        9.019899
436.57        8.987037
437.01        9.004688
437.46        9.023853
437.90        9.048716
438.35          9.0871
438.79        9.116858
439.24         9.08634
439.68        9.006659
440.13        8.932274
440.57        8.874211
441.02        8.856854
441.46        8.885013
441.91        8.880963
442.35        8.854447
442.80        9.016137
443.24        9.275623
443.69        9.199004
444.13        8.838655
444.58         8.65115
445.02        8.646393
445.47        8.593357
445.91        8.493375
446.36        8.460003
446.80         8.49111
447.24        8.562571
447.69        8.647113
448.13        8.702705
448.58        8.717511
449.02        8.701582
449.47        8.679631
449.91        8.687411
450.36        8.732871
450.80        8.803391
451.25        8.870963
451.69        8.894216
452.13        8.862414
452.58        8.794396
453.02        8.716584
453.47        8.671369
453.91        8.666346
454.36        8.714477
454.80        8.747129
455.24        8.754127
455.69        8.715969
456.13        8.645865
456.58        8.575059
457.02        8.541391
457.46        8.555336
457.91        8.599902
458.35         8.64928
458.79        8.666562
459.24        8.650583
459.68        8.617396
460.13        8.587792
460.57        8.549756
461.01        8.577888
461.46        8.577213
461.90        8.576384
462.34        8.665177
462.79        8.800307
463.23        8.797356
463.68        8.676702
464.12        8.633615
464.56        8.675889
465.01        8.706207
465.45        8.703725
465.89        8.678765
466.34        8.644775
466.78        8.642406
467.22        8.684293
467.67        8.652658
468.11        8.554068
468.55        8.435525
468.99        8.337835
469.44        8.300077
469.88        8.330903
470.32         8.42299
470.77        8.532607
471.21        8.600585
471.65        8.604633
472.10        8.567327
472.54        8.517485
472.98          8.5144
473.42        8.569462
473.87        8.658216
474.31        8.750967
474.75        8.801668
475.20        8.803312
475.64        8.772259
476.08        8.727656
476.52        8.695904
476.97        8.686937
477.41        8.688959
477.85        8.709185
478.29        8.757757
478.74        8.834003
479.18        8.930725
479.62        9.018898
480.06        9.075568
480.50        9.098815
480.95        9.014348
481.39        8.993062
481.83        9.002959
482.27         9.10509
482.72         9.20962
483.16        9.399015
483.60        9.492072
484.04         9.50382
484.48        9.466852
484.93        9.451437
485.37        9.519481
485.81        9.635718
486.25        9.958166
486.69        9.652256
487.14         9.86791
487.58        10.33467
488.02        10.18745
488.46        10.48519
488.90        10.53199
489.34        10.21148
489.79        10.17507
490.23        10.28009
490.67        10.43558
491.11        10.56502
491.55        10.54341
491.99        10.43246
492.43        10.50329
492.88        10.76904
493.32        11.04862
493.76        11.28228
494.20        11.47953
494.64        11.62602
495.08        11.71282
495.52        11.75652
495.96        11.82111
496.41        11.92547
496.85        11.98146
497.29        12.00436
497.73        12.23551
498.17        12.47949
498.61        12.55119
499.05        12.42874
499.49        12.40332
499.93         12.5031
500.37        12.61151
500.82        12.71074
501.26        12.80494
501.70        12.88699
502.14        12.97367
502.58        13.07469
503.02         13.1881
503.46        13.31452
503.90        13.45662
504.34        13.59474
504.78        13.69517
505.22        13.75012
505.66        13.76414
506.10        13.76226
506.54        13.80159
506.98        13.89561
507.42        14.00238
507.86        14.07794
508.30        14.21063
508.74        14.13055
509.18        14.06741
509.62        13.99362
510.06        13.99325
510.50        14.08222
510.94        14.23994
511.38        14.41862
511.82        14.53031
512.26        14.55178
512.70        14.50889
513.14          14.447
513.58        14.43696
514.02        14.49646
514.46        14.60163
514.90        14.71686
515.34        14.78542
515.78        14.79132
516.22        14.75425
516.66        14.70208
517.10        14.67663
517.54        14.68834
517.98        14.72126
518.42        14.75517
518.86        14.75919
519.30        14.72517
519.74        14.66553
520.18        14.59397
520.62        14.52937
521.06        14.47861
521.50        14.43708
521.93        14.40219
522.37        14.36593
522.81        14.32867
523.25        14.29445
523.69        14.26662
524.13        14.24864
524.57        14.23985
525.01        14.23634
525.45        14.23338
525.89         14.2247
526.32        14.20567
526.76        14.17964
527.20        14.14594
527.64        14.10541
528.08         14.0588
528.52        14.00636
528.96        13.94973
529.40        13.89163
529.83        13.83326
530.27        13.77736
530.71        13.72307
531.15        13.67042
531.59        13.61846
532.03        13.56522
532.46        13.51169
532.90        13.46301
533.34        13.41945
533.78        13.38358
534.22        13.34576
534.66        13.29017
535.09        13.21583
535.53        13.13355
535.97        13.06476
536.41        13.04851
536.85        13.08962
537.28        13.17203
537.72        13.26535
538.16        13.32486
538.60        13.33819
539.04        13.32297
539.47        13.28738
539.91        13.25931
540.35        13.24634
540.79        13.24619
541.22        13.27194
541.66        13.34727
542.10        13.47101
542.54        13.63537
542.97        13.81784
543.41        13.98065
543.85        14.11427
544.29        14.23078
544.72        14.33154
545.16        14.43274
545.60        14.53965
546.04        14.64178
546.47        14.75475
546.91        14.92714
547.35         15.1485
547.79         15.3573
548.22        15.52929
548.66        15.71057
549.10        15.90156
549.53        16.02482
549.97        16.06179
550.41        16.31314
550.84        16.29658
551.28         16.3824
551.72        16.43728
552.15        16.62443
552.59        16.73846
553.03        16.93605
553.46        17.13798
553.90         17.3126
554.34        17.44573
554.77        17.56322
555.21        17.66684
555.65        17.71154
556.08        17.71754
556.52        17.77187
556.96        17.87251
557.39         17.9743
557.83        18.07223
558.27        18.15656
558.70           18.24
559.14        18.36263
559.57         18.5068
560.01        18.64228
560.45        18.75179
560.88        18.75718
561.32        18.77706
561.75        18.82292
562.19        18.92102
562.63        18.97869
563.06        18.99374
563.50        19.02908
563.93        19.09038
564.37        19.17688
564.80         19.2835
565.24        19.41249
565.68        19.54496
566.11        19.66388
566.55        19.76512
566.98        19.82715
567.42        19.88907
567.85        19.97248
568.29         20.0856
568.72         20.2812
569.16        20.57917
569.60        20.56231
570.03        20.85477
570.47        21.06833
570.90        21.19089
571.34        21.33382
571.77        21.46008
572.21        21.57417
572.64        21.67063
573.08        21.77299
573.51         21.9081
573.95        22.08538
574.38        22.13228
574.82        22.41869
575.25        22.34197
575.69        22.35023
576.12         22.3287
576.56        22.37735
576.99        22.47468
577.42        22.58212
577.86        22.51036
578.29        22.42723
578.73        22.54432
579.16        22.32928
579.60        22.30562
580.03         22.0501
580.47        22.12181
580.90        22.10283
581.33         22.0584
581.77        22.20833
582.20        22.03045
582.64        21.86899
583.07        21.63418
583.51        21.39841
583.94        21.27935
584.37        21.03777
584.81        20.77175
585.24        20.86171
585.68        21.06297
586.11        21.03239
586.54        20.66175
586.98        20.43122
587.41        20.74035
587.85        20.74738
588.28        20.46587
588.71        20.64152
589.15         20.4771
589.58        20.36771
590.01        20.33673
590.45        20.29066
590.88        20.33325
591.31        20.36613
591.75        20.34011
592.18        20.38696
592.61        20.56546
593.05        20.02213
593.48        20.48747
593.91        20.44711
594.35        20.44371
594.78         20.5421
595.21        20.74881
595.65        20.86988
596.08        20.69201
596.51        21.09743
596.94        21.36666
597.38        21.65897
597.81        21.70918
598.24        21.95977
598.68        22.21547
599.11        22.18739
599.54        22.82779
599.97        23.12869
600.41        23.15192
600.84        23.56315
601.27        23.85443
601.70        24.31638
602.14        24.77374
602.57        25.00713
603.00        25.26737
603.43        25.60404
603.87        26.02931
604.30        26.42854
604.73        26.79648
605.16        27.19107
605.60        27.59725
606.03        28.02663
606.46        28.41464
606.89        28.77432
607.32        29.12424
607.76        29.47122
608.19        29.81021
608.62        30.12828
609.05         30.4518
609.48        30.92179
609.92        30.97222
610.35        31.67383
610.78        31.80767
611.21        31.82823
611.64        32.19704
612.07        32.46627
612.50        32.82503
612.94        33.20642
613.37        33.65976
613.80        33.69632
614.23        34.27274
614.66        34.48373
615.09        34.63309
615.52        34.82619
615.96        35.05883
616.39        35.29868
616.82        35.22876
617.25         35.6118
617.68         35.6911
618.11        36.03551
618.54        36.38239
618.97        36.57543
619.40         36.6399
619.84        36.77679
620.27        37.01516
620.70        37.27258
621.13        37.47961
621.56        37.55056
621.99        37.17835
622.42        37.33323
622.85        37.89463
623.28        37.74916
623.71        38.35944
624.14        37.49254
624.57        38.02151
625.00        37.92333
625.43        37.92737
625.86        37.68645
626.29        37.52055
626.72        37.46117
627.15        37.28086
627.58        37.18314
628.01        37.09419
628.44        36.88584
628.87        36.58647
629.30        36.35329
629.73        36.20228
630.16        35.99579
630.59        35.72342
631.02        35.55991
631.45        35.32458
631.88        34.99215
632.31        34.63754
632.74        34.18409
633.17        33.69454
633.60        33.20863
634.03        32.74601
634.46        32.29261
634.89        31.85251
635.32        31.43725
635.75        31.04602
636.18        30.67849
636.61        30.32046
637.04        29.95034
637.47        29.56877
637.89        29.16059
638.32        28.73052
638.75         28.3759
639.18        28.12108
639.61        27.67164
640.04        27.51782
640.47         27.2357
640.90        26.96885
641.33        26.71713
641.76        26.49507
642.18        26.32016
642.61        26.18694
643.04        26.09238
643.47        26.03652
643.90        26.01724
644.33        26.02878
644.76        26.07931
645.18         26.1874
645.61        26.19429
646.04        26.08866
646.47        26.17999
646.90        26.43978
647.33        26.64087
647.75        26.76775
648.18        26.96643
648.61        27.23857
649.04        27.52386
649.47        27.82941
649.89        28.17392
650.32        28.54626
650.75        28.98557
651.18         29.4742
651.61        29.88451
652.03        30.26575
652.46        30.85915
652.89        31.57263
653.32        32.05976
653.74        32.44348
654.17        32.59665
654.60        32.95147
655.03        34.18068
655.46        33.97284
655.88        34.98115
656.31        37.92126
656.74        38.95435
657.16        38.33979
657.59        36.94371
658.02        36.72151
658.45        37.62328
658.87        38.20372
659.30         38.1731
659.73        38.95227
660.15        39.07027
660.58        39.49474
661.01        39.70903
661.44        39.89395
661.86        39.98499
662.29        40.04913
662.72        40.36491
663.14        40.95094
663.57        41.09939
664.00         40.9133
664.42        41.01222
664.85        41.44067
665.27        41.83964
665.70        42.13277
666.13        42.38581
666.55        42.58412
666.98        42.70977
667.41        42.79727
667.83        42.89799
668.26        43.02205
668.69           43.16
669.11        43.31353
669.54        43.46946
669.96        43.62066
670.39        43.82718
670.82        44.05381
671.24        44.11333
671.67        44.05327
672.09        44.18286
672.52         44.4899
672.94        44.73959
673.37        44.57891
673.80        44.97061
674.22        44.92605
674.65        45.13096
675.07        45.32385
675.50         45.5282
675.92        45.72781
676.35        45.88694
676.77        46.00587
677.20        46.09273
677.62        46.17511
678.05        46.24425
678.47        46.29498
678.90        46.54041
679.32        46.57864
679.75        46.68856
680.17         46.7487
680.60        46.78746
681.02        46.81905
681.45        46.87674
681.87         46.9756
682.30        47.08641
682.72        47.21961
683.15        47.36278
683.57        47.52616
684.00         47.7157
684.42        47.89524
684.85        48.04268
685.27        48.16045
685.70        48.13272
686.12        48.03713
686.54        48.36398
686.97        49.02008
687.39        49.13247
687.82        49.02348
688.24        49.14196
688.66        49.12884
689.09        49.06083
689.51        48.86034
689.94         48.7974
690.36        48.89496
690.78        49.08285
691.21        49.30821
691.63        49.50159
692.06        49.62156
692.48        49.64677
692.90         49.6207
693.33        49.65923
693.75         49.7803
694.17        49.91817
694.60        50.05506
695.02        50.16066
695.44         50.2158
695.87        50.33684
696.29        50.50148
696.71         50.3973
697.14        50.14767
697.56        50.31717
697.98        50.82994
698.41        51.09008
698.83        51.05763
699.25        51.07247
699.68        51.13428
700.10        51.14336
700.52        51.10257
700.94        51.02058
701.37        50.91423
701.79        50.99319
702.21        50.99998
702.64        51.13208
703.06        51.28876
703.48        51.44645
703.90          51.593
704.33        51.74913
704.75        51.88163
705.17        51.98597
705.59        52.04198
706.01        52.05056
706.44        52.04988
706.86        52.09045
707.28         52.1783
707.70         52.3577
708.12        52.57278
708.55        52.62401
708.97         52.5505
709.39        52.63766
709.81        52.89363
710.23        53.09593
710.66        53.22564
711.08        53.43131
711.50        53.66755
711.92        53.81952
712.34        53.87577
712.76        53.86781
713.19        53.81759
713.61        53.79855
714.03        53.81686
714.45        53.85722
714.87        53.91013
715.29        53.95908
715.71        53.99857
716.13        54.03885
716.56        54.06286
716.98        54.10583
717.40        54.14612
717.82         54.1779
718.24        54.21063
718.66        54.24699
719.08        54.28397
719.50         54.3642
719.92        54.46381
720.34        54.43006
720.76         54.3112
721.19        54.37151
721.61        54.58351
722.03        54.65041
722.45         54.5523
722.87        54.45173
723.29        54.40798
723.71        54.39919
724.13        54.43163
724.55        54.59307
724.97        54.85257
725.39        54.70826
725.81        54.85347
726.23        54.74869
726.65        54.66444
727.07        54.68162
727.49        54.82151
727.91        55.03127
728.33        55.25732
728.75        55.42503
729.17        55.50142
729.59        55.53765
730.01        55.52042
730.43        55.37838
730.85        55.15559
731.27        54.97928
731.69        54.90926
732.10        54.94842
732.52        55.11135
732.94        55.43228
733.36        55.83622
733.78        56.15368
734.20        56.32927
734.62        56.38245
735.04        56.37002
735.46        56.42418
735.88        56.55512
736.30        56.65035
736.72        56.67363
737.13         56.6559
737.55        56.54041
737.97         56.3307
738.39        56.10466
738.81        55.84229
739.23        55.68385
739.65        56.09641
740.06        56.84259
740.48        57.15594
740.90        56.94292
741.32        56.57253
741.74        56.23348
742.16        56.06944
742.57        56.15586
742.99        56.50434
743.41        56.94686
743.83        57.02122
744.25        56.75247
744.67          56.654
745.08          56.776
745.50        56.79536
745.92        56.72803
746.34        56.76955
746.75        56.92518
747.17        57.05891
747.59        57.14967
748.01        57.34727
748.42        57.58878
748.84        57.48386
749.26        57.15539
749.68        57.20534
750.09        57.57433
750.51         57.7411
750.93        57.65124
751.35        57.52962
751.76         57.4353
752.18        57.40041
752.60        57.44007
753.01        57.51476
753.43        57.57269
753.85        57.58109
754.27        57.54329
754.68        57.50493
755.10          57.478
755.52        57.48305
755.93        57.50794
756.35        57.50545
756.77        57.57523
757.18        57.80422
757.60        58.21269
758.02        58.94566
758.43        59.62271
758.85        59.36793
759.26         58.5131
759.68        57.16376
760.10        58.05712
760.51        58.08769
760.93        57.96876
761.34        58.18426
761.76        58.60198
762.18        58.64574
762.59        58.31445
763.01        57.96578
763.42        57.73252
763.84         57.6282
764.26        57.72123
764.67        57.85162
765.09        58.00634
765.50        58.56462
765.92        59.17588
766.33        59.06092
766.75        58.43933
767.16        58.11827
767.58         58.2419
768.00        58.11137
768.41        57.83407
768.83        58.10448
769.24        58.69435
769.66        59.06977
770.07        58.60012
770.49        58.28728
770.90        58.09814
771.32        58.23283
771.73        58.60926
772.15        58.66075
772.56        58.36252
772.97        58.28484
773.39        58.10616
773.80        58.17474
774.22        58.35788
774.63        58.70635
775.05        59.05524
775.46        59.21147
775.88        59.10804
776.29        58.83657
776.70        58.50774
777.12         58.3306
777.53        58.35515
777.95        58.48413
778.36        58.69566
778.77        58.89122
779.19        59.03373
779.60        59.35941
780.02        59.70845
780.43        59.55223
780.84        59.07962
781.26         58.9132
781.67        59.15047
782.09        59.92833
782.50         60.8668
782.91        60.53647
783.33        59.35601
783.74        58.80864
784.15        59.06372
784.57        59.25391
784.98        59.30218
785.39         59.0014
785.81        59.10503
786.22        59.21875
786.63        59.54326
787.04        59.79852
787.46        59.97794
787.87        60.23959
788.28        60.55726
788.70        60.77484
789.11        60.86534
789.52        60.94633
789.93        60.98319
790.35         60.8162
790.76         60.5001
791.17        60.25566
791.58        60.15462
792.00        60.14273
792.41        60.23246
792.82        60.62889
793.23        61.19558
793.65        61.26307
794.06        60.95318
794.47         61.1807
794.88         61.7954
795.29        61.88345
795.71        61.39414
796.12        60.84742
796.53        60.43684
796.94        60.29465
797.35        60.50555
797.76        61.03682
798.18        61.66051
798.59        62.03495
799.00        62.04501
799.41        61.78909
799.82        61.40514
800.23        61.13895
800.64        61.07391
801.06        61.10499
801.47        61.22401
801.88        61.35754
802.29        61.46019
802.70        61.55099
803.11         61.6244
803.52        61.59074
803.93        61.44948
804.34        61.36401
804.75        61.36645
805.17        60.90909
805.58        61.15496
805.99        60.91639
806.40        60.66805
806.81        61.27293
807.22        62.44281
807.63        62.59619
808.04        61.79654
808.45        61.57105
808.86        62.01488
809.27        62.22536
809.68        62.12266
810.09        62.04147
810.50        61.98783
810.91        61.87575
811.32        61.77554
811.73         61.7965
812.14         61.9525
812.55        62.22544
812.96        62.52299
813.37        62.65628
813.78        62.58113
814.19        62.37611
814.60        62.12211
815.01        61.93244
815.42        61.83991
815.83        61.79417
816.24        61.82232
816.65        61.97334
817.05        62.23195
817.46        62.54813
817.87        62.80588
818.28        62.78049
818.69        62.44662
819.10        61.87606
819.51        61.25127
819.92        60.91976
820.33        60.99314
820.74        61.35659
821.14         61.8809
821.55        62.37286
821.96        62.74549
822.37        63.05656
822.78        63.24709
823.19        63.21489
823.60         62.9535
824.00        62.47926
824.41        61.94207
824.82        61.61699
825.23        61.56944
825.64        61.75874
826.04        62.05456
826.45        62.14798
826.86         61.9794
827.27        61.63821
827.68        61.29121
828.08        61.22137
828.49        61.45393
828.90        61.93161
829.31        62.50493
829.72        62.92237
830.12         63.1244
830.53        63.10444
830.94        63.02397
831.35        63.11988
831.75         63.4626
832.16        63.91338
832.57        64.31264
832.97        64.36147
833.38        64.01134
833.79        63.43279
834.20        62.80449
834.60        62.36062
835.01         62.2004
835.42        62.22398
835.82        62.47546
836.23        62.96397
836.64        63.66034
837.04        64.57626
837.45        65.39869
837.86        65.74522
838.26        65.51846
838.67        64.82351
839.08        63.95207
839.48        63.35611
839.89        63.20079
840.29        63.36599
840.70        63.69164
841.11        63.92007
841.51        63.98839
841.92        63.94601
842.33        63.89555
842.73        63.98529
843.14        64.20065
843.54        64.50085
843.95        64.77312
844.35        64.90939
844.76        64.85373
845.17        64.62813
845.57           64.33
845.98        64.08328
846.38        63.94776
846.79        63.90915
847.19        63.84986
847.60        63.53555
848.00        62.96228
848.41        62.22572
848.81        61.60976
849.22        61.52774
849.62        62.07798
850.03        63.09823
850.43        64.30006
850.84        64.99061
851.24        65.00762
851.65        64.45033
852.05         63.6593
852.46        63.16809
852.86        63.12141
853.27        63.39066
853.67        63.69345
854.07        63.81561
854.48        63.66434
854.88        63.33601
855.29        62.91331
855.69        62.71597
856.10        62.76404
856.50        63.05891
856.90        63.33942
857.31         63.2513
857.71        62.78125
858.12        62.00917
858.52        61.26775
858.92        61.06134
859.33        61.49406
859.73        62.45069
860.13        63.56651
860.54        64.25467
860.94        64.37901
861.34        64.00613
861.75        63.37296
862.15         62.9484
862.55        62.85183
862.96        62.97949
863.36        63.05488
863.76        62.66843
864.17        61.79367
864.57        60.63977
864.97        59.57629
865.38        59.10531
865.78        59.36079
866.18        60.16402
866.58        61.25819
866.99        62.09498
867.39        62.46859
867.79        62.50304
868.19        62.26411
868.60        61.85694
869.00        61.37142
869.40        60.76283
869.80        60.26758
870.21        60.29843
870.61        60.95472
871.01        62.07569
871.41        63.26428
871.81        63.87375
872.22        63.73555
872.62        63.02808
873.02        62.04036
873.42        61.27711
873.82        60.92854
874.22        60.88973
874.63        61.01261
875.03        61.07049
875.43        60.99864
875.83        60.87186
876.23        60.86229
876.63        61.22875
877.03        61.98386
877.44        62.96551
877.84        63.89374
878.24        64.23689
878.64        63.90248
879.04        63.10571
879.44        62.17506
879.84        61.59477
880.24        61.48036
880.64        61.65505
881.04        62.03689
881.44        62.48248
881.84        62.90124
882.24        63.36151
882.65        63.63929
883.05        63.47066
883.45        62.80013
883.85        61.76962
884.25        60.77547
884.65        60.42064
885.05        60.81173
885.45        61.72991
885.85        62.90138
886.25        63.83714
886.65        64.32542
887.05        64.50715
887.45        64.30608
887.85        63.62859
888.25        62.58948
888.65        61.28882
889.04        60.09547
889.44        59.54744
889.84        59.68003
890.24        60.39379
890.64        61.39905
891.04        62.05072
891.44        62.11816
891.84        61.80436
892.24        61.39215
892.64        61.28476
893.04        61.57225
893.44        62.09617
893.83        62.77276
894.23        63.39778
894.63        63.88687
895.03        64.28578
895.43        64.55352
895.83        64.62538
896.23        64.49979
896.63        64.16895
897.02        63.70728
897.42        63.31977
897.82        63.04693
898.22        62.89722
898.62        62.77227
899.01        62.50085
899.41        62.04861
899.81        61.48211
900.21        61.00378
900.61        60.91268
901.00        61.25084
901.40        61.93144
901.80        62.64014
902.20        62.87014
902.59        62.50888
902.99        61.69458
903.39         60.8148
903.79        60.45734
904.18        60.73616
904.58        61.48956
904.98        62.32516
905.38        62.63292
905.77        62.26283
906.17        61.42374
906.57        60.49824
906.96        60.11477
907.36        60.39709
907.76        61.16971
908.15        62.07297
908.55        62.39306
908.95        62.01081
909.34        61.14887
909.74        60.27165
910.14        59.94999
910.53        60.35879
910.93        61.26295
911.33        62.41751
911.72        63.45628
912.12        64.14843
912.52        64.59187
912.91        64.86699
913.31        65.10177
913.70        65.33277
914.10        65.47469
914.49        65.39353
914.89         64.8831
915.29        63.98287
915.68        62.83216
916.08        61.77827
916.47         61.2213
916.87        61.29742
917.26        61.83275
917.66        62.63082
918.05         63.3662
918.45        63.85633
918.84        64.22727
919.24        64.36459
919.64         64.2272
920.03        63.85139
920.42         63.2192
920.82          62.582
921.21         62.2513
921.61        62.30372
922.00        62.68395
922.40        63.18002
922.79        63.48451
923.19        63.47087
923.58        63.24915
923.98        62.94549
924.37        62.77746
924.77        62.78957
925.16        62.90493
925.55        63.03239
925.95        63.03437
926.34         62.8975
926.74        62.68051
927.13        62.43183
927.52         62.1876
927.92        61.97988
928.31        61.75989
928.70        61.59777
929.10        61.59617
929.49        61.75425
929.89        62.03233
930.28        62.27171
930.67        62.14099
931.07        61.58813
931.46        60.75275
931.85        59.89786
932.24        59.41475
932.64        59.41018
933.03        59.79565
933.42        60.39568
933.82        60.88013
934.21        61.13916
934.60        61.19922
934.99        61.23905
935.39        61.54493
935.78        62.21061
936.17        63.10615
936.56        63.82298
936.96        63.72654
937.35        62.75751
937.74        61.22393
938.13        59.74166
938.53        59.09092
938.92        59.38182
939.31        60.41474
939.70        61.78812
940.09        62.70839
940.49        62.84961
940.88        62.43076
941.27        61.75194
941.66        61.27457
942.05        61.13408
942.44        61.22813
942.84         61.3098
943.23        61.03555
943.62        60.32018
944.01        59.30703
944.40        58.48008
944.79        58.51581
945.18        59.50052
945.57        61.23759
945.97        62.97833
946.36        63.64519
946.75        62.85703
947.14        60.96668
947.53         58.8391
947.92        57.78687
948.31        58.13868
948.70        59.57281
949.09        61.36894
949.48        62.21005
949.87        61.70827
950.26         60.2891
950.65        58.75746
951.04        58.23092
951.43        58.94017
951.82        60.56248
952.21        62.37415
952.60        63.06676
952.99        62.28218
953.38        60.48463
953.77        58.57933
954.16         57.7583
954.55        58.24989
954.94        59.76503
955.33        61.59333
955.72        62.21593
956.11        61.14779
956.50        58.99853
956.89        56.75769
957.28        55.67043
957.66        56.02703
958.05         57.3689
958.44         59.2344
958.83        60.64492
959.22        61.15273
959.61         61.0615
960.00        60.63123
960.39         60.1999
960.78        59.85866
961.16        59.43402
961.55        58.93258
961.94        58.51521
962.33          58.256
962.72        58.25506
963.11        58.29473
963.49        57.99039
963.88        57.29744
964.27        56.31393
964.66        55.48051
965.04        55.61488
965.43        56.83043
965.82        58.88197
966.21        61.11816
966.60        62.35372
966.98        62.26697
967.37        61.27994
967.76        59.93872
968.15        58.98256
968.53        58.59069
968.92        58.46785
969.31        58.66467
969.69        59.29329
970.08        60.26133
970.47        61.70536
970.86          63.008
971.24        63.07798
971.63        61.73765
972.02        59.35841
972.40        57.06549
972.79        56.63188
973.17        58.33936
973.56        61.52277
973.95        65.13069
974.33         67.1507
974.72        66.86311
975.11        64.94703
975.49        62.31497
975.88        60.68936
976.26        60.51872
976.65        61.23075
977.04        62.42216
977.42        63.36715
977.81        63.62689
978.19        63.59704
978.58        63.30363
978.96        62.61758
979.35        61.67455
979.74        60.48101
980.12         59.4809
980.51        59.45881
980.89        60.61656
981.28        62.56217
981.66        64.94492
982.05        66.87188
982.43        68.10275
982.82         68.8177
983.20        68.79888
983.59        67.67058
983.97        65.59621
984.35        62.75791
984.74        60.28555
985.12        59.75853
985.51        61.31263
985.89        64.60431
986.28        68.21801
986.66        70.08954
987.04        69.44806
987.43        66.89625
987.81        63.47492
988.20        61.38739
988.58        61.24312
988.96        62.50109
989.35        64.01616
989.73        64.13176
990.12        62.39395
990.50        59.53564
990.88        56.50596
991.27        54.78177
991.65        54.71406
992.03         55.8005
992.42        57.54207
992.80        59.51858
993.18        61.38509
993.56         63.3336
993.95        64.97398
994.33        65.67209
994.71        65.24601
995.10        63.93802
995.48        62.43323
995.86        61.87899
996.24        62.53321
996.63        63.96587
997.01        65.95563
997.39        67.81713
997.77         69.1316
998.15        70.08178
998.54          70.295
998.92        69.19739
999.30        66.80154
999.68        63.30553
1000.06        59.64493
1000.45        57.63519
1000.83        57.94118
1001.21        60.09787
1001.59        63.40162
1001.97        66.56461
1002.35        68.98567
1002.73        70.90352
1003.12         71.9956
1003.50        71.73994
1003.88        70.24306
1004.26        67.67629
1004.64        64.84637
1005.02        63.25333
1005.40        63.29847
1005.78        64.51434
1006.16        66.35921
1006.54         68.0387
1006.92        69.30112
1007.30         70.4212
1007.69        71.13445
1008.07        70.97043
1008.45        69.80523
1008.83        67.71034
1009.21          65.417
1009.59        64.24329
1009.97        64.51653
1010.35        65.85677
1010.73        67.71952
1011.11         69.1125
1011.49        69.67922
1011.86        69.82697
1012.24        69.33555
1012.62        68.07452
1013.00        66.10114
1013.38        63.29987
1013.76        60.43764
1014.14        59.21465
1014.52        60.19723
1014.90        63.02769
1015.28        66.30533
1015.66        67.75986
1016.04        66.83429
1016.41        64.18736
1016.79        60.86406
1017.17        59.06285
1017.55        59.48526
1017.93        61.18639
1018.31        63.34211
1018.69        65.46627
1019.06         67.6953
1019.44        70.25977
1019.82        73.50116
1020.20        76.89979
1020.58        79.25786
1020.95        80.07813
1021.33        79.16138
1021.71        76.35584
1022.09        71.58047
1022.46        64.25165
1022.84        55.58348
1023.22         49.9129
1023.60        50.04924
1023.97        54.50987
1024.35        60.30909
1024.73        64.61395
