SpectraSmart Spectrum 2.9.0.0
--------- Device Information -----------
Spectrum Name :  反射率_0
Saving Time :  2024/04/30 00:48:26
Spectro-Module Model Name : SE2030-DUVN
Spectro-Module Serial Number : OS361AC55029948
Wavelength Start : 200
Wavelength End : 1025
Wavelength Unit : Wavelength(nm)
Spectrum Unit : Reflectance(%)
-----------Spectrum Setting ------------
Integration Time : 20ms
Average : 10
Boxcar : 0
Background removal :  enabled
linearity correction :  enabled
SC :  disabled
Intensity correction :  disabled
DWT denoise :  enabled
savitzky-golay :  disabled
FFT :  disabled
Running average :  disabled
Kalman :  disabled
High pass :  disabled
---------------BEGIN--------------------
Wavelength(nm)             Reflectance(%)
200.29               0
200.75        50.16719
201.21        43.54863
201.67        38.01696
202.13        34.59902
202.58         33.9407
203.04        36.50836
203.50        42.31028
203.96        51.13473
204.42        61.51802
204.88        71.37246
205.34        77.78334
205.80        77.85191
206.26        73.11098
206.72        67.03342
207.18        60.78442
207.64         54.2469
208.10          47.227
208.55        39.15665
209.01        32.45124
209.47        33.28498
209.93        41.67257
210.39        53.61694
210.85         63.9496
211.31        68.96292
211.77        68.78452
212.23        63.55472
212.69         54.4095
213.14        49.37421
213.60        52.47207
214.06        60.02155
214.52         66.4073
214.98        67.64919
215.44        64.42906
215.90        58.51268
216.36        52.53985
216.81        51.55872
217.27        58.41693
217.73        73.50732
218.19         96.1638
218.65        115.8439
219.11        122.7035
219.57        118.5426
220.02        110.9946
220.48         107.345
220.94         107.379
221.40        109.3073
221.86        110.4718
222.32        105.2139
222.77        94.38632
223.23        84.54131
223.69        77.70236
224.15        73.53098
224.61        71.07442
225.06        69.75145
225.52        69.99969
225.98        72.33759
226.44        75.92104
226.90        79.48832
227.36         82.5438
227.81        85.21116
228.27         87.8897
228.73        90.54169
229.19        92.49942
229.65        92.31236
230.10        90.01955
230.56        87.12356
231.02        84.47952
231.48        82.75069
231.93        81.77769
232.39        81.32687
232.85        81.45325
233.31           82.41
233.77         84.1237
234.22        86.65968
234.68        88.99777
235.14        89.42497
235.60         87.5972
236.05        83.99413
236.51        80.22628
236.97        78.29514
237.43        78.61594
237.88        81.20057
238.34        84.88687
238.80        86.91027
239.26        85.55495
239.71        81.79724
240.17        77.34889
240.63        74.56113
241.08        74.03477
241.54         75.2269
242.00        78.69265
242.46        83.80284
242.91        88.49053
243.37         91.2524
243.83        91.45019
244.28        89.27077
244.74        84.73724
245.20        77.12659
245.66         67.6397
246.11        60.35614
246.57        57.92858
247.03        59.81273
247.48        65.07181
247.94        69.56848
248.40        71.35842
248.85        71.50617
249.31         71.3565
249.77         71.1048
250.22        70.92243
250.68        70.38535
251.14        69.78012
251.59        70.52312
252.05        72.61755
252.51        74.72485
252.96        75.86583
253.42        76.59143
253.88        76.96127
254.33        77.08659
254.79        77.41539
255.25        77.84297
255.70        78.09007
256.16        78.56721
256.62        79.13181
257.07        79.76386
257.53        80.88497
257.99         82.1478
258.44        83.00811
258.90        83.43331
259.35        82.97755
259.81        82.42928
260.27        81.81166
260.72        81.19012
261.18        80.86642
261.63        80.39392
262.09        79.98248
262.55        79.42149
263.00        78.62821
263.46        77.97116
263.91        77.18408
264.37        76.42535
264.83        75.58504
265.28         74.5895
265.74        73.75993
266.19        73.25943
266.65        73.19247
267.11         73.3932
267.56        73.53803
268.02        73.22855
268.47        72.34109
268.93        71.01235
269.38        69.49013
269.84        68.32853
270.30        67.66569
270.75        67.32584
271.21        67.04529
271.66        66.35062
272.12        65.17287
272.57        63.62956
273.03        61.99532
273.48        60.58169
273.94        59.57649
274.39        58.81117
274.85        58.20649
275.31        57.50671
275.76        56.62714
276.22         55.7078
276.67        54.79851
277.13        54.13547
277.58        53.65239
278.04        53.32191
278.49        52.92157
278.95        52.30945
279.40        51.39583
279.86         50.3619
280.31        49.27324
280.77         48.3985
281.22         47.7375
281.68        47.27501
282.13        46.92142
282.59        46.66036
283.04        46.40414
283.50        46.16325
283.95        45.85678
284.41        45.41881
284.86        44.81561
285.32        44.13797
285.77        43.36973
286.22        42.59548
286.68        41.86716
287.13        41.13836
287.59        40.51588
288.04        40.07637
288.50        39.85265
288.95         39.7676
289.41         39.7332
289.86        39.54548
290.32        39.19227
290.77        38.71199
291.22        38.18946
291.68        37.76316
292.13        37.46463
292.59        37.28779
293.04        37.22121
293.50        37.29283
293.95         37.4804
294.40        37.79194
294.86        38.15862
295.31        38.48645
295.77        38.74509
296.22         38.9326
296.68          39.113
297.13        39.36548
297.58        39.71069
298.04        40.09372
298.49        40.43885
298.95        40.63391
299.40        40.65528
299.85        40.55885
300.31        40.42558
300.76         40.3115
301.21        40.27105
301.67        40.29145
302.12        40.33977
302.58        40.50779
303.03        40.77106
303.48         41.0014
303.94        41.12431
304.39        41.62771
304.84        41.46741
305.30        41.49607
305.75        41.44534
306.20        41.45564
306.66         41.5539
307.11        41.69202
307.57        41.83124
308.02        41.82609
308.47        41.67445
308.93        41.42675
309.38        41.14835
309.83        40.99629
310.29        41.00286
310.74        41.11418
311.19         41.2295
311.65        41.18533
312.10        40.94555
312.55         40.5722
313.00        40.18632
313.46        39.97387
313.91        39.96207
314.36        40.08954
314.82        40.24583
315.27        40.27713
315.72        40.12659
316.18        39.85249
316.63        39.50631
317.08        39.17938
317.53        38.91445
317.99        38.70028
318.44        38.52135
318.89        38.36115
319.35        38.21173
319.80        38.07409
320.25        37.98674
320.70        38.00704
321.16        38.11894
321.61        38.31331
322.06        38.46525
322.51        38.38427
322.97        38.03476
323.42        37.48523
323.87         36.8897
324.32        36.49799
324.78        36.36455
325.23         36.4425
325.68         36.6057
326.13        36.63787
326.59        36.46697
327.04        36.17185
327.49        35.84268
327.94        35.64142
328.39          35.604
328.85        35.65097
329.30        35.72012
329.75        35.65125
330.20        35.40653
330.66        35.05238
331.11        34.66298
331.56        34.31979
332.01        34.06295
332.46         33.8627
332.92        33.74045
333.37        33.77749
333.82         33.9545
334.27        34.24223
334.72        34.52764
335.17         34.6194
335.63        34.46314
336.08        34.12707
336.53        33.68222
336.98        33.28312
337.43        32.99712
337.88        32.78654
338.34        32.67251
338.79        32.70054
339.24        32.85441
339.69        33.13939
340.14        33.44183
340.59        33.56484
341.05        33.46536
341.50         33.1796
341.95        32.85765
342.40        32.75509
342.85        32.91965
343.30        33.26643
343.75        33.61975
344.20        33.69844
344.66        33.45211
345.11         32.9793
345.56        32.44316
346.01        32.09669
346.46        32.01627
346.91        32.11833
347.36        32.31914
347.81        32.49754
348.26        32.60333
348.72         32.6622
349.17         32.6797
349.62        32.65436
350.07        32.59092
350.52        32.48994
350.97        32.34483
351.42        32.15118
351.87        31.92589
352.32         31.6882
352.77        31.50431
353.22        31.47441
353.67        31.60917
354.13        31.86232
354.58        32.14953
355.03        32.33521
355.48        32.37186
355.93        32.29184
356.38         32.1172
356.83        31.88834
357.28        31.63107
357.73        31.33923
358.18        31.04706
358.63        30.81016
359.08        30.63978
359.53        30.52758
359.98        30.44271
360.43        30.32706
360.88        30.16592
361.33        29.97877
361.78        29.77911
362.23        29.58955
362.68         29.4202
363.13         29.2618
363.58        29.12296
364.03        29.01909
364.48         28.9472
364.93        28.89953
365.38        28.85358
365.83        28.77257
366.28        28.64858
366.73        28.49392
367.18        28.32097
367.63        28.15127
368.08         27.9916
368.53        27.83256
368.98        27.68454
369.43        27.56215
369.88        27.46881
370.33        27.41088
370.78        27.35337
371.23        27.23911
371.68        27.05599
372.13        26.80727
372.58        26.56322
373.03        26.43887
373.48        26.44884
373.93        26.55887
374.38        26.64834
374.83        26.51948
375.28        26.14701
375.72        25.60765
376.17         25.0759
376.62        24.75499
377.07        24.68484
377.52        24.78635
377.97        24.97491
378.42        25.10955
378.87        25.13603
379.32         25.1003
379.77        25.00259
380.22        24.84175
380.67        24.62899
381.11         24.3528
381.56        24.07425
382.01         23.9024
382.46        23.86169
382.91         23.9318
383.36        24.02498
383.81        23.99846
384.26        23.82663
384.71         23.5535
385.15        23.26602
385.60        23.13142
386.05        23.16614
386.50         23.3057
386.95        23.45874
387.40        23.48586
387.85        23.35803
388.29        23.12024
388.74        22.85762
389.19        22.61119
389.64        22.40139
390.09        22.20438
390.54        22.05149
390.98        21.99487
391.43        22.04442
391.88           22.18
392.33        22.31824
392.78        22.36096
393.23        22.29667
393.67        22.10383
394.12        21.87848
394.57        21.90721
395.02          21.891
395.47        22.04393
395.91        22.20149
396.36        22.23593
396.81        22.12403
397.26        21.91809
397.71        21.68777
398.15        21.52323
398.60        21.47542
399.05        21.46437
399.50        21.45971
399.95        21.51398
400.39        21.50303
400.84        21.43446
401.29        21.29661
401.74        21.19955
402.18        21.16088
402.63        21.10963
403.08        21.06465
403.53        21.07242
403.97        21.13048
404.42        21.22722
404.87        21.30701
405.32        21.27967
405.76        21.12632
406.21        20.88378
406.66        20.62983
407.11        20.48908
407.55        20.49687
408.00        20.61909
408.45        20.77739
408.90        20.82581
409.34        20.72585
409.79        20.52167
410.24         20.3215
410.68        20.28811
411.13        20.45178
411.58        20.75617
412.03        21.07775
412.47        21.20844
412.92        21.08396
413.37        20.79008
413.81        20.44289
414.26        20.24229
414.71        20.21914
415.15        20.31549
415.60        20.45766
416.05        20.54489
416.49        20.54038
416.94        20.48455
417.39        20.38788
417.83        20.25843
418.28        20.11491
418.73        19.94739
419.17        19.80003
419.62        19.74871
420.07        19.80188
420.51        19.93579
420.96        20.08942
421.41        20.15222
421.85        20.09536
422.30        19.97327
422.74        19.82754
423.19        19.75356
423.64        19.76296
424.08        19.83375
424.53        19.92675
424.98         20.0076
425.42        20.06244
425.87        20.09002
426.31        20.08394
426.76        20.06343
427.21        19.96715
427.65        19.82903
428.10         19.6761
428.54        19.52654
428.99        19.41018
429.44        19.45414
429.88        19.57673
430.33        19.39641
430.77        19.03984
431.22         19.1487
431.66         19.6741
432.11        19.94064
432.56        19.85416
433.00        19.81898
433.45          19.825
433.89        19.50292
434.34        19.04407
434.78        19.04534
435.23        19.41767
435.67         19.5266
436.12        19.34135
436.57        19.21906
437.01        19.21078
437.46        19.23953
437.90         19.3117
438.35        19.44066
438.79        19.57963
439.24        19.62286
439.68        19.57682
440.13        19.54485
440.57         19.5202
441.02        19.47389
441.46        19.41323
441.91         19.2839
442.35        19.12962
442.80        19.27169
443.24        19.59732
443.69        19.53989
444.13        19.14743
444.58        18.98247
445.02        19.04503
445.47        19.04322
445.91        18.95802
446.36        18.91035
446.80        18.89533
447.24        18.89019
447.69        18.89725
448.13        18.91803
448.58        18.95208
449.02        18.99254
449.47        19.04196
449.91        19.09287
450.36        19.14378
450.80        19.19353
451.25        19.22608
451.69        19.21297
452.13        19.15135
452.58        19.05825
453.02        18.96363
453.47        18.91338
453.91        18.91225
454.36        19.00071
454.80        19.05235
455.24        19.08278
455.69        19.05642
456.13        18.98983
456.58        18.91791
457.02        18.87683
457.46        18.88099
457.91         18.9131
458.35        18.95509
458.79        18.99129
459.24        19.02562
459.68        19.07392
460.13        19.13398
460.57         19.1147
461.01        19.16216
461.46        19.09167
461.90        18.99815
462.34        19.14237
462.79        19.44438
463.23        19.47377
463.68        19.25261
464.12        19.17328
464.56        19.24762
465.01        19.28126
465.45        19.23985
465.89         19.1577
466.34        19.06873
466.78        19.05128
467.22        19.14996
467.67         19.1345
468.11        19.01903
468.55        18.89585
468.99        18.79911
469.44        18.72992
469.88        18.69698
470.32        18.70849
470.77        18.74166
471.21        18.77343
471.65        18.78991
472.10        18.80338
472.54        18.82577
472.98        18.89477
473.42        19.01114
473.87         19.1545
474.31        19.28792
474.75        19.36244
475.20         19.3728
475.64        19.33108
476.08        19.26408
476.52         19.2092
476.97        19.18104
477.41        19.16748
477.85        19.17638
478.29        19.21677
478.74        19.29244
479.18        19.38898
479.62        19.47812
480.06        19.56186
480.50        19.64333
480.95        19.54458
481.39        19.59273
481.83        19.63997
482.27        19.79861
482.72        19.88758
483.16        20.13479
483.60        20.24237
484.04        20.25798
484.48        20.20926
484.93        20.20215
485.37        20.23842
485.81        20.19956
486.25        20.60658
486.69        20.19792
487.14        20.04208
487.58        20.52052
488.02        20.78465
488.46        21.06829
488.90        21.43177
489.34        20.79784
489.79        20.72696
490.23        20.77131
490.67        21.04862
491.11        21.39122
491.55        21.43955
491.99        21.24473
492.43        21.27468
492.88        21.54302
493.32        21.71952
493.76        21.79409
494.20        21.94638
494.64        22.18445
495.08        22.44658
495.52        22.67591
495.96        22.84278
496.41         22.9423
496.85         22.8576
497.29        22.67403
497.73        22.92513
498.17         23.2663
498.61        23.32563
499.05        23.05861
499.49        23.00046
499.93        23.19186
500.37        23.41722
500.82        23.62612
501.26         23.7905
501.70         23.8905
502.14        23.96759
502.58        24.04467
503.02        24.13068
503.46        24.23499
503.90         24.3572
504.34        24.48863
504.78        24.61152
505.22         24.7184
505.66        24.81051
506.10        24.87957
506.54        24.94052
506.98        25.00075
507.42        25.00821
507.86        24.95316
508.30         25.1043
508.74        25.00792
509.18        25.03204
509.62        25.05649
510.06        25.11743
510.50        25.21418
510.94        25.34577
511.38         25.4803
511.82        25.55123
512.26        25.54586
512.70        25.48091
513.14        25.40509
513.58        25.39556
514.02        25.46878
514.46        25.60184
514.90        25.74477
515.34        25.81556
515.78        25.79331
516.22        25.70391
516.66        25.59536
517.10          25.542
517.54        25.56169
517.98        25.63008
518.42        25.70691
518.86         25.7281
519.30        25.67892
519.74        25.58444
520.18        25.48032
520.62        25.41822
521.06        25.41352
521.50        25.45148
521.93         25.5118
522.37        25.55404
522.81         25.5679
523.25         25.5608
523.69        25.54937
524.13         25.5597
524.57        25.59336
525.01        25.63618
525.45        25.66063
525.89        25.62518
526.32        25.52051
526.76        25.37298
527.20        25.21103
527.64        25.07825
528.08        24.98823
528.52        24.93017
528.96        24.89645
529.40        24.87304
529.83        24.85222
530.27        24.84255
530.71        24.83503
531.15        24.81814
531.59        24.78765
532.03        24.73929
532.46        24.68277
532.90        24.64479
533.34        24.62785
533.78        24.62996
534.22        24.62614
534.66        24.57661
535.09        24.47644
535.53        24.34723
535.97        24.22995
536.41        24.19662
536.85        24.25886
537.28        24.38886
537.72         24.5351
538.16        24.61709
538.60        24.61411
539.04         24.5563
539.47        24.46744
539.91        24.40738
540.35        24.38885
540.79        24.40209
541.22        24.44953
541.66        24.54013
542.10        24.66759
542.54        24.83025
542.97        25.01064
543.41        25.18248
543.85        25.33568
544.29        25.47877
544.72        25.60064
545.16        25.70486
545.60        25.79332
546.04        25.85524
546.47        25.92074
546.91        26.07838
547.35        26.31699
547.79        26.53497
548.22        26.69618
548.66        26.88771
549.10        27.10986
549.53        27.22713
549.97        27.21399
550.41        27.59194
550.84        27.54012
551.28        27.67367
551.72        27.74241
552.15        27.98294
552.59         28.0458
553.03        28.21348
553.46        28.37054
553.90        28.49518
554.34        28.58251
554.77        28.65331
555.21        28.72159
555.65        28.78881
556.08         28.8971
556.52        28.95791
556.96        29.30065
557.39        29.48871
557.83         29.6073
558.27        29.64342
558.70        29.65528
559.14        29.76615
559.57        29.96034
560.01        30.18009
560.45        30.36278
560.88         30.3302
561.32        30.26706
561.75        30.20946
562.19         30.2401
562.63        30.27571
563.06        30.32229
563.50        30.45397
563.93        30.62682
564.37        30.75868
564.80        30.82614
565.24        30.86568
565.68        30.89164
566.11        30.94626
566.55        31.04088
566.98        31.11368
567.42        31.21033
567.85          31.343
568.29        31.50762
568.72        31.79288
569.16        32.22569
569.60        32.08832
570.03        32.35481
570.47        32.52745
570.90        32.69481
571.34        32.48469
571.77        32.85422
572.21         32.9034
572.64         32.9341
573.08        33.18473
573.51         33.6354
573.95        33.51788
574.38        33.66999
574.82        33.39183
575.25        33.71865
575.69        33.62204
576.12        33.37582
576.56        33.81323
576.99        33.55133
577.42        34.05212
577.86        33.86413
578.29        33.63971
578.73        34.04957
579.16         33.6535
579.60        33.72454
580.03          33.363
580.47         33.4726
580.90        33.42566
581.33        33.37526
581.77        33.44022
582.20        33.13829
582.64        33.32203
583.07        32.79214
583.51        32.65736
583.94        32.71537
584.37         32.5876
584.81         32.3426
585.24        32.39246
585.68        32.47063
586.11        32.60373
586.54        32.10218
586.98        31.87576
587.41        32.43289
587.85        32.16161
588.28        32.03735
588.71        32.30746
589.15        31.93045
589.58        31.92086
590.01        31.76447
590.45        31.69621
590.88        31.70977
591.31        31.82041
591.75        31.94419
592.18        32.09839
592.61        32.31213
593.05        31.96618
593.48        32.04243
593.91         32.4817
594.35        32.18033
594.78        32.21825
595.21         32.1983
595.65        32.35862
596.08        32.38968
596.51        32.60439
596.94        32.99731
597.38          33.255
597.81        33.34049
598.24        33.64357
598.68        33.92957
599.11        33.96695
599.54        34.46017
599.97        34.93866
600.41        34.78511
600.84        35.07651
601.27         35.4638
601.70         36.0015
602.14         36.5387
602.57        36.67871
603.00        36.52329
603.43        36.85997
603.87          37.555
604.30        38.04171
604.73        38.28761
605.16        38.60312
605.60        39.00514
606.03        39.48207
606.46        39.94963
606.89        40.38128
607.32        40.78097
607.76         41.1632
608.19        41.53384
608.62        41.83054
609.05        42.10457
609.48        42.48551
609.92        42.91722
610.35        43.14703
610.78        43.44144
611.21        43.28604
611.64        43.77595
612.07        44.04788
612.50        44.38177
612.94        44.62423
613.37         45.2999
613.80        45.25278
614.23        45.90966
614.66        46.17082
615.09        46.42438
615.52        46.57829
615.96        46.82956
616.39        46.94048
616.82        46.96596
617.25        47.27222
617.68        47.27911
618.11        47.63612
618.54        48.07538
618.97        48.29476
619.40        48.34667
619.84        48.48278
620.27        48.71764
620.70        49.20582
621.13        49.58488
621.56        49.28344
621.99        49.21009
622.42        49.13704
622.85        49.52401
623.28        49.72823
623.71        49.94326
624.14        49.23157
624.57        49.74484
625.00        49.68454
625.43        49.69212
625.86        49.45906
626.29        49.46441
626.72        49.43502
627.15        49.29548
627.58        49.22042
628.01        49.09568
628.44        48.94959
628.87        48.59167
629.30        48.35631
629.73        48.12801
630.16         48.3126
630.59        47.73438
631.02        47.58788
631.45        47.31897
631.88         47.0593
632.31        46.73494
632.74        46.38194
633.17          46.008
633.60         45.6004
634.03        45.16723
634.46        44.70524
634.89        44.23743
635.32         43.8067
635.75        43.42236
636.18        43.07351
636.61        42.73751
637.04        42.38202
637.47        42.00779
637.89        41.59896
638.32        41.15816
638.75        40.81603
639.18        40.60331
639.61        40.08966
640.04        39.99174
640.47         39.7103
640.90        39.45556
641.33        39.22551
641.76         39.0177
642.18        38.81738
642.61        38.60967
643.04         38.4079
643.47        38.25546
643.90        38.20828
644.33        38.26814
644.76        38.46474
645.18        38.71166
645.61        38.75912
646.04        38.54997
646.47        38.57115
646.90        38.79786
647.33        38.92992
647.75        38.96036
648.18        39.08661
648.61        39.32973
649.04        39.61336
649.47        39.94052
649.89        40.38788
650.32        40.88215
650.75        41.25305
651.18         41.5201
651.61        41.82084
652.03        42.22802
652.46         42.7986
652.89        43.38742
653.32        43.79734
653.74         44.2108
654.17        44.06894
654.60        44.36006
655.03        46.04987
655.46        45.38152
655.88        46.23479
656.31        48.69482
656.74        49.69549
657.16        48.86032
657.59        46.93097
658.02        47.50951
658.45        48.67384
658.87        49.06921
659.30        49.07801
659.73        50.07632
660.15        50.16939
660.58        50.60046
661.01        50.83825
661.44        51.13243
661.86        51.16673
662.29        51.05703
662.72        51.40628
663.14        52.12378
663.57        52.34542
664.00        52.12417
664.42         52.2071
664.85         52.6404
665.27        52.99426
665.70        53.21471
666.13        53.44125
666.55        53.66889
666.98        53.85366
667.41        54.00872
667.83        54.14764
668.26         54.2727
668.69        54.39618
669.11        54.52194
669.54        54.65901
669.96        54.81007
670.39        54.96692
670.82        55.13286
671.24        55.31963
671.67         55.5117
672.09        55.70372
672.52        55.88574
672.94         56.0934
673.37        55.89366
673.80         56.2888
674.22        56.07787
674.65        56.28715
675.07        56.60565
675.50        57.01532
675.92        57.42593
676.35        57.68498
676.77         57.7728
677.20        57.71709
677.62        57.61263
678.05         57.6123
678.47        57.75092
678.90        57.98594
679.32        58.24013
679.75        58.39982
680.17        58.43296
680.60        58.39405
681.02        58.33749
681.45        58.34986
681.87        58.46113
682.30        58.62471
682.72        58.82821
683.15        59.04083
683.57        59.28019
684.00        59.52016
684.42        59.69346
684.85        60.08605
685.27        60.07978
685.70        60.06361
686.12        59.97102
686.54        60.34693
686.97        61.05227
687.39        61.35704
687.82        61.20559
688.24        61.20261
688.66        61.35892
689.09        61.26012
689.51        60.98133
689.94        60.93292
690.36        61.10615
690.78        61.21053
691.21         61.2399
691.63        61.37116
692.06        61.59604
692.48        61.81808
692.90        62.01469
693.33        62.19383
693.75        62.34281
694.17        62.43912
694.60        62.51786
695.02        62.60216
695.44        62.68751
695.87        62.93679
696.29        63.26947
696.71        63.11406
697.14        62.65529
697.56         62.8446
697.98        63.58493
698.41        63.94699
698.83        63.87886
699.25        63.90577
699.68        64.05229
700.10        64.16321
700.52        64.23039
700.94         64.3077
701.37         64.3605
701.79        64.35261
702.21        64.27827
702.64        64.16284
703.06        64.07265
703.48        64.12184
703.90        64.33551
704.33        64.69323
704.75        65.08685
705.17        65.39805
705.59        65.55739
706.01        65.60108
706.44        65.61192
706.86         65.6603
707.28        65.75925
707.70        66.02776
708.12        66.42545
708.55        66.26381
708.97        66.37871
709.39        66.44185
709.81        66.70273
710.23        66.91213
710.66        67.05705
711.08        67.28557
711.50        67.54052
711.92        67.71513
712.34        67.79604
712.76        67.81516
713.19        67.78829
713.61        67.78728
714.03        67.81569
714.45        67.86456
714.87        67.93224
715.29        68.01591
715.71        68.11155
716.13         68.2184
716.56        68.31839
716.98        68.46352
717.40        68.62184
717.82        68.78345
718.24         68.9194
718.66        68.98874
719.08        68.98722
719.50        68.92932
719.92        68.85665
720.34        68.83601
720.76        68.88541
721.19        68.98012
721.61        69.10132
722.03        69.18951
722.45        69.22517
722.87        69.21972
723.29        69.19406
723.71        69.18169
724.13        69.19373
724.55        69.22574
724.97        69.25543
725.39         69.2451
725.81        69.19775
726.23        69.13828
726.65        69.11388
727.07        69.19868
727.49        69.40096
727.91         69.6778
728.33        69.99002
728.75        70.27155
729.17        70.48824
729.59        70.66165
730.01        70.74759
730.43        70.67863
730.85        70.47047
731.27        70.16013
731.69        69.88405
732.10        69.85652
732.52        70.11816
732.94        70.61174
733.36        71.20367
733.78        71.63709
734.20        71.82014
734.62        71.83224
735.04        71.76643
735.46        71.73061
735.88        71.79492
736.30        72.00848
736.72        72.27084
737.13        72.37918
737.55         72.2206
737.97        71.82916
738.39        71.37318
738.81        71.05365
739.23        71.01263
739.65        71.51409
740.06        72.28619
740.48        72.63509
740.90        72.47274
741.32        72.19096
741.74        71.94677
742.16        71.80513
742.57        71.84243
742.99          72.076
743.41        72.41357
743.83        72.58526
744.25        72.58935
744.67        72.68597
745.08        72.89156
745.50        73.02318
745.92        73.08686
746.34        73.16563
746.75        73.26365
747.17        73.34988
747.59        73.42799
748.01        73.51498
748.42        73.58324
748.84        73.59873
749.26        73.57681
749.68        73.40657
750.09        73.15922
750.51          73.273
750.93        73.61745
751.35        73.50929
751.76        73.03609
752.18        72.90492
752.60        73.15601
753.01        73.40098
753.43        73.55486
753.85        73.69044
754.27        73.79613
754.68        73.88108
755.10        73.95429
755.52        74.03458
755.93        74.10521
756.35        74.12212
756.77        74.16325
757.18        74.32481
757.60        74.62601
758.02         75.2152
758.43        75.71243
758.85        75.67616
759.26        74.20646
759.68          73.708
760.10        74.47478
760.51         75.1348
760.93        74.95349
761.34        75.05619
761.76        75.17272
762.18        75.04199
762.59        74.72614
763.01        74.36674
763.42        74.09332
763.84        73.98664
764.26        74.10271
764.67        74.25744
765.09        74.47545
765.50        75.07873
765.92        75.87453
766.33        76.02834
766.75        75.47533
767.16        75.26287
767.58         75.4454
768.00        75.13506
768.41        74.52614
768.83        74.93565
769.24        76.00365
769.66         75.9973
770.07        75.03796
770.49        74.47598
770.90         74.5094
771.32        75.12865
771.73        75.73003
772.15        76.03197
772.56        75.83449
772.97        75.80983
773.39        75.55442
773.80        75.60989
774.22        75.82823
774.63        76.24451
775.05        76.65691
775.46        76.83072
775.88        76.68513
776.29        76.35144
776.70        75.95506
777.12         75.7228
777.53        75.71794
777.95        75.83064
778.36        76.06174
778.77        76.33784
779.19        76.61251
779.60        77.13716
780.02        77.68444
780.43        77.55978
780.84         76.9417
781.26        76.65456
781.67        76.84863
782.09        77.48195
782.50        78.28139
782.91        78.24354
783.33        77.61152
783.74        77.27283
784.15        77.33765
784.57        77.12266
784.98        76.69886
785.39        76.53417
785.81        76.67535
786.22         77.0312
786.63         77.4526
787.04        77.90188
787.46        78.29243
787.87        78.61335
788.28        78.87987
788.70         79.0552
789.11        79.11938
789.52        79.25687
789.93        79.37651
790.35        78.94907
790.76        78.17362
791.17        77.97488
791.58        78.36929
792.00        78.54565
792.41        78.48413
792.82        78.76508
793.23         79.3102
793.65        79.44948
794.06        79.27302
794.47        79.49391
794.88        79.99222
795.29        80.08257
795.71        79.71317
796.12        79.28401
796.53        78.95847
796.94        78.88367
797.35        79.13141
797.76        79.65439
798.18        80.23599
798.59        80.62806
799.00        80.62701
799.41        80.40247
799.82         80.0694
800.23        79.88438
800.64        79.92558
801.06        80.08041
801.47        80.32374
801.88         80.5299
802.29        80.64384
802.70        80.69234
803.11        80.67641
803.52        80.58751
803.93        80.45024
804.34        80.28863
804.75        80.10325
805.17        79.95242
805.58        79.90129
805.99         79.7506
806.40        79.62461
806.81        80.13533
807.22         81.0894
807.63        81.45716
808.04        81.21977
808.45        81.22736
808.86        81.50903
809.27        81.52962
809.68        81.26593
810.09        80.98907
810.50        80.74158
810.91        80.45577
811.32        80.24318
811.73        80.27328
812.14         80.5639
812.55        81.08662
812.96        81.65028
813.37        81.88476
813.78        81.69987
814.19        81.22295
814.60        80.66631
815.01        80.33829
815.42        80.31541
815.83        80.50186
816.24        80.82685
816.65        81.14249
817.05        81.36967
817.46        81.51784
817.87         81.5914
818.28         81.5329
818.69        81.35394
819.10        81.06236
819.51          80.763
819.92        80.66289
820.33        80.81697
820.74        81.15886
821.14        81.58703
821.55        81.94617
821.96        82.17487
822.37        82.31792
822.78        82.36106
823.19         82.2901
823.60        82.11395
824.00        81.82054
824.41        81.48817
824.82        81.27966
825.23        81.22556
825.64        81.31308
826.04        81.43855
826.45        81.31574
826.86        80.93189
827.27        80.38507
827.68        79.87997
828.08        79.75799
828.49        80.05176
828.90        80.69584
829.31        81.52931
829.72        82.26871
830.12        82.83122
830.53        83.17886
830.94        83.42253
831.35        83.71523
831.75        84.10824
832.16         84.4493
832.57         84.6378
832.97        84.47919
833.38        83.96637
833.79        83.26737
834.20        82.53413
834.60        81.94223
835.01         81.5929
835.42        81.41075
835.82         81.4908
836.23        81.90574
836.64        82.64375
837.04        83.69165
837.45        84.67126
837.86        85.12052
838.26        84.91851
838.67        84.20263
839.08        83.27476
839.48        82.60386
839.89        82.36938
840.29        82.42264
840.70        82.67379
841.11        82.98647
841.51        83.31266
841.92        83.67501
842.33        84.00119
842.73         84.1328
843.14        83.99448
843.54        83.66152
843.95        83.29002
844.35         83.2199
844.76        83.48686
845.17        83.95444
845.57        84.48711
845.98        84.82136
846.38        84.89342
846.79        84.79662
847.19        84.47792
847.60         83.7971
848.00        82.83373
848.41        81.66199
848.81        80.66513
849.22        80.41455
849.62         81.0424
850.03        82.35438
850.43        83.96745
850.84        84.92863
851.24        85.00661
851.65        84.32259
852.05        83.30853
852.46        82.65421
852.86        82.54146
853.27        82.81171
853.67        83.09467
854.07        83.12127
854.48        82.77135
854.88        82.19846
855.29        81.51694
855.69          81.202
856.10        81.29276
856.50        81.75912
856.90        82.28856
857.31        82.46778
857.71        82.25656
858.12        81.75084
858.52        81.22839
858.92        81.07941
859.33        81.38786
859.73        82.06244
860.13        82.87914
860.54        83.49763
860.94        83.84437
861.34        83.90481
861.75        83.70683
862.15        83.38033
862.55        82.94699
862.96        82.43619
863.36        81.75953
863.76        80.79941
864.17        79.63402
864.57        78.39175
864.97        77.37842
865.38        76.98344
865.78        77.30554
866.18         78.1983
866.58        79.42775
866.99        80.46265
867.39        81.10961
867.79        81.43249
868.19        81.41319
868.60         81.0575
869.00        80.44169
869.40          79.553
869.80        78.74233
870.21         78.6177
870.61        79.33939
871.01        80.69353
871.41        82.15553
871.81        82.87017
872.22        82.61568
872.62        81.63463
873.02        80.33893
873.42         79.4327
873.82        79.16071
874.22        79.36163
874.63        79.76296
875.03        79.94397
875.43        79.79726
875.83         79.4417
876.23        79.18958
876.63        79.53094
877.03        80.52676
877.44        81.94092
877.84        83.29314
878.24        83.71712
878.64        83.06219
879.04        81.67134
879.44        80.12635
879.84        79.27319
880.24        79.30539
880.64        79.94558
881.04        80.91585
881.44        81.74693
881.84        82.25846
882.24         82.6101
882.65        82.74384
883.05        82.71265
883.45        82.50827
883.85        82.12388
884.25        81.76094
884.65        81.76641
885.05        82.18127
885.45        82.86427
885.85        83.63432
886.25        84.15858
886.65        84.29947
887.05        84.17833
887.45        83.70448
887.85        82.75787
888.25         81.4691
888.65        79.98534
889.04        78.70493
889.44        78.23109
889.84         78.5803
890.24        79.62637
890.64        81.02198
891.04        82.00033
891.44        82.25297
891.84        81.98135
892.24        81.50056
892.64        81.27568
893.04        81.41307
893.44        81.74126
893.83         82.1697
894.23        82.46852
894.63        82.59264
895.03        82.64455
895.43        82.63771
895.83        82.56905
896.23          82.456
896.63        82.26968
897.02        82.09126
897.42        82.12309
897.82        82.37302
898.22        82.81613
898.62        83.25021
899.01        83.34207
899.41        83.01443
899.81         82.3777
900.21        81.71947
900.61        81.48532
901.00        81.76627
901.40         82.4304
901.80        83.15774
902.20        83.42841
902.59        83.10193
902.99        82.32292
903.39        81.42586
903.79        80.90352
904.18        80.87337
904.58          81.246
904.98        81.68056
905.38        81.66022
905.77         81.0724
906.17         80.0797
906.57        79.14598
906.96        79.02934
907.36        79.83704
907.76        81.36272
908.15        82.97973
908.55        83.49779
908.95        82.72206
909.34        81.03242
909.74        79.27515
910.14        78.61765
910.53        79.36993
910.93        81.10203
911.33        83.29171
911.72        85.12294
912.12        86.19545
912.52        86.73106
912.91        86.89507
913.31        86.94163
913.70        86.98045
914.10        86.86327
914.49        86.47385
914.89        85.66235
915.29        84.48602
915.68        83.12029
916.08        81.90489
916.47        81.18449
916.87        81.09451
917.26        81.47479
917.66        82.17796
918.05        82.98135
918.45        83.69306
918.84        84.39593
919.24        84.86333
919.64        84.89656
920.03        84.48811
920.42        83.67862
920.82        82.77762
921.21        82.16775
921.61        81.97405
922.00        82.13402
922.40        82.51321
922.79        82.95197
923.19        83.32322
923.58        83.67525
923.98        83.98433
924.37        84.22469
924.77         84.3835
925.16        84.45452
925.55        84.41109
925.95        84.23766
926.34        83.97564
926.74        83.62984
927.13         83.3073
927.52        83.13274
927.92        83.13888
928.31        83.27889
928.70        83.45643
929.10        83.49093
929.49        83.33492
929.89        82.99403
930.28        82.57664
930.67        82.18583
931.07        81.88055
931.46        81.67572
931.85        81.51877
932.24        81.32512
932.64        81.11169
933.03        80.95126
933.42         80.9716
933.82        81.35668
934.21        82.13989
934.60        83.13322
934.99        84.22537
935.39        85.22913
935.78        86.08832
936.17        86.80386
936.56        87.03035
936.96        86.28561
937.35        84.62311
937.74        82.33516
938.13        80.19214
938.53        79.15331
938.92        79.33322
939.31         80.5527
939.70        82.23969
940.09        83.24858
940.49        83.18401
940.88        82.36532
941.27        81.36911
941.66        81.08753
942.05        81.71853
942.44        82.99878
942.84         84.3644
943.23        84.92354
943.62        84.36112
944.01        83.00826
944.40        81.56554
944.79        81.03432
945.18         81.6283
945.57        83.05928
945.97        84.63777
946.36        85.42625
946.75        85.02384
947.14        83.75338
947.53        82.28617
947.92        81.62263
948.31        82.01913
948.70        83.21645
949.09        84.61009
949.48        85.13186
949.87        84.48664
950.26        83.02263
950.65        81.50047
951.04        80.96585
951.43        81.62112
951.82        83.18829
952.21        84.91531
952.60        85.43849
952.99        84.41062
953.38         82.3203
953.77        80.16589
954.16        79.25621
954.55        79.85234
954.94        81.67847
955.33        83.93571
955.72        84.89543
956.11        83.96419
956.50        81.73164
956.89        79.40481
957.28        78.55631
957.66        79.53756
958.05        81.82982
958.44        84.53891
958.83        85.85713
959.22        85.19591
959.61        83.21738
960.00        80.97398
960.39        79.79628
960.78        79.92368
961.16         80.9724
961.55         82.3142
961.94        82.84235
962.33        82.19196
962.72        80.90718
963.11        79.46962
963.49        78.47421
963.88        78.09491
964.27        78.06409
964.66        78.47168
965.04        79.55521
965.43        81.14439
965.82        83.20473
966.21        85.11501
966.60         85.7427
966.98        84.88791
967.37        83.01521
967.76        80.87318
968.15        79.48223
968.53        79.05859
968.92         79.2441
969.31        79.97245
969.69        81.10579
970.08        82.39024
970.47        84.01945
970.86        85.35947
971.24        85.32929
971.63        83.76516
972.02        81.02996
972.40        78.32404
972.79         77.5686
973.17        79.06392
973.56        82.12856
973.95        85.65893
974.33        87.54453
974.72        87.02857
975.11        84.83337
975.49         81.9454
975.88         80.1807
976.26        80.03404
976.65        80.89941
977.04        82.30577
977.42        83.39664
977.81        83.66755
978.19        83.54656
978.58        83.19219
978.96        82.70614
979.35        82.25249
979.74         81.7774
980.12        81.50739
980.51        81.81847
980.89        82.83429
981.28        84.24702
981.66        86.00316
982.05         87.6778
982.43        89.17631
982.82        90.48455
983.20        91.15421
983.59        90.32714
983.97        88.04242
984.35          84.687
984.74         81.5098
985.12        80.19379
985.51        80.97747
985.89        83.47608
986.28        86.50679
986.66        88.41419
987.04        88.49663
987.43        87.26659
987.81        85.38372
988.20        84.28398
988.58        84.35112
988.96        85.14495
989.35        85.91503
989.73        85.74847
990.12        84.36288
990.50        82.26778
990.88        80.00735
991.27        78.40012
991.65        77.69135
992.03        77.71006
992.42        78.31757
992.80        79.61526
993.18        81.40904
993.56        83.64957
993.95        85.92155
994.33        87.58675
994.71        88.26091
995.10        88.16642
995.48        87.46728
995.86        86.55628
996.24        85.63331
996.63        84.46768
997.01        83.62641
997.39        83.88837
997.77        85.33773
998.15        87.78391
998.54        90.16138
998.92        90.79135
999.30        89.31781
999.68         86.1701
1000.06        82.52592
1000.45        80.64408
1000.83        81.38688
1001.21        84.10711
1001.59        87.76514
1001.97        90.61215
1002.35        92.01452
1002.73        92.41332
1003.12        92.16167
1003.50        91.74778
1003.88        91.41384
1004.26        90.96487
1004.64        90.34055
1005.02         89.5369
1005.40        88.65672
1005.78        87.89103
1006.16        87.42847
1006.54        87.44646
1006.92        87.94972
1007.30        88.84231
1007.69        89.94407
1008.07        91.03042
1008.45        91.81643
1008.83        92.32322
1009.21        92.36357
1009.59        91.73283
1009.97         90.4604
1010.35        88.56985
1010.73        86.63232
1011.11         85.5848
1011.49        85.62803
1011.86        86.61832
1012.24        87.66502
1012.62        87.55959
1013.00        85.97407
1013.38        83.09111
1013.76        79.75633
1014.14        77.83096
1014.52        77.99977
1014.90        79.80012
1015.28        81.91232
1015.66        82.19913
1016.04        80.19964
1016.41        76.71465
1016.79         72.9955
1017.17        71.55459
1017.55        72.96149
1017.93        75.86511
1018.31           79.26
1018.69        82.68046
1019.06        86.44266
1019.44        91.04957
1019.82        96.59164
1020.20         101.097
1020.58        102.5206
1020.95        100.8363
1021.33        97.52763
1021.71        94.13587
1022.09            90.7
1022.46        86.36958
1022.84        81.56544
1023.22         77.9187
1023.60        76.87799
1023.97        78.43893
1024.35        80.75278
1024.73        81.56293
