SpectraSmart Spectrum 2.9.0.0
--------- Device Information -----------
Spectrum Name :  反射率_0
Saving Time :  2024/04/30 00:58:54
Spectro-Module Model Name : SE2030-DUVN
Spectro-Module Serial Number : OS361AC55029948
Wavelength Start : 200
Wavelength End : 1025
Wavelength Unit : Wavelength(nm)
Spectrum Unit : Reflectance(%)
-----------Spectrum Setting ------------
Integration Time : 20ms
Average : 10
Boxcar : 0
Background removal :  enabled
linearity correction :  enabled
SC :  disabled
Intensity correction :  disabled
DWT denoise :  enabled
savitzky-golay :  disabled
FFT :  disabled
Running average :  disabled
Kalman :  disabled
High pass :  disabled
---------------BEGIN--------------------
Wavelength(nm)             Reflectance(%)
200.29               0
200.75        62.97673
201.21        55.07254
201.67        45.88498
202.13        37.41492
202.58         30.8542
203.04        25.85642
203.50        24.19729
203.96        29.53425
204.42        42.04924
204.88        59.59958
205.34        75.02106
205.80        78.30903
206.26        70.91363
206.72        59.71878
207.18        49.03655
207.64        40.95931
208.10         34.8581
208.55         29.0157
209.01        24.65653
209.47        25.50642
209.93        31.28885
210.39        39.76753
210.85        46.75337
211.31        48.77438
211.77         45.6685
212.23        36.95188
212.69        24.47651
213.14        19.64523
213.60        27.46223
214.06        41.28319
214.52        52.85796
214.98        57.03618
215.44        54.95173
215.90        48.88317
216.36        41.62292
216.81        38.44186
217.27        42.20963
217.73        52.66245
218.19          69.142
218.65         83.4826
219.11        88.10343
219.57        84.72861
220.02        78.78129
220.48        75.06168
220.94        73.29299
221.40        72.11577
221.86        69.58666
222.32        63.10906
222.77        54.73967
223.23        48.41152
223.69        44.99487
224.15        44.16782
224.61        45.27431
225.06        47.96616
225.52        52.01456
225.98        55.69709
226.44        57.81258
226.90        58.66983
227.36        58.96318
227.81        59.44881
228.27        60.32542
228.73        61.28056
229.19        62.05982
229.65        62.11261
230.10         61.4049
230.56        60.61594
231.02        59.79993
231.48        58.93914
231.93        57.94834
232.39        56.80182
232.85         55.8838
233.31        56.03291
233.77        57.40566
234.22        59.92572
234.68        62.43107
235.14         62.8496
235.60         60.7921
236.05        56.98527
236.51         53.2284
236.97        51.81395
237.43        53.28391
237.88        57.56497
238.34        63.71326
238.80        68.60364
239.26        69.79976
239.71        67.94355
240.17        64.44453
240.63        61.58952
241.08        59.96687
241.54        58.64978
242.00        57.78257
242.46         58.2823
242.91        61.04728
243.37        65.77484
243.83        70.58702
244.28        73.77195
244.74        75.26804
245.20        75.09429
245.66        73.69617
246.11        72.52539
246.57        72.58044
247.03        74.07332
247.48         76.1516
247.94        76.31513
248.40        74.66077
248.85        72.03776
249.31        70.88062
249.77        72.20365
250.22        76.23896
250.68        83.88472
251.14        93.87726
251.59        95.21089
252.05        83.93752
252.51        70.22484
252.96        60.73124
253.42        56.79502
253.88         56.2508
254.33        57.56068
254.79        59.95282
255.25        61.11686
255.70        60.45673
256.16        59.52695
256.62        58.70269
257.07        58.13726
257.53        58.12487
257.99        58.25986
258.44        58.35672
258.90        58.82354
259.35        59.14064
259.81        59.50265
260.27        59.63232
260.72        59.34507
261.18        58.88054
261.63         58.0739
262.09        57.15964
262.55        56.10344
263.00        54.92929
263.46        53.89231
263.91        52.84417
264.37        51.90005
264.83        50.98719
265.28        50.05921
265.74        49.34404
266.19        48.94689
266.65        48.92761
267.11         49.1423
267.56        49.37594
268.02        49.35123
268.47        48.96604
268.93        48.29329
269.38        47.40644
269.84        46.55995
270.30        45.82683
270.75        45.16383
271.21        44.49736
271.66        43.66069
272.12        42.64957
272.57        41.52163
273.03        40.45844
273.48         39.6426
273.94        39.17339
274.39        38.91776
274.85        38.78947
275.31        38.58057
275.76        38.21484
276.22        37.78214
276.67        37.28354
277.13        36.83807
277.58         36.4124
278.04        36.01452
278.49        35.57331
278.95        35.10368
279.40        34.56122
279.86        34.04438
280.31        33.51791
280.77        33.05531
281.22        32.62922
281.68        32.25897
282.13        31.95439
282.59        31.79725
283.04         31.7416
283.50        31.74546
283.95        31.68094
284.41        31.38236
284.86        30.81801
285.32         30.1118
285.77         29.3304
286.22        28.64213
286.68        28.11256
287.13        27.67136
287.59         27.3677
288.04        27.21103
288.50         27.2003
288.95         27.2881
289.41        27.40316
289.86          27.391
290.32        27.24575
290.77        27.00153
291.22         26.7165
291.68        26.48886
292.13        26.34405
292.59        26.27485
293.04        26.31689
293.50        26.55337
293.95         26.9718
294.40         27.5509
294.86         28.1575
295.31        28.59477
295.77        28.81689
296.22        28.87308
296.68         28.8967
297.13        29.07735
297.58        29.47314
298.04        29.99868
298.49        30.56716
298.95        31.03731
299.40        31.36716
299.85        31.61092
300.31        31.81361
300.76        31.98406
301.21        32.16504
301.67        32.35206
302.12        32.54004
302.58        32.86647
303.03        33.32385
303.48         33.7445
303.94        34.04938
304.39        34.80184
304.84        34.82499
305.30        35.06684
305.75        35.19243
306.20        35.28765
306.66        35.37405
307.11        35.43427
307.57        35.48075
308.02         35.4536
308.47        35.36609
308.93        35.24507
309.38        35.12225
309.83        35.09304
310.29        35.17126
310.74        35.32375
311.19        35.46662
311.65        35.46418
312.10        35.28688
312.55        34.97667
313.00        34.64434
313.46        34.46384
313.91        34.45842
314.36        34.57692
314.82         34.7037
315.27        34.67167
315.72        34.43343
316.18        34.06182
316.63        33.64009
317.08        33.30999
317.53        33.11938
317.99        33.02816
318.44        33.00127
318.89        32.98874
319.35         32.9649
319.80        32.94429
320.25        32.92519
320.70        32.90146
321.16        32.85985
321.61        32.80913
322.06        32.72971
322.51        32.60976
322.97        32.44991
323.42        32.25912
323.87        32.06742
324.32        31.92603
324.78        31.83584
325.23        31.80311
325.68        31.77208
326.13        31.65173
326.59        31.41968
327.04        31.11705
327.49        30.81443
327.94        30.64109
328.39        30.62126
328.85        30.69928
329.30        30.81335
329.75        30.80293
330.20        30.62608
330.66         30.3367
331.11        30.00229
331.56        29.70506
332.01        29.48253
332.46        29.30591
332.92        29.19073
333.37        29.19964
333.82        29.32028
334.27        29.53868
334.72        29.76652
335.17        29.85271
335.63        29.75331
336.08        29.51307
336.53        29.20095
336.98        28.96046
337.43        28.84455
337.88         28.8214
338.34        28.85142
338.79        28.88972
339.24        28.90889
339.69        28.92762
340.14        28.95494
340.59        29.00116
341.05        29.06371
341.50        29.12332
341.95        29.15428
342.40        29.12989
342.85        29.04608
343.30        28.91372
343.75        28.75275
344.20        28.59709
344.66        28.47217
345.11         28.3693
345.56         28.2918
346.01        28.23576
346.46        28.20492
346.91        28.20649
347.36        28.24241
347.81        28.31642
348.26        28.42075
348.72        28.53445
349.17        28.65117
349.62        28.75924
350.07        28.84508
350.52         28.9117
350.97         28.9231
351.42        28.82643
351.87        28.62734
352.32        28.35138
352.77        28.08368
353.22        27.96113
353.67        28.01085
354.13        28.18587
354.58        28.39922
355.03        28.50889
355.48        28.47001
355.93        28.32274
356.38        28.10815
356.83        27.88983
357.28        27.69447
357.73         27.5077
358.18        27.32834
358.63        27.15827
359.08        26.99771
359.53        26.84975
359.98        26.72636
360.43        26.63979
360.88        26.58615
361.33         26.5584
361.78        26.51617
362.23        26.39831
362.68        26.19703
363.13        25.93286
363.58        25.66172
364.03        25.47313
364.48        25.38631
364.93         25.3719
365.38        25.38188
365.83        25.33832
366.28        25.21933
366.73        25.05124
367.18        24.85884
367.63        24.68013
368.08        24.52814
368.53        24.38876
368.98        24.26148
369.43        24.14661
369.88          24.044
370.33        23.96148
370.78        23.88752
371.23        23.80037
371.68        23.69494
372.13        23.56908
372.58        23.44591
373.03         23.3666
373.48        23.33011
373.93        23.31455
374.38        23.27341
374.83        23.13247
375.28        22.88554
375.72        22.56793
376.17        22.24213
376.62        21.95167
377.07        21.71362
377.52         21.5067
377.97        21.36134
378.42        21.32764
378.87        21.40077
379.32        21.56132
379.77        21.71329
380.22        21.71373
380.67        21.53648
381.11        21.21567
381.56        20.85916
382.01        20.64911
382.46        20.63488
382.91        20.76876
383.36         20.9386
383.81        20.97208
384.26        20.83234
384.71        20.56952
385.15        20.29033
385.60        20.18731
386.05        20.27975
386.50         20.4966
386.95        20.70393
387.40        20.69772
387.85        20.44911
388.29        20.03695
388.74        19.61411
389.19         19.3214
389.64        19.19164
390.09        19.16553
390.54        19.21059
390.98        19.27077
391.43        19.32374
391.88        19.38783
392.33        19.42196
392.78         19.3847
393.23        19.28028
393.67        19.07283
394.12        18.84892
394.57        18.86326
395.02        18.85621
395.47         19.0137
395.91        19.17692
396.36        19.20195
396.81        19.06466
397.26        18.82315
397.71        18.56113
398.15        18.39164
398.60        18.36511
399.05        18.39809
399.50        18.45108
399.95        18.55127
400.39        18.58642
400.84        18.57027
401.29        18.48882
401.74         18.4296
402.18        18.40641
402.63        18.35554
403.08        18.30678
403.53        18.32422
403.97        18.40845
404.42        18.54119
404.87        18.65423
405.32        18.63587
405.76        18.46398
406.21        18.18611
406.66         17.8892
407.11        17.71005
407.55        17.68955
408.00         17.7912
408.45        17.94495
408.90        18.01901
409.34        17.97403
409.79        17.84779
410.24         17.7267
410.68        17.74202
411.13        17.91672
411.58        18.20034
412.03        18.48474
412.47         18.5911
412.92        18.46502
413.37        18.18365
413.81        17.85217
414.26        17.65053
414.71        17.60861
415.15        17.67977
415.60         17.8018
416.05        17.88933
416.49        17.91179
416.94        17.90461
417.39        17.87764
417.83        17.83911
418.28         17.8021
418.73        17.75051
419.17        17.71429
419.62        17.74833
420.07        17.85492
420.51        18.01498
420.96        18.17174
421.41        18.22472
421.85        18.15206
422.30        18.00658
422.74        17.83954
423.19        17.75617
423.64        17.77076
424.08        17.86058
424.53        17.97767
424.98        18.06792
425.42        18.11199
425.87          18.115
426.31        18.08414
426.76         18.0579
427.21        17.98669
427.65        17.89582
428.10        17.79839
428.54        17.69123
428.99        17.59862
429.44        17.64401
429.88        17.76533
430.33        17.63451
430.77        17.36526
431.22        17.53167
431.66         18.0864
432.11        18.39038
432.56        18.34665
433.00        18.35897
433.45        18.40827
433.89        18.06702
434.34        17.54922
434.78        17.55286
435.23        17.98446
435.67        18.12571
436.12        17.94274
436.57        17.84498
437.01        17.88303
437.46        17.95388
437.90        18.05878
438.35        18.21326
438.79         18.3705
439.24        18.42809
439.68        18.39644
440.13        18.37663
440.57        18.35484
441.02        18.31814
441.46        18.27786
441.91        18.11006
442.35        17.89585
442.80        18.13638
443.24         18.6638
443.69        18.58628
444.13        17.98244
444.58        17.73445
445.02        17.85185
445.47        17.86434
445.91        17.76423
446.36        17.77091
446.80        17.87763
447.24        18.03118
447.69        18.18491
448.13        18.26465
448.58        18.25665
449.02        18.18143
449.47        18.09714
449.91        18.08394
450.36        18.16158
450.80        18.30223
451.25        18.44721
451.69        18.49986
452.13        18.43863
452.58        18.30403
453.02        18.15118
453.47        18.06412
453.91        18.06029
454.36        18.16445
454.80        18.24257
455.24        18.29116
455.69        18.26958
456.13        18.19906
456.58        18.12262
457.02        18.08745
457.46        18.10939
457.91        18.16802
458.35        18.22994
458.79        18.25692
459.24        18.25119
459.68        18.23594
460.13        18.23552
460.57        18.20374
461.01        18.28695
461.46         18.2961
461.90         18.2897
462.34        18.46755
462.79        18.74195
463.23        18.71531
463.68        18.44086
464.12        18.34426
464.56         18.4454
465.01        18.53577
465.45        18.56401
465.89         18.5391
466.34        18.48702
466.78         18.4963
467.22          18.603
467.67        18.56875
468.11        18.40997
468.55        18.22077
468.99        18.06716
469.44        18.00301
469.88        18.04442
470.32        18.18221
470.77        18.35208
471.21        18.46176
471.65        18.47813
472.10        18.43333
472.54        18.36994
472.98        18.37462
473.42        18.46342
473.87        18.60227
474.31        18.74136
474.75         18.8112
475.20        18.80228
475.64        18.73834
476.08        18.65523
476.52        18.60171
476.97        18.59417
477.41        18.61225
477.85        18.65773
478.29          18.732
478.74        18.83295
479.18        18.94687
479.62        19.04112
480.06         19.1095
480.50        19.15802
480.95        19.02105
481.39        19.02472
481.83        19.03955
482.27        19.17523
482.72        19.24363
483.16        19.47857
483.60        19.60836
484.04        19.68851
484.48        19.75182
484.93        19.81746
485.37        19.87041
485.81         19.8448
486.25        19.97463
486.69         19.3736
487.14         19.5849
487.58        20.38651
488.02        20.40063
488.46        20.47766
488.90        20.93305
489.34        20.32392
489.79         20.4171
490.23        20.64625
490.67        20.85613
491.11        20.96829
491.55        20.97442
491.99        20.94085
492.43        21.03848
492.88        21.27543
493.32         21.5085
493.76        21.69896
494.20        21.88734
494.64        22.06889
495.08        22.22109
495.52        22.33516
495.96        22.45169
496.41        22.58216
496.85        22.60666
497.29        22.55566
497.73        22.82878
498.17        23.08812
498.61        23.11021
499.05         22.8632
499.49          22.783
499.93        22.91611
500.37        23.11386
500.82        23.32187
501.26        23.47251
501.70        23.54353
502.14          23.587
502.58        23.64123
503.02        23.73742
503.46        23.88728
503.90         24.0828
504.34        24.28298
504.78        24.41883
505.22         24.4726
505.66        24.45944
506.10        24.41739
506.54         24.4355
506.98        24.53682
507.42        24.64851
507.86        24.71173
508.30        24.91191
508.74        24.78156
509.18        24.71562
509.62        24.63883
510.06        24.65592
510.50        24.78348
510.94        24.99301
511.38        25.23021
511.82        25.39186
512.26        25.44838
512.70        25.43023
513.14         25.3762
513.58        25.34695
514.02        25.36305
514.46        25.40603
514.90        25.46256
515.34        25.51299
515.78         25.5491
516.22        25.57826
516.66        25.60607
517.10        25.63829
517.54        25.67338
517.98        25.70422
518.42        25.71784
518.86        25.69596
519.30        25.63796
519.74        25.55577
520.18         25.4658
520.62         25.3909
521.06        25.34137
521.50        25.31522
521.93        25.31597
522.37        25.33929
522.81         25.3826
523.25        25.43994
523.69        25.50109
524.13        25.55224
524.57        25.58499
525.01        25.59616
525.45        25.57893
525.89        25.52594
526.32        25.43687
526.76        25.32702
527.20        25.20678
527.64        25.09287
528.08        24.99348
528.52        24.90764
528.96        24.84365
529.40        24.81227
529.83        24.81005
530.27        24.83425
530.71        24.86147
531.15          24.858
531.59        24.81452
532.03        24.73772
532.46        24.64315
532.90         24.5659
533.34        24.51496
533.78        24.48647
534.22        24.46624
534.66        24.43176
535.09        24.37729
535.53        24.31518
535.97        24.26401
536.41        24.26806
536.85        24.33152
537.28        24.42004
537.72        24.49029
538.16        24.56003
538.60         24.4854
539.04        24.40058
539.47        24.29343
539.91        24.23166
540.35        24.22626
540.79        24.26665
541.22        24.35129
541.66        24.47767
542.10        24.63439
542.54        24.82022
542.97        25.01259
543.41        25.17913
543.85        25.31088
544.29        25.41962
544.72          25.506
545.16        25.59188
545.60        25.68446
546.04        25.76986
546.47        25.86981
546.91        26.05781
547.35        26.31784
547.79        26.55079
548.22         26.7264
548.66        26.94195
549.10        27.19862
549.53        27.35518
549.97        27.37571
550.41        27.76921
550.84        27.70768
551.28        27.81854
551.72        27.86012
552.15        28.08515
552.59        28.14727
553.03        28.32404
553.46        28.50166
553.90        28.65769
554.34        28.77956
554.77        28.90532
555.21        29.03714
555.65        29.10209
556.08        29.12763
556.52        29.24958
556.96        29.45075
557.39        29.63509
557.83        29.78634
558.27        29.89132
558.70         29.9717
559.14        30.09942
559.57        30.25244
560.01        30.38588
560.45        30.48258
560.88         30.4349
561.32        30.43595
561.75        30.48975
562.19        30.63639
562.63        30.72805
563.06        30.75629
563.50        30.82127
563.93         30.9115
564.37        30.99686
564.80        31.06808
565.24        31.13917
565.68         31.2181
566.11        31.33907
566.55        31.50296
566.98        31.65001
567.42        31.79955
567.85        31.92166
568.29        32.01721
568.72        32.18422
569.16         32.4758
569.60        32.28782
570.03         32.6227
570.47        32.74405
570.90        32.92693
571.34        32.95612
571.77        33.18631
572.21         33.3172
572.64        33.42714
573.08         33.5435
573.51        33.71157
573.95        33.64996
574.38        34.04161
574.82        33.89732
575.25        33.96421
575.69        33.84391
576.12        33.77151
576.56        33.90672
576.99        34.09555
577.42        34.23162
577.86        33.97638
578.29         33.8885
578.73        33.95479
579.16        33.78075
579.60        33.70264
580.03        33.70885
580.47        34.01897
580.90        33.88614
581.33        33.36093
581.77        33.59443
582.20        33.28499
582.64        33.12361
583.07        32.84284
583.51        32.74978
583.94        32.95196
584.37        32.82998
584.81         32.4934
585.24        32.51899
585.68        32.59359
586.11        32.87334
586.54        32.33752
586.98         31.9383
587.41         32.5376
587.85        32.54278
588.28        32.07332
588.71        32.26849
589.15         32.1203
589.58          32.093
590.01        32.06632
590.45        32.09234
590.88         32.2408
591.31        32.31681
591.75        32.27664
592.18        32.36032
592.61         32.6035
593.05        32.04352
593.48        32.46523
593.91        32.32624
594.35        32.14919
594.78        32.26241
595.21        32.64147
595.65        32.82607
596.08         32.5629
596.51        33.11228
596.94        33.37444
597.38        33.75258
597.81        33.85143
598.24        34.12007
598.68        34.25707
599.11        34.36237
599.54        34.78619
599.97        35.21161
600.41        34.94007
600.84        35.47979
601.27         35.7178
601.70        36.28624
602.14        36.83696
602.57        37.09819
603.00        37.26195
603.43        37.55792
603.87        37.97925
604.30        38.38533
604.73        38.76522
605.16        39.21601
605.60        39.69357
606.03        40.14502
606.46        40.49645
606.89        40.84152
607.32        41.21731
607.76        41.57415
608.19        41.90972
608.62        42.30924
609.05        42.79678
609.48        43.12399
609.92        43.19913
610.35        43.82956
610.78        44.06516
611.21        43.94788
611.64        44.17746
612.07        44.97723
612.50        44.92659
612.94        45.38098
613.37        45.90393
613.80        45.84334
614.23        46.39931
614.66        46.59999
615.09        46.83877
615.52         47.0308
615.96         47.1657
616.39        47.45212
616.82        47.56646
617.25        47.65253
617.68        47.77261
618.11        48.08778
618.54        48.56243
618.97        48.79734
619.40        48.82265
619.84        49.01577
620.27        49.18183
620.70        49.47361
621.13        49.85829
621.56        49.47075
621.99         49.9287
622.42        49.95436
622.85        49.98934
623.28        49.98963
623.71        50.44839
624.14        49.76714
624.57        50.33778
625.00         50.0326
625.43        50.35836
625.86        49.82717
626.29        50.05363
626.72        49.90675
627.15        49.76773
627.58        49.70693
628.01        49.67525
628.44        49.38163
628.87        48.89689
629.30        48.73525
629.73        48.85881
630.16        48.75621
630.59        48.39355
631.02        48.16939
631.45        47.88194
631.88        47.60046
632.31        47.26216
632.74        46.89946
633.17        46.51289
633.60        46.11115
634.03        45.70102
634.46        45.27596
634.89         44.8442
635.32        44.42486
635.75        44.02248
636.18        43.63091
636.61        43.24972
637.04        42.88366
637.47        42.54074
637.89        42.19323
638.32        41.81662
638.75        41.49876
639.18        41.26083
639.61        40.68176
640.04        40.51564
640.47        40.19553
640.90        39.94666
641.33         39.7548
641.76         39.6024
642.18         39.4491
642.61        39.26994
643.04        39.08542
643.47        38.94624
643.90        38.91899
644.33         39.0087
644.76        39.24185
645.18        39.52371
645.61        39.59084
646.04        39.38257
646.47        39.39756
646.90        39.62258
647.33        39.77036
647.75        39.83725
648.18        40.01954
648.61        40.31654
649.04        40.62043
649.47        40.92879
649.89        41.31552
650.32         41.7377
650.75         42.1049
651.18         42.4369
651.61         42.7932
652.03        43.20875
652.46        43.79795
652.89        44.43573
653.32         44.7598
653.74        44.88078
654.17        45.07919
654.60        45.31969
655.03        46.76719
655.46        46.00209
655.88        47.25476
656.31        48.94155
656.74        48.70016
657.16        47.96839
657.59        47.35788
658.02        47.95678
658.45        49.76524
658.87        50.00791
659.30        50.22099
659.73        50.76725
660.15        51.50402
660.58        51.33899
661.01        51.66552
661.44        52.07123
661.86        52.03157
662.29        51.70734
662.72        51.97815
663.14        52.79665
663.57        53.14274
664.00        53.02036
664.42        53.15631
664.85        53.58439
665.27        53.88947
665.70        54.04919
666.13        54.24833
666.55        54.49692
666.98        54.73973
667.41         54.9712
667.83        55.17176
668.26        55.32999
668.69        55.46571
669.11        55.58922
669.54         55.7153
669.96        55.84993
670.39        55.99449
670.82        56.14153
671.24          56.266
671.67        56.36579
672.09         56.4925
672.52        56.65533
672.94        56.87821
673.37        56.72458
673.80        57.22056
674.22        57.11235
674.65        57.39461
675.07        57.72425
675.50        58.05143
675.92        58.33961
676.35        58.55109
676.77        58.68075
677.20        58.73656
677.62        58.77953
678.05         58.7225
678.47        58.90958
678.90        59.05486
679.32        59.20507
679.75        59.28875
680.17        59.28457
680.60        59.23386
681.02        59.17501
681.45        59.23764
681.87        59.42768
682.30         59.8107
682.72        60.27983
683.15        60.36731
683.57        60.10285
684.00         60.3179
684.42         60.9152
684.85        61.18527
685.27        61.10406
685.70        61.00317
686.12        60.97443
686.54         61.2657
686.97        61.80612
687.39        62.08781
687.82        61.98635
688.24        62.36824
688.66        62.19805
689.09        62.09781
689.51        61.84963
689.94         61.7485
690.36        61.81346
690.78        61.98779
691.21        62.22308
691.63        62.43975
692.06        62.60058
692.48        62.71021
692.90        62.78362
693.33        62.86959
693.75        62.97604
694.17        63.05596
694.60        63.13875
695.02        63.25728
695.44        63.40148
695.87        63.70604
696.29        64.07993
696.71        63.98821
697.14        63.57994
697.56        63.69083
697.98        64.26519
698.41        64.51984
698.83        64.43379
699.25        64.51704
699.68         64.7495
700.10        64.87281
700.52        64.86119
700.94        64.82423
701.37        64.77385
701.79        64.72765
702.21        64.69405
702.64         64.6761
703.06          64.699
703.48        64.81367
703.90        65.02661
704.33        65.33543
704.75        65.64873
705.17        65.87998
705.59        65.97298
706.01        65.94785
706.44        65.87878
706.86        65.87161
707.28        65.94615
707.70        66.14594
708.12        66.39679
708.55         66.3999
708.97        66.19786
709.39        66.26808
709.81        66.45066
710.23        66.65769
710.66        66.81732
711.08        67.10434
711.50        67.44585
711.92        67.67799
712.34        67.77808
712.76        67.78973
713.19        67.73062
713.61        67.67875
714.03        67.64501
714.45        67.61839
714.87        67.61474
715.29        67.65794
715.71        67.74807
716.13        67.88079
716.56        68.01483
716.98        68.15921
717.40        68.27148
717.82        68.35323
718.24        68.40429
718.66        68.43046
719.08        68.43755
719.50        68.42453
719.92        68.40468
720.34        68.39966
720.76        68.41652
721.19         68.4464
721.61        68.49435
722.03        68.53857
722.45        68.57236
722.87        68.59766
723.29        68.62004
723.71        68.64733
724.13        68.67734
724.55        68.71735
724.97        68.76266
725.39        68.76373
725.81        68.70562
726.23        68.77514
726.65        68.76455
727.07        68.78234
727.49         68.7363
727.91        69.09939
728.33        69.03511
728.75        69.23869
729.17        69.45107
729.59        69.69239
730.01        69.87859
730.43        69.89276
730.85        69.73748
731.27        69.44571
731.69        69.16055
732.10        69.14851
732.52        69.45887
732.94        69.94157
733.36        70.42669
733.78        70.99985
734.20        70.98078
734.62        70.92325
735.04        70.74297
735.46        70.71063
735.88        70.84755
736.30         70.8197
736.72        70.68963
737.13        70.97716
737.55        71.42783
737.97        71.45341
738.39        70.71791
738.81        70.12172
739.23        69.81693
739.65        70.32727
740.06        71.33429
740.48           71.73
740.90        71.40227
741.32        70.99154
741.74         70.6955
742.16        70.53144
742.57        70.58556
742.99        70.85079
743.41        71.22436
743.83        71.48938
744.25        71.61018
744.67        71.70982
745.08        71.82634
745.50        71.93281
745.92         72.0451
746.34         72.1686
746.75        72.28184
747.17        72.30784
747.59        72.23691
748.01        72.18053
748.42        72.18436
748.84        71.92136
749.26        72.01904
749.68        71.97925
750.09        71.98061
750.51        72.14724
750.93        72.40067
751.35        72.45441
751.76        72.33619
752.18        72.34322
752.60        72.48793
753.01         72.6059
753.43        72.64719
753.85        72.64527
754.27        72.61108
754.68        72.57362
755.10        72.55211
755.52        72.57487
755.93        72.62137
756.35        72.64938
756.77        72.73869
757.18        72.89785
757.60        73.11243
758.02        73.72994
758.43        74.42896
758.85        73.92538
759.26        72.55834
759.68        72.20308
760.10        72.91911
760.51        73.38805
760.93        73.45428
761.34        73.66663
761.76        73.92793
762.18        73.85941
762.59        73.53043
763.01         73.1888
763.42        72.95926
763.84        72.81529
764.26        72.82369
764.67        72.93497
765.09        73.15041
765.50        73.63016
765.92        74.24969
766.33        74.29778
766.75        74.08169
767.16        74.03632
767.58        74.16437
768.00        74.11968
768.41        73.91615
768.83        73.93945
769.24        74.09937
769.66        74.06968
770.07        73.86216
770.49        73.59492
770.90        73.41636
771.32        73.76794
771.73        74.49369
772.15        74.77025
772.56        74.53654
772.97        74.37243
773.39        73.93213
773.80        74.12933
774.22        74.70058
774.63        74.98369
775.05        74.87407
775.46        74.92111
775.88        75.09143
776.29        75.06963
776.70        74.86606
777.12         74.7105
777.53        74.63836
777.95        74.56627
778.36        74.54031
778.77        74.59782
779.19        74.73491
779.60        75.05836
780.02        75.43021
780.43        75.53471
780.84        75.41641
781.26        75.35449
781.67        75.43787
782.09         75.8322
782.50         76.3549
782.91        76.26431
783.33        75.61617
783.74         75.2624
784.15        75.25832
784.57        75.10639
784.98        74.85707
785.39        74.82185
785.81         75.0211
786.22        75.41183
786.63         75.9025
787.04          76.229
787.46        76.39828
787.87        76.67799
788.28        77.06405
788.70        77.29936
789.11        77.36582
789.52        77.47572
789.93        77.57881
790.35        77.41865
790.76        77.05738
791.17        76.78005
791.58        76.69299
792.00        76.69284
792.41        76.80738
792.82        77.23643
793.23        77.82591
793.65        77.92731
794.06        77.63084
794.47        77.73135
794.88        78.14285
795.29        78.15305
795.71        77.72353
796.12        77.29169
796.53         77.0109
796.94        76.98383
797.35        77.26785
797.76        77.81576
798.18         78.4206
798.59        78.87053
799.00         78.9259
799.41        78.77512
799.82        78.47648
800.23        78.21509
800.64        78.06412
801.06        77.94394
801.47        77.91284
801.88        77.98386
802.29        78.14103
802.70        78.37368
803.11        78.61726
803.52        78.75016
803.93          78.755
804.34        78.67384
804.75        78.52148
805.17        78.42168
805.58        78.45708
805.99        78.30018
806.40        78.07218
806.81        78.64407
807.22        79.70923
807.63        79.67052
808.04        78.67022
808.45        78.36745
808.86        78.88982
809.27        79.29529
809.68        79.40707
810.09        79.40295
810.50        79.24626
810.91        78.88776
811.32        78.52833
811.73        78.48844
812.14        78.83044
812.55        79.48052
812.96        80.18905
813.37        80.48521
813.78        80.24711
814.19        79.64301
814.60        78.94179
815.01        78.52023
815.42        78.47237
815.83         78.6891
816.24        79.04953
816.65        79.31741
817.05        79.39431
817.46        79.31917
817.87        79.18716
818.28        79.07267
818.69         79.0075
819.10        78.96201
819.51        78.92657
819.92        78.90236
820.33        78.88849
820.74        78.88432
821.14        78.92352
821.55        79.05624
821.96        79.27864
822.37        79.58884
822.78        79.88239
823.19        79.97473
823.60        79.81789
824.00        79.44922
824.41        79.03696
824.82        78.88488
825.23         79.0501
825.64        79.45943
826.04        79.90984
826.45        79.95071
826.86        79.51731
827.27        78.76685
827.68        77.97668
828.08        77.60241
828.49        77.71899
828.90        78.22504
829.31        78.96412
829.72         79.6583
830.12        80.21812
830.53        80.62684
830.94        80.93867
831.35        81.20022
831.75        81.44528
832.16        81.54989
832.57        81.51827
832.97        81.34241
833.38        81.04922
833.79        80.72826
834.20         80.4115
834.60        80.10244
835.01        79.85625
835.42        79.64983
835.82        79.62126
836.23        79.91819
836.64        80.56194
837.04         81.5138
837.45        82.40681
837.86        82.80195
838.26        82.57642
838.67        81.86509
839.08        80.95093
839.48        80.25867
839.89        79.96553
840.29        79.95942
840.70        80.13895
841.11        80.35072
841.51        80.55599
841.92        80.76582
842.33        81.02015
842.73        81.35165
843.14        81.69571
843.54        82.05043
843.95        82.32979
844.35        82.48553
844.76        82.48026
845.17        82.31149
845.57        82.08607
845.98        81.94335
846.38        81.94008
846.79        82.04546
847.19        82.10782
847.60        81.80772
848.00        81.13447
848.41        80.22616
848.81        79.39825
849.22         79.1118
849.62        79.49342
850.03        80.34744
850.43        81.45428
850.84        82.19009
851.24        82.41246
851.65        82.17104
852.05        81.67826
852.46        81.23772
852.86        80.95381
853.27        80.82223
853.67        80.66962
854.07         80.4729
854.48        80.16198
854.88        79.79421
855.29        79.42615
855.69        79.40186
856.10        79.68201
856.50        80.27077
856.90        80.82208
857.31        80.86919
857.71        80.38232
858.12        79.47061
858.52        78.51315
858.92        78.08797
859.33        78.33939
859.73        79.14097
860.13        80.19035
860.54        80.99952
860.94        81.44381
861.34        81.54719
861.75        81.37441
862.15        81.11969
862.55        80.81664
862.96        80.44566
863.36         79.8896
863.76        78.99899
864.17        77.84246
864.57        76.57418
864.97        75.49444
865.38        74.97768
865.78        75.12768
866.18        75.80013
866.58        76.82522
866.99        77.79738
867.39        78.55902
867.79        79.14946
868.19         79.4432
868.60        79.28572
869.00        78.71504
869.40        77.74678
869.80        76.82478
870.21        76.71904
870.61        77.62479
871.01         79.2777
871.41        81.02731
871.81         81.8241
872.22        81.41028
872.62        80.09374
873.02        78.43613
873.42        77.38461
873.82        77.24017
874.22        77.75961
874.63        78.52522
875.03         78.8923
875.43        78.69861
875.83        78.13666
876.23        77.61521
876.63        77.78738
877.03        78.76162
877.44        80.23474
877.84        81.68087
878.24        82.16292
878.64        81.50467
879.04        80.09367
879.44        78.48365
879.84        77.47205
880.24        77.25557
880.64        77.55507
881.04        78.20542
881.44        78.92705
881.84        79.58105
882.24        80.29994
882.65        80.84339
883.05        80.92841
883.45        80.48198
883.85        79.61252
884.25        78.78601
884.65        78.74564
885.05        79.60389
885.45        81.07856
885.85        82.75503
886.25        83.90145
886.65         84.2398
887.05        84.00327
887.45        83.21483
887.85        81.95725
888.25        80.45522
888.65        78.80366
889.04         77.3989
889.44        76.83857
889.84        77.12732
890.24         78.1531
890.64        79.56581
891.04         80.5708
891.44        80.84653
891.84        80.59894
892.24        80.11598
892.64        79.83046
893.04        79.85155
893.44        80.01552
893.83        80.29778
894.23        80.58608
894.63           80.86
895.03        81.18484
895.43        81.48013
895.83        81.60262
896.23         81.5292
896.63        81.25218
897.02         80.9304
897.42        80.89711
897.82        81.19414
898.22        81.77283
898.62        82.32064
899.01        82.32272
899.41        81.68366
899.81        80.58823
900.21        79.50792
900.61        79.16861
901.00        79.69675
901.40        80.84049
901.80        82.09098
902.20        82.60995
902.59        82.17216
902.99         81.0574
903.39        79.67554
903.79        78.63509
904.18        78.12503
904.58         78.0101
904.98        78.10702
905.38        78.14968
905.77         78.0383
906.17        77.86714
906.57        77.77857
906.96        78.00643
907.36        78.54531
907.76         79.3199
908.15        80.04942
908.55        80.16232
908.95        79.61908
909.34        78.58681
909.74        77.59023
910.14         77.2981
910.53        77.89294
910.93        79.13206
911.33          80.666
911.72        81.94106
912.12        82.67088
912.52        83.00005
912.91        83.10336
913.31        83.26408
913.70        83.56461
914.10        83.84283
914.49        83.89553
914.89        83.42664
915.29        82.44555
915.68        81.14675
916.08        79.88133
916.47        79.02847
916.87        78.75764
917.26        78.92149
917.66         79.4257
918.05         80.1303
918.45        80.87379
918.84        81.72386
919.24        82.44762
919.64        82.81113
920.03        82.76615
920.42        82.33587
920.82         81.7557
921.21        81.31413
921.61        81.11781
922.00        81.11729
922.40         81.2511
922.79        81.49133
923.19        81.76178
923.58        82.10047
923.98        82.42065
924.37        82.59078
924.77        82.57475
925.16         82.3894
925.55        82.11687
925.95        81.91159
926.34        81.84262
926.74        81.87086
927.13        81.91422
927.52        81.79494
927.92        81.49759
928.31        81.07452
928.70        80.68843
929.10        80.58075
929.49        80.79503
929.89        81.19579
930.28        81.63359
930.67        81.76485
931.07        81.49996
931.46        80.99172
931.85        80.34162
932.24        79.69446
932.64        79.14845
933.03        78.70626
933.42        78.49018
933.82        78.68777
934.21        79.33081
934.60         80.2681
934.99         81.3694
935.39        82.38894
935.78        83.25443
936.17        83.97421
936.56         84.2322
936.96        83.59718
937.35        82.12869
937.74        80.09081
938.13        78.20763
938.53        77.39616
938.92        77.76128
939.31        79.11417
939.70        80.91689
940.09        82.08005
940.49        82.19608
940.88        81.55765
941.27        80.63457
941.66        80.15948
942.05         80.3242
942.44        80.93668
942.84        81.59779
943.23        81.72883
943.62        81.12699
944.01        80.01542
944.40        78.98672
944.79        78.87758
945.18        79.82688
945.57        81.59385
945.97        83.39064
946.36        84.10561
946.75        83.33532
947.14        81.46738
947.53         79.3894
947.92        78.44263
948.31        78.95477
948.70        80.56456
949.09        82.53068
949.48        83.50729
949.87        83.07355
950.26        81.65793
950.65        80.02259
951.04        79.20903
951.43        79.46323
951.82        80.52054
952.21        81.76635
952.60        82.11724
952.99        81.29272
953.38        79.66117
953.77        78.09813
954.16        77.76141
954.55        78.85989
954.94        81.16839
955.33        83.75062
955.72        84.59739
956.11        83.08797
956.50        79.95615
956.89        76.73595
957.28        75.41371
957.66        76.40977
958.05        79.10334
958.44        82.48965
958.83        84.47354
959.22         84.2937
959.61        82.66788
960.00        80.61055
960.39        79.42315
960.78        79.36625
961.16        80.02325
961.55        80.89557
961.94        81.17828
962.33        80.60759
962.72        79.66249
963.11        78.61818
963.49        77.75959
963.88        77.19504
964.27        76.73315
964.66        76.63138
965.04        77.42384
965.43        79.03701
965.82        81.36127
966.21        83.58775
966.60        84.25528
966.98        83.09976
967.37        80.72462
967.76         78.1099
968.15        76.58018
968.53        76.40002
968.92        77.10693
969.31        78.47061
969.69        80.04235
970.08        81.44208
970.47        82.94281
970.86        84.00623
971.24        83.72993
971.63         82.0363
972.02        79.24474
972.40         76.5467
972.79        75.85181
973.17        77.45273
973.56        80.68208
973.95        84.44171
974.33        86.60649
974.72        86.39574
975.11        84.51185
975.49        81.88388
975.88        80.25484
976.26        80.10093
976.65        80.81821
977.04        81.99573
977.42        82.90041
977.81        83.07026
978.19        82.91169
978.58        82.51528
978.96        81.86372
979.35        81.09549
979.74        80.20138
980.12        79.49381
980.51        79.48798
980.89        80.36755
981.28        81.82486
981.66         83.7266
982.05        85.51481
982.43        87.04994
982.82        88.31988
983.20        89.02937
983.59         88.5853
983.97        87.03032
984.35        84.62656
984.74        82.26703
985.12        81.14093
985.51        81.43374
985.89        82.92782
986.28        84.83589
986.66        86.16994
987.04        86.40855
987.43        85.87449
987.81        84.88893
988.20        84.27113
988.58        84.19568
988.96        84.42511
989.35        84.41035
989.73         83.5705
990.12        81.77052
990.50        79.41015
990.88        77.05856
991.27        75.59219
991.65        75.21388
992.03         75.7205
992.42        76.83035
992.80        78.40129
993.18        80.18338
993.56        82.19973
993.95        84.06841
994.33        85.26048
994.71        85.47843
995.10        84.90549
995.48        83.88737
995.86        83.06512
996.24        82.65916
996.63        82.43018
997.01        82.56071
997.39        83.11158
997.77        83.98206
998.15        85.14778
998.54        86.14436
998.92        86.25026
999.30        85.31289
999.68        83.51694
1000.06        81.38285
1000.45        79.91591
1000.83        79.58307
1001.21        80.13836
1001.59        81.30468
1001.97        82.54433
1002.35        83.62394
1002.73        84.70715
1003.12        85.65725
1003.50        86.18257
1003.88        86.28712
1004.26         85.9579
1004.64        85.51033
1005.02        85.54265
1005.40        86.14391
1005.78        87.09734
1006.16        88.00734
1006.54        88.30151
1006.92        87.84795
1007.30         86.7891
1007.69        85.30515
1008.07        84.01753
1008.45        83.18838
1008.83        82.78805
1009.21         82.7016
1009.59        82.67204
1009.97        82.60022
1010.35        82.52654
1010.73        82.65149
1011.11        83.26694
1011.49        84.34739
1011.86        85.78784
1012.24        86.92685
1012.62        87.00802
1013.00        85.86374
1013.38        83.61543
1013.76        80.97018
1014.14        79.47266
1014.52        79.70176
1014.90        81.29031
1015.28         83.2193
1015.66        83.83148
1016.04         82.6959
1016.41        80.35889
1016.79        77.57513
1017.17        75.97345
1017.55        76.12073
1017.93        77.36669
1018.31        79.00993
1018.69        80.59736
1019.06        82.27228
1019.44        84.11916
1019.82        86.65599
1020.20        90.05984
1020.58        93.45602
1020.95         95.9454
1021.33        96.70731
1021.71        95.13367
1022.09        91.16862
1022.46        84.36595
1022.84        75.81085
1023.22        69.79678
1023.60        69.26547
1023.97        72.98606
1024.35        78.06699
1024.73        81.53533
