SpectraSmart Spectrum 2.9.0.0
--------- Device Information -----------
Spectrum Name :  反射率_0
Saving Time :  2024/04/30 01:17:37
Spectro-Module Model Name : SE2030-DUVN
Spectro-Module Serial Number : OS361AC55029948
Wavelength Start : 200
Wavelength End : 1025
Wavelength Unit : Wavelength(nm)
Spectrum Unit : Reflectance(%)
-----------Spectrum Setting ------------
Integration Time : 20ms
Average : 10
Boxcar : 0
Background removal :  enabled
linearity correction :  enabled
SC :  disabled
Intensity correction :  disabled
DWT denoise :  enabled
savitzky-golay :  disabled
FFT :  disabled
Running average :  disabled
Kalman :  disabled
High pass :  disabled
---------------BEGIN--------------------
Wavelength(nm)             Reflectance(%)
200.29               0
200.75        48.40132
201.21         35.2415
201.67        19.33771
202.13        8.401257
202.58        6.048481
203.04        11.42325
203.50         23.7124
203.96        39.95747
204.42        56.73486
204.88         72.7291
205.34        83.28045
205.80        83.21523
206.26        75.07359
206.72        63.99939
207.18        53.17163
207.64        43.66132
208.10        34.86768
208.55        25.64331
209.01        17.85371
209.47        16.97172
209.93        23.27122
210.39        33.41627
210.85        42.46981
211.31        46.64327
211.77        45.94665
212.23        40.47067
212.69         31.5698
213.14        27.71582
213.60        32.60624
214.06        41.62938
214.52        49.02224
214.98        51.01671
215.44        48.41306
215.90        43.03563
216.36        37.02809
216.81        34.44786
217.27        37.61446
217.73        46.15624
218.19         60.1412
218.65        74.09751
219.11        81.32732
219.57        81.85923
220.02        78.60606
220.48        74.86003
220.94        70.53207
221.40         64.3591
221.86         55.7181
222.32        47.34944
222.77        42.76532
223.23        41.99887
223.69        42.92375
224.15        43.88055
224.61        44.62104
225.06        45.43131
225.52        46.47538
225.98        47.40395
226.44        47.99087
226.90        48.24334
227.36         48.2507
227.81        48.15083
228.27        48.03785
228.73        47.83623
229.19        47.84394
229.65        48.50232
230.10        49.67382
230.56        51.13005
231.02        52.27355
231.48         52.6692
231.93         52.3187
232.39        51.39417
232.85        50.40982
233.31        50.39508
233.77        51.59547
234.22        53.89699
234.68        56.16455
235.14        56.35685
235.60          54.159
236.05        50.40918
236.51        46.93814
236.97        46.08758
237.43        48.46977
237.88        54.06002
238.34         62.1386
238.80        69.56614
239.26        73.46223
239.71        74.09433
240.17        72.46793
240.63        70.86825
241.08        70.14113
241.54        69.21386
242.00        68.47103
242.46        69.74659
242.91        74.49902
243.37        81.99521
243.83        89.00056
244.28        92.61189
244.74        92.74302
245.20        89.32708
245.66        83.56524
246.11         79.1787
246.57        78.26299
247.03         80.4879
247.48        83.68796
247.94        82.72116
248.40        78.02549
248.85        72.68022
249.31        69.49409
249.77        69.07678
250.22        71.42422
250.68        77.00114
251.14        86.26137
251.59        93.45708
252.05        92.83297
252.51        88.11308
252.96        84.02674
253.42        83.34576
253.88        85.05358
254.33        88.06402
254.79        91.11063
255.25        91.02239
255.70        87.78796
256.16         84.2221
256.62        81.56965
257.07        80.39684
257.53        80.82463
257.99         82.0617
258.44        83.16643
258.90        83.66447
259.35        83.01538
259.81        82.09653
260.27         81.2067
260.72        80.64567
261.18        80.61021
261.63        80.52338
262.09         80.2064
262.55        78.98499
263.00          76.906
263.46        74.65476
263.91        72.44711
264.37        70.94684
264.83        70.02941
265.28         69.3866
265.74        68.98067
266.19        68.46627
266.65        67.85555
267.11        67.19539
267.56        66.42612
268.02        65.48421
268.47        64.32537
268.93        62.97174
269.38        61.54562
269.84         60.4021
270.30        59.62025
270.75        59.10222
271.21        58.67104
271.66        57.98065
272.12        56.96588
272.57        55.68012
273.03        54.29132
273.48        52.97047
273.94        51.86495
274.39        50.86825
274.85        49.97717
275.31        49.05742
275.76        48.06044
276.22        47.08964
276.67        46.15744
277.13        45.41748
277.58        44.81139
278.04        44.33604
278.49        43.84349
278.95         43.2653
279.40         42.5269
279.86        41.75611
280.31        40.95383
280.77        40.27624
281.22        39.70429
281.68        39.24028
282.13        38.85854
282.59        38.60817
283.04        38.43348
283.50        38.33038
283.95        38.18097
284.41        37.84359
284.86        37.29078
285.32        36.63757
285.77         35.9604
286.22         35.4622
286.68         35.1945
287.13        35.04899
287.59        35.01568
288.04        35.00384
288.50        34.99728
288.95        34.97919
289.41        34.92619
289.86        34.73935
290.32        34.45109
290.77        34.09552
291.22        33.75733
291.68        33.56911
292.13         33.5621
292.59        33.72991
293.04        34.08904
293.50        34.70241
293.95        35.54288
294.40         36.5933
294.86        37.70443
295.31        38.65359
295.77        39.38498
296.22        39.93965
296.68        40.46367
297.13        41.17135
297.58        42.11542
298.04        43.18659
298.49        44.26288
298.95        45.16547
299.40        45.83673
299.85        46.35245
300.31        46.77261
300.76        47.11244
301.21        47.43634
301.67        47.75578
302.12        48.09306
302.58        48.62909
303.03        49.35176
303.48        50.12672
303.94        50.85509
304.39        51.86414
304.84         52.2651
305.30         52.7766
305.75         53.1649
306.20         53.5459
306.66        53.94997
307.11        54.32185
307.57        54.64996
308.02        54.81683
308.47        54.83896
308.93         54.7609
309.38        54.64702
309.83        54.65882
310.29        54.82759
310.74        55.09936
311.19        55.35049
311.65        55.37815
312.10        55.13956
312.55        54.71338
313.00        54.26905
313.46        54.07005
313.91        54.15551
314.36        54.43838
314.82        54.75462
315.27        54.86521
315.72        54.68943
316.18         54.3145
316.63        53.82753
317.08        53.37737
317.53        53.02779
317.99        52.75163
318.44        52.52479
318.89        52.32035
319.35        52.12287
319.80         51.9387
320.25        51.80105
320.70        51.75524
321.16        51.77832
321.61        51.86698
322.06        51.89475
322.51        51.67714
322.97        51.18327
323.42        50.48304
323.87        49.73676
324.32        49.20446
324.78        48.93549
325.23        48.88351
325.68        48.90733
326.13        48.76778
326.59        48.39021
327.04        47.87226
327.49         47.3133
327.94        46.89345
328.39        46.65283
328.85        46.49519
329.30        46.38291
329.75        46.17848
330.20        45.84541
330.66        45.44532
331.11        45.00066
331.56        44.49894
332.01        43.96476
332.46        43.39511
332.92        42.88692
333.37        42.67317
333.82        42.77517
334.27        43.12569
334.72        43.54326
335.17        43.71559
335.63        43.54173
336.08        43.12683
336.53        42.56783
336.98        42.07004
337.43        41.72047
337.88        41.45938
338.34        41.29718
338.79        41.27046
339.24        41.35484
339.69        41.55662
340.14        41.76982
340.59        41.80421
341.05        41.62354
341.50         41.2763
341.95        40.88181
342.40         40.6492
342.85        40.62181
343.30        40.71703
343.75        40.84848
344.20         40.8778
344.66        40.77144
345.11         40.5854
345.56        40.31997
346.01        39.96819
346.46        39.56563
346.91        39.12218
347.36        38.75703
347.81        38.65095
348.26        38.81866
348.72        39.19487
349.17        39.62263
349.62         39.8204
350.07        39.71061
350.52        39.38026
350.97        38.95555
351.42        38.63122
351.87        38.47052
352.32         38.4212
352.77        38.44659
353.22         38.4903
353.67        38.52373
354.13        38.55749
354.58         38.5988
355.03        38.65247
355.48        38.70449
355.93        38.73459
356.38         38.6883
356.83        38.49265
357.28        38.14761
357.73        37.69157
358.18        37.20797
358.63        36.82539
359.08        36.57859
359.53         36.4338
359.98         36.3436
360.43        36.22679
360.88        36.05645
361.33         35.8587
361.78        35.64412
362.23        35.42745
362.68        35.21784
363.13        35.00799
363.58        34.80503
364.03         34.6245
364.48        34.46819
364.93        34.33052
365.38        34.20663
365.83        34.08893
366.28        33.96899
366.73         33.8418
367.18        33.69487
367.63        33.50879
368.08        33.28152
368.53        33.02556
368.98         32.7503
369.43        32.47034
369.88        32.20084
370.33        31.94649
370.78        31.73113
371.23        31.59156
371.68        31.52755
372.13        31.51626
372.58        31.52158
373.03        31.48614
373.48        31.38369
373.93        31.22141
374.38        30.99237
374.83        30.69453
375.28        30.34891
375.72        29.96576
376.17        29.61028
376.62        29.31796
377.07        29.09725
377.52        28.93266
377.97        28.82673
378.42        28.78115
378.87        28.78261
379.32        28.82243
379.77        28.84817
380.22        28.78297
380.67        28.61397
381.11         28.3609
381.56        28.08343
382.01        27.88545
382.46         27.7995
382.91        27.80052
383.36        27.83747
383.81        27.83063
384.26        27.75633
384.71        27.63084
385.15        27.48645
385.60        27.40437
386.05        27.38218
386.50        27.39267
386.95        27.37434
387.40        27.23611
387.85        26.97752
388.29        26.63363
388.74        26.31673
389.19        26.09712
389.64        25.98911
390.09         25.9524
390.54         25.9708
390.98        26.01248
391.43        26.06373
391.88        26.12648
392.33          26.145
392.78        26.06662
393.23        25.89778
393.67        25.60187
394.12        25.28143
394.57        25.25372
395.02        25.17022
395.47        25.28451
395.91        25.42046
396.36        25.45011
396.81        25.34801
397.26        25.16542
397.71        24.95354
398.15        24.77697
398.60        24.68684
399.05        24.60069
399.50        24.51568
399.95        24.53833
400.39        24.53407
400.84        24.49983
401.29        24.38457
401.74        24.24744
402.18        24.09753
402.63        23.88336
403.08        23.68063
403.53        23.62217
403.97         23.7203
404.42        23.92983
404.87        24.15154
405.32        24.22433
405.76        24.10403
406.21        23.85052
406.66        23.54699
407.11        23.32742
407.55        23.23654
408.00        23.23218
408.45        23.26553
408.90        23.24528
409.34        23.14642
409.79         23.0046
410.24        22.88253
410.68        22.86772
411.13         22.9756
411.58        23.17042
412.03        23.37516
412.47        23.46634
412.92        23.39688
413.37        23.21526
413.81         22.9907
414.26        22.85982
414.71        22.83727
415.15        22.89247
415.60        22.96154
416.05        22.96101
416.49        22.87044
416.94        22.72533
417.39         22.5676
417.83        22.45595
418.28        22.41138
418.73        22.40428
419.17        22.42475
419.62        22.46194
420.07        22.50152
420.51        22.54425
420.96        22.56368
421.41        22.50623
421.85        22.36406
422.30        22.17917
422.74        21.98721
423.19        21.87685
423.64         21.8546
424.08        21.90599
424.53        21.98748
424.98        22.05555
425.42         22.0954
425.87        22.10522
426.31        22.08243
426.76        22.05757
427.21        21.96322
427.65        21.82945
428.10        21.68089
428.54          21.531
428.99        21.40772
429.44        21.45372
429.88        21.57338
430.33        21.33695
430.77        20.89039
431.22        20.94591
431.66        21.45941
432.11        21.72579
432.56        21.65218
433.00        21.64188
433.45        21.67996
433.89        21.42092
434.34        21.02495
434.78        21.00681
435.23        21.28877
435.67         21.3261
436.12        21.09985
436.57        20.91405
437.01        20.82845
437.46        20.80907
437.90         20.8661
438.35        20.99999
438.79        21.15165
439.24        21.19234
439.68        21.12901
440.13        21.08187
440.57        21.03976
441.02        20.99204
441.46        20.95267
441.91         20.7778
442.35        20.54782
442.80         20.8228
443.24        21.40767
443.69        21.28141
444.13        20.55734
444.58        20.27669
445.02        20.45386
445.47        20.53964
445.91        20.49221
446.36        20.51383
446.80        20.58729
447.24        20.66664
447.69        20.73297
448.13        20.75432
448.58        20.72863
449.02        20.66453
449.47        20.60069
449.91        20.58405
450.36        20.62837
450.80        20.71885
451.25        20.81516
451.69        20.84661
452.13        20.79742
452.58        20.69657
453.02        20.58549
453.47        20.52761
453.91        20.53166
454.36        20.63387
454.80        20.69034
455.24        20.71064
455.69        20.65498
456.13        20.54624
456.58        20.43072
457.02        20.35862
457.46        20.34973
457.91        20.38553
458.35        20.43877
458.79        20.48109
459.24        20.51404
459.68        20.55532
460.13        20.61468
460.57        20.61479
461.01        20.71203
461.46         20.6964
461.90         20.6443
462.34        20.79947
462.79        21.06871
463.23        21.00443
463.68        20.65999
464.12        20.49941
464.56        20.54813
465.01         20.5849
465.45        20.57383
465.89        20.55212
466.34        20.54992
466.78        20.65219
467.22        20.88094
467.67        20.93469
468.11        20.81366
468.55        20.62804
468.99        20.45263
469.44        20.35191
469.88        20.34999
470.32         20.4378
470.77        20.55461
471.21        20.61467
471.65        20.59004
472.10         20.5173
472.54        20.44515
472.98        20.46692
473.42        20.59722
473.87        20.79696
474.31         21.0024
474.75        21.12519
475.20        21.14877
475.64        21.09656
476.08        21.01192
476.52        20.95624
476.97        20.95032
477.41        20.97354
477.85        21.01895
478.29        21.07302
478.74         21.1335
479.18          21.196
479.62        21.26298
480.06        21.33331
480.50        21.40818
480.95        21.38978
481.39        21.62982
481.83        21.45562
482.27        21.76715
482.72        21.77663
483.16        21.96766
483.60        22.07796
484.04        22.17051
484.48         22.2829
484.93        22.43744
485.37        22.51585
485.81        22.49431
486.25         22.7713
486.69        22.58641
487.14        22.65917
487.58        22.97171
488.02        23.05177
488.46        23.68656
488.90        23.80715
489.34        23.14381
489.79        23.19653
490.23        23.48595
490.67        23.85912
491.11         24.0973
491.55        24.08889
491.99        23.92158
492.43        24.00173
492.88        24.35472
493.32        24.69196
493.76        24.94433
494.20        25.17951
494.64        25.38349
495.08        25.52156
495.52        25.61003
495.96        25.72458
496.41        25.88393
496.85        25.98903
497.29        26.03336
497.73        26.30733
498.17        26.45966
498.61        26.50121
499.05        26.38412
499.49        26.36704
499.93        26.49502
500.37        26.73298
500.82        27.02234
501.26        27.22426
501.70        27.31266
502.14        27.36753
502.58        27.42895
503.02        27.52634
503.46        27.67449
503.90        27.86222
504.34        28.06191
504.78        28.22745
505.22        28.34304
505.66        28.41704
506.10        28.45575
506.54        28.50316
506.98        28.57328
507.42        28.59532
507.86        28.54766
508.30        28.72087
508.74        28.59148
509.18        28.59087
509.62        28.58091
510.06        28.60002
510.50        28.65147
510.94        28.73497
511.38        28.83582
511.82        28.91445
512.26        28.96099
512.70        28.98168
513.14        28.99804
513.58        29.04453
514.02        29.12782
514.46         29.2375
514.90        29.34228
515.34        29.39275
515.78        29.37827
516.22        29.31293
516.66         29.2383
517.10        29.21918
517.54        29.26766
517.98        29.36257
518.42        29.45672
518.86        29.47354
519.30        29.39756
519.74        29.25846
520.18        29.10327
520.62        29.00186
521.06        28.97575
521.50        29.00721
521.93        29.07229
522.37        29.12215
522.81        29.14252
523.25         29.1413
523.69        29.13779
524.13        29.15492
524.57         29.1927
525.01        29.25043
525.45         29.2948
525.89        29.20746
526.32        29.08726
526.76        28.87811
527.20        28.66185
527.64        28.51124
528.08        28.44487
528.52        28.44121
528.96        28.46249
529.40        28.44958
529.83         28.3844
530.27        28.28953
530.71        28.18773
531.15         28.1179
531.59        28.08852
532.03        28.08209
532.46        28.07815
532.90        28.05668
533.34        28.01078
533.78        27.95548
534.22        27.89665
534.66        27.84166
535.09        27.79169
535.53        27.74679
535.97        27.71832
536.41        27.73262
536.85        27.78902
537.28        27.87881
537.72        27.96141
538.16        27.97295
538.60        27.90471
539.04        27.78314
539.47        27.65219
539.91        27.60458
540.35         27.6536
540.79        27.78027
541.22        27.94945
541.66         28.1086
542.10        28.23652
542.54        28.34797
542.97        28.46023
543.41         28.6048
543.85        28.78487
544.29        28.99177
544.72        29.18525
545.16        29.32518
545.60        29.40325
546.04        29.42353
546.47        29.44187
546.91        29.59133
547.35        29.86772
547.79        30.14319
548.22        30.35978
548.66        30.59354
549.10        30.83791
549.53        30.94557
549.97        30.89831
550.41        31.30493
550.84        31.23954
551.28        31.39677
551.72        31.48093
552.15        31.74307
552.59        31.78344
553.03        31.92626
553.46        32.06164
553.90        32.19283
554.34        32.31263
554.77         32.4555
555.21         32.6076
555.65        32.66228
556.08        32.64573
556.52        32.71962
556.96        32.88182
557.39        33.04874
557.83        33.20581
558.27         33.3331
558.70        33.43732
559.14         33.5589
559.57        33.67281
560.01         33.7696
560.45        33.83436
560.88         33.7229
561.32        33.64948
561.75        33.65719
562.19        33.79971
562.63        33.85751
563.06        33.80959
563.50        34.01247
563.93        34.02559
564.37        34.14333
564.80        34.22628
565.24        34.30193
565.68        34.37282
566.11        34.47596
566.55        34.61771
566.98          34.731
567.42        34.84838
567.85        34.95288
568.29        35.04815
568.72        35.24175
569.16        35.58195
569.60        35.38912
570.03        35.75434
570.47        35.91387
570.90        36.04254
571.34        36.14684
571.77        36.33587
572.21        36.51297
572.64        36.67255
573.08        36.76279
573.51        36.82446
573.95        36.90805
574.38        36.94973
574.82        37.15524
575.25        37.25381
575.69        37.09953
576.12         36.6849
576.56        37.00504
576.99        37.07454
577.42         37.1278
577.86        37.08265
578.29        36.93916
578.73        37.16811
579.16        36.98365
579.60        37.04654
580.03         36.8207
580.47        37.07988
580.90        36.90598
581.33        36.47747
581.77        36.77355
582.20        36.48966
582.64        36.32279
583.07        36.00655
583.51        35.77434
583.94        35.78899
584.37        35.59082
584.81        35.30045
585.24        35.46116
585.68        35.68407
586.11        35.95544
586.54        35.00447
586.98        35.05644
587.41         35.6248
587.85        35.69917
588.28        35.33503
588.71        35.75075
589.15        35.24259
589.58        35.45534
590.01        35.06981
590.45        35.03875
590.88        35.14124
591.31        35.27111
591.75        35.35284
592.18        35.39432
592.61        35.49096
593.05        35.00163
593.48        35.37805
593.91        35.61982
594.35         35.0183
594.78         35.1194
595.21         35.5699
595.65        35.61606
596.08        35.28734
596.51        35.79618
596.94        36.18898
597.38        36.59138
597.81        36.65955
598.24        36.65469
598.68        36.87511
599.11        37.00051
599.54        37.34796
599.97        37.80298
600.41        37.50858
600.84         37.9226
601.27        38.19616
601.70        38.72363
602.14        39.20224
602.57        39.36713
603.00        39.31659
603.43         39.5454
603.87         39.9025
604.30        40.68417
604.73        40.78902
605.16        40.86779
605.60        41.45658
606.03        41.74003
606.46        41.92752
606.89         42.2279
607.32        42.51022
607.76         42.8173
608.19        43.11991
608.62        43.35131
609.05        43.66291
609.48        44.02155
609.92        44.33453
610.35        44.33294
610.78        44.93438
611.21        44.73189
611.64        45.05749
612.07        45.21138
612.50        45.50555
612.94         45.6801
613.37        46.15639
613.80        46.13971
614.23         46.6321
614.66        46.80677
615.09        46.92173
615.52        47.03525
615.96        47.16534
616.39        47.18214
616.82        47.08804
617.25        47.47122
617.68        47.44339
618.11        47.77934
618.54        48.09934
618.97        48.30584
619.40        48.05955
619.84         48.1224
620.27        48.43428
620.70        48.77088
621.13        49.01344
621.56        49.11273
621.99        48.91974
622.42        48.86047
622.85        48.94773
623.28        48.76827
623.71        49.39498
624.14        48.71998
624.57        49.17776
625.00        49.12113
625.43        49.22227
625.86        48.77006
626.29        48.74845
626.72        48.73265
627.15        48.53627
627.58        48.55359
628.01        48.57395
628.44        48.42459
628.87        48.18668
629.30        47.80402
629.73        48.16924
630.16        48.08997
630.59        47.80915
631.02        47.66609
631.45        47.45753
631.88        47.24102
632.31         46.9441
632.74        46.61625
633.17        46.26239
633.60        45.89835
634.03        45.53611
634.46        45.16617
634.89         44.8074
635.32        44.49488
635.75        44.23163
636.18         44.0047
636.61        43.78414
637.04        43.52828
637.47        43.23546
637.89        42.88964
638.32        42.49734
638.75        42.20124
639.18        42.03693
639.61        41.55875
640.04        41.50992
640.47        41.26973
640.90        41.05703
641.33        40.87003
641.76        40.70744
642.18        40.55488
642.61        40.39367
643.04        40.23386
643.47        40.11415
643.90        40.08304
644.33        40.14201
644.76        40.32884
645.18         40.5558
645.61        40.56786
646.04        40.30858
646.47        40.28068
646.90          40.473
647.33        40.59874
647.75        40.65265
648.18        40.83257
648.61        41.11816
649.04         41.3751
649.47        41.60106
649.89        41.86023
650.32        42.13557
650.75         42.4492
651.18        42.80933
651.61        43.10001
652.03        43.38925
652.46        43.97672
652.89        44.68299
653.32         44.9578
653.74        44.98732
654.17        44.61279
654.60        45.19967
655.03        46.16117
655.46         45.5302
655.88         46.2412
656.31         48.8697
656.74        48.95317
657.16        48.13636
657.59        47.02383
658.02        47.20669
658.45        48.23989
658.87        48.30457
659.30        48.26263
659.73        48.92664
660.15        49.37773
660.58        49.11407
661.01        49.27788
661.44        49.62122
661.86         49.7313
662.29        49.64343
662.72        49.82832
663.14        50.24601
663.57        50.30317
664.00        50.08139
664.42        50.10989
664.85        50.43249
665.27        50.76335
665.70        51.02682
666.13        51.24273
666.55        51.39236
666.98        51.47209
667.41        51.50565
667.83        51.52527
668.26        51.54047
668.69        51.54667
669.11        51.57095
669.54        51.64583
669.96        51.77205
670.39        51.98582
670.82        52.22388
671.24        52.27694
671.67        52.17019
672.09        52.17957
672.52        52.33094
672.94        52.50037
673.37        52.28683
673.80        52.73697
674.22        52.67642
674.65        52.91605
675.07         53.1409
675.50        53.38233
675.92        53.59437
676.35        53.71389
676.77        53.75068
677.20        53.65141
677.62        53.50745
678.05        53.60092
678.47         53.8923
678.90        54.04166
679.32        54.02768
679.75         54.0877
680.17        54.21087
680.60        54.25595
681.02         54.2272
681.45         54.2085
681.87        54.21175
682.30        54.22131
682.72        54.27322
683.15        54.32749
683.57        54.39679
684.00        54.71357
684.42        54.88456
684.85        55.06625
685.27        55.13387
685.70        55.12243
686.12        55.08906
686.54        55.21596
686.97        55.47844
687.39         55.7436
687.82        55.91677
688.24        55.99688
688.66         55.9573
689.09         55.7742
689.51        55.52292
689.94        55.35238
690.36        55.29908
690.78        55.32788
691.21          55.411
691.63        55.50828
692.06        55.59856
692.48        55.69571
692.90         55.7984
693.33        55.90056
693.75        55.99947
694.17        56.08193
694.60        56.15394
695.02        56.20251
695.44        56.21754
695.87        56.30869
696.29        56.47691
696.71        56.30265
697.14          56.234
697.56        56.34783
697.98        56.69454
698.41        56.86102
698.83        56.81723
699.25        56.78455
699.68        56.77996
700.10        56.79018
700.52        56.81689
700.94        56.87029
701.37        56.91593
701.79        56.93774
702.21        56.88788
702.64         56.8142
703.06        56.75237
703.48        56.78342
703.90        56.92281
704.33        57.15461
704.75        57.39085
705.17        57.54907
705.59        57.58594
706.01        57.52209
706.44         57.4195
706.86        57.42005
707.28        57.52687
707.70        57.62887
708.12        57.72209
708.55        57.84935
708.97        57.94656
709.39        58.12323
709.81        57.86544
710.23        57.89449
710.66        58.06361
711.08        58.25187
711.50        58.40802
711.92        58.54965
712.34        58.66884
712.76        58.76048
713.19        58.80463
713.61        58.80471
714.03        58.75198
714.45        58.65728
714.87        58.57155
715.29        58.57155
715.71        58.67123
716.13        58.84324
716.56        59.01445
716.98        59.14968
717.40        59.20227
717.82        59.11084
718.24        59.05881
718.66        58.98694
719.08        58.95874
719.50        58.94974
719.92        58.95355
720.34        58.95708
720.76        58.95436
721.19        58.95292
721.61        58.95441
722.03        58.93484
722.45        58.89262
722.87         58.8292
723.29        58.77455
723.71        58.77849
724.13        58.84972
724.55        58.97583
724.97          59.111
725.39        59.17799
725.81        59.16307
726.23        59.09293
726.65        59.01922
727.07        59.02782
727.49        59.13308
727.91        59.29269
728.33        59.47054
728.75        59.60517
729.17        59.67399
729.59        59.71162
730.01        59.69162
730.43        59.57036
730.85        59.36489
731.27        59.09486
731.69        58.88428
732.10        58.93019
732.52        59.26105
732.94         59.8195
733.36        60.43986
733.78        60.82825
734.20        60.89461
734.62        60.69449
735.04        60.38198
735.46        60.26327
735.88        60.37173
736.30        60.48515
736.72        60.54066
737.13        60.58479
737.55        60.51239
737.97        60.33325
738.39         59.9889
738.81        59.61044
739.23        59.32947
739.65        59.68861
740.06        60.44725
740.48        60.74551
740.90        60.49133
741.32        60.12974
741.74        59.83177
742.16        59.69324
742.57        59.78973
742.99        60.06774
743.41        60.41004
743.83         60.6274
744.25        60.66655
744.67        60.57044
745.08        60.42814
745.50        60.38649
745.92        60.48763
746.34        60.65647
746.75        60.84217
747.17        60.97747
747.59        61.04086
748.01        61.07454
748.42        61.07234
748.84        61.00063
749.26        60.89787
749.68         60.7408
750.09        60.58121
750.51        60.68139
750.93        60.94556
751.35        60.93386
751.76        60.69558
752.18        60.65263
752.60        60.81726
753.01        60.98417
753.43        61.09997
753.85        60.99137
754.27         61.0373
754.68        60.94226
755.10        60.86006
755.52        60.84636
755.93        60.90162
756.35        60.98531
756.77        61.11557
757.18        61.26186
757.60          61.402
758.02        61.74598
758.43        62.11815
758.85        61.78341
759.26        60.94696
759.68        60.72595
760.10        61.13572
760.51         61.3383
760.93         61.2742
761.34        61.33849
761.76        61.47421
762.18        61.52509
762.59        61.44498
763.01        60.98424
763.42        60.33822
763.84        60.08732
764.26        60.32699
764.67        60.61911
765.09        60.87487
765.50        61.38696
765.92        62.00898
766.33        61.74269
766.75        61.20098
767.16        61.07216
767.58        61.13481
768.00        61.15881
768.41         61.0403
768.83        61.34381
769.24        61.87088
769.66        61.92559
770.07        61.54354
770.49        61.20241
770.90         61.0503
771.32        61.25006
771.73        61.70441
772.15        61.83562
772.56        61.59921
772.97        61.56144
773.39        61.37179
773.80        61.41709
774.22        61.56123
774.63        61.84634
775.05        62.12544
775.46        62.24628
775.88        62.14656
776.29        61.90599
776.70        61.61216
777.12        61.43544
777.53         61.4217
777.95        61.48928
778.36        61.62099
778.77        61.76569
779.19        61.91477
779.60        62.15865
780.02        62.35757
780.43        62.39215
780.84        62.35239
781.26         61.8013
781.67        61.73563
782.09        62.32502
782.50        63.48787
782.91        63.46803
783.33        62.54577
783.74        62.08496
784.15        62.21994
784.57        62.03688
784.98        61.58248
785.39         61.3916
785.81        61.50467
786.22        61.77097
786.63        62.14386
787.04        62.54684
787.46        62.93024
787.87         63.2892
788.28        63.59365
788.70        63.77441
789.11        63.81149
789.52        63.77093
789.93        63.65968
790.35        63.41005
790.76        63.09863
791.17        62.92151
791.58        62.91584
792.00        62.92378
792.41         62.9495
792.82        63.16187
793.23        63.49516
793.65        63.56643
794.06        63.44826
794.47        63.64988
794.88        64.05675
795.29        64.11228
795.71        63.77056
796.12        63.35109
796.53         63.0155
796.94        62.93663
797.35        63.18532
797.76        63.71538
798.18        64.31263
798.59        64.65985
799.00        64.65221
799.41        64.39028
799.82        64.00948
800.23        63.74629
800.64        63.68266
801.06        63.71835
801.47        63.85579
801.88        64.03223
802.29        64.21051
802.70        64.40174
803.11        64.55609
803.52        64.60471
803.93        64.52584
804.34        64.28271
804.75        63.95786
805.17        63.78393
805.58        63.83886
805.99        63.92853
806.40        64.01644
806.81        64.30407
807.22        64.64639
807.63        64.49435
808.04        63.96227
808.45        63.76225
808.86         63.9759
809.27        64.22878
809.68         64.4099
810.09        64.50688
810.50        64.47897
810.91        64.32704
811.32        64.16521
811.73        64.17499
812.14        64.39225
812.55         64.7683
812.96        65.15527
813.37         65.2824
813.78        65.08853
814.19        64.68233
814.60        64.23503
815.01        63.98474
815.42        63.98824
815.83        64.17027
816.24        64.46087
816.65        64.71823
817.05        64.87013
817.46         64.9223
817.87        64.89666
818.28        64.77433
818.69        64.57207
819.10        64.29743
819.51        64.01227
819.92        63.84494
820.33        63.83714
820.74        63.94772
821.14        64.15064
821.55        64.40655
821.96        64.67705
822.37        64.97635
822.78         65.2093
823.19        65.21073
823.60        64.94767
824.00        64.46069
824.41        63.91445
824.82        63.60062
825.23        63.58694
825.64        63.81899
826.04        64.14581
826.45        64.22668
826.86        63.99968
827.27        63.57094
827.68        63.13835
828.08        63.03221
828.49        63.29038
828.90        63.84172
829.31         64.5228
829.72        65.05531
830.12        65.36475
830.53         65.4459
830.94        65.44695
831.35        65.58289
831.75        65.92168
832.16        66.32469
832.57        66.65149
832.97        66.64246
833.38        66.25807
833.79        65.65391
834.20        65.00442
834.60        64.53143
835.01        64.33264
835.42        64.32723
835.82        64.53254
836.23        64.90964
836.64        65.42975
837.04        66.11295
837.45        66.74036
837.86        67.09402
838.26        67.10317
838.67        66.81635
839.08        66.36732
839.48        65.96525
839.89        65.72263
840.29        65.58807
840.70        65.54242
841.11        65.56086
841.51        65.64967
841.92        65.79779
842.33         66.0005
842.73        66.22177
843.14        66.39243
843.54        66.53178
843.95        66.63171
844.35        66.74616
844.76         66.8556
845.17        66.92406
845.57        66.93542
845.98        66.83891
846.38        66.64755
846.79        66.39223
847.19        66.06641
847.60        65.61922
848.00        65.09798
848.41         64.5482
848.81        64.13578
849.22         64.0924
849.62        64.47911
850.03         65.1851
850.43        66.05305
850.84        66.62074
851.24        66.78884
851.65        66.56702
852.05        66.14694
852.46        65.81585
852.86        65.65623
853.27        65.64853
853.67        65.59711
854.07         65.3896
854.48        64.96411
854.88         64.3852
855.29        63.77167
855.69        63.53636
856.10        63.71712
856.50         64.2847
856.90        64.90113
857.31        65.08844
857.71         64.7938
858.12        64.12331
858.52        63.38784
858.92        63.07098
859.33         63.2849
859.73        63.90476
860.13        64.67977
860.54        65.21325
860.94        65.41545
861.34        65.33691
861.75        65.02827
862.15        64.62539
862.55        64.17969
862.96        63.68878
863.36        63.15824
863.76        62.61964
864.17        62.12043
864.57        61.71039
864.97        61.45647
865.38          61.409
865.78        61.59025
866.18        61.93846
866.58        62.41382
866.99        62.91014
867.39        63.38552
867.79        63.81752
868.19        64.06465
868.60        63.92853
869.00        63.41937
869.40        62.60408
869.80        61.81953
870.21        61.63563
870.61        62.21458
871.01        63.33757
871.41        64.57687
871.81         65.2485
872.22        65.16351
872.62        64.51827
873.02        63.59812
873.42        62.89049
873.82        62.58151
874.22        62.56796
874.63        62.69917
875.03        62.74864
875.43         62.6606
875.83         62.5157
876.23        62.51159
876.63        62.95031
877.03        63.84432
877.44        65.00035
877.84        66.10589
878.24        66.57456
878.64        66.29087
879.04        65.49065
879.44        64.48129
879.84        63.71578
880.24         63.3241
880.64        63.14976
881.04        63.20633
881.44        63.50291
881.84        63.99458
882.24         64.7301
882.65        65.38249
883.05        65.49512
883.45        64.94117
883.85        63.88567
884.25        62.83901
884.65        62.59026
885.05        63.27078
885.45        64.59579
885.85        66.11792
886.25        67.05988
886.65        67.15458
887.05        66.65813
887.45        65.71961
887.85        64.62092
888.25        63.57875
888.65        62.56187
889.04        61.77439
889.44        61.54261
889.84         61.8453
890.24        62.65021
890.64        63.67476
891.04         64.2867
891.44        64.26649
891.84        63.78678
892.24         63.1827
892.64        62.93643
893.04        63.14581
893.44        63.65474
893.83        64.30831
894.23        64.76798
894.63        64.94666
895.03        64.95765
895.43        64.89891
895.83        64.91235
896.23        65.03202
896.63        65.16972
897.02        65.27879
897.42        65.36655
897.82        65.39181
898.22        65.39887
898.62        65.30789
899.01        64.98663
899.41        64.43385
899.81        63.71857
900.21        63.06378
900.61        62.80729
901.00        63.00547
901.40        63.56012
901.80        64.20625
902.20        64.50439
902.59        64.33293
902.99        63.80614
903.39        63.16194
903.79        62.75788
904.18         62.6858
904.58        62.87152
904.98        63.11987
905.38        63.14211
905.77        62.86053
906.17        62.37022
906.57         61.9057
906.96        61.85859
907.36        62.26868
907.76        63.03074
908.15        63.80651
908.55        63.91842
908.95        63.29258
909.34        62.15125
909.74        61.02498
910.14        60.59439
910.53        61.05352
910.93        62.13601
911.33        63.55963
911.72        64.88263
912.12         65.8391
912.52        66.54945
912.91        67.03415
913.31        67.32546
913.70         67.4484
914.10        67.32722
914.49        66.96931
914.89         66.3966
915.29        65.68091
915.68         64.8948
916.08        64.20374
916.47        63.71379
916.87         63.5054
917.26        63.50524
917.66        63.70022
918.05        64.07021
918.45        64.51923
918.84        65.08098
919.24        65.51894
919.64        65.57551
920.03         65.2189
920.42        64.52137
920.82        63.77947
921.21        63.36515
921.61         63.3869
922.00        63.75016
922.40        64.30297
922.79        64.84807
923.19        65.25422
923.58        65.58736
923.98        65.81632
924.37        65.91644
924.77        65.87938
925.16         65.6861
925.55        65.39724
925.95        65.13348
926.34         64.9594
926.74        64.87728
927.13        64.80939
927.52        64.57928
927.92         64.1787
928.31        63.64244
928.70        63.18549
929.10        63.13771
929.49        63.54117
929.89        64.25401
930.28        64.98112
930.67        65.15512
931.07        64.64733
931.46         63.6923
931.85        62.59214
932.24        61.79283
932.64        61.44907
933.03        61.45232
933.42        61.75985
933.82        62.27426
934.21        62.92017
934.60        63.65365
934.99        64.41573
935.39        65.08968
935.78        65.65355
936.17        66.06808
936.56        66.10826
936.96        65.48568
937.35        64.26841
937.74        62.68048
938.13        61.22916
938.53        60.53438
938.92        60.66674
939.31        61.48634
939.70        62.67689
940.09        63.58819
940.49        63.92728
940.88        63.84204
941.27        63.51131
941.66        63.24247
942.05        63.14096
942.44        63.14668
942.84        63.09024
943.23        62.77977
943.62        62.17026
944.01        61.34348
944.40        60.71854
944.79        60.88007
945.18        61.89045
945.57        63.59646
945.97        65.25175
946.36        65.78303
946.75        64.83109
947.14        62.75096
947.53        60.47094
947.92         59.4044
948.31        59.88502
948.70        61.55007
949.09        63.59417
949.48        64.53848
949.87        63.94718
950.26        62.31498
950.65        60.48682
951.04        59.62762
951.43        60.00222
951.82        61.27558
952.21         62.8264
952.60         63.5391
952.99        63.07211
953.38        61.79443
953.77        60.43766
954.16        59.96605
954.55        60.56651
954.94        62.02144
955.33        63.64871
955.72        64.01994
956.11        62.72815
956.50        60.35985
956.89        58.00792
957.28        57.05898
957.66        57.80607
958.05        59.76797
958.44        62.29101
958.83        63.98561
959.22        64.27989
959.61        63.62086
960.00        62.52329
960.39        61.64669
960.78        61.15913
961.16        60.82742
961.55         60.5658
961.94        60.34639
962.33        60.16212
962.72        60.14891
963.11        60.21741
963.49        60.17225
963.88        59.98095
964.27        59.66007
964.66        59.40259
965.04        59.61097
965.43        60.28434
965.82        61.30193
966.21         62.3321
966.60        62.77784
966.98        62.51279
967.37        61.79665
967.76        60.90993
968.15        60.21074
968.53        59.78245
968.92        59.44376
969.31        59.35768
969.69        59.83506
970.08          60.866
970.47        62.52297
970.86        64.10059
971.24        64.37328
971.63        63.11572
972.02        60.73149
972.40        58.44787
972.79        58.18898
973.17        60.24835
973.56        63.89995
973.95        67.92966
974.33        70.04455
974.72        69.44935
975.11        66.91822
975.49        63.55385
975.88        61.37037
976.26        60.91976
976.65        61.59097
977.04        62.88227
977.42        63.87559
977.81        64.06583
978.19        63.88765
978.58        63.50719
978.96        63.01199
979.35        62.55829
979.74        62.07098
980.12        61.72174
980.51        61.83942
980.89        62.52478
981.28        63.51933
981.66        64.83064
982.05          66.182
982.43        67.51289
982.82        68.83167
983.20        69.63269
983.59         69.0033
983.97        66.91933
984.35        63.75026
984.74        60.75375
985.12        59.67993
985.51        60.74453
985.89        63.53726
986.28        66.72916
986.66        68.42247
987.04        67.87767
987.43        65.68581
987.81         62.7386
988.20        60.94618
988.58         60.8251
988.96        61.89286
989.35        63.14434
989.73        63.18073
990.12        61.61158
990.50        59.06931
990.88        56.39003
991.27        54.86818
991.65         54.8098
992.03        55.80674
992.42        57.39877
992.80        59.21483
993.18        60.93858
993.56        62.71098
993.95        64.23369
994.33        65.05965
994.71         64.9898
995.10        64.15732
995.48         62.9985
995.86        62.27449
996.24        62.20184
996.63        62.55476
997.01        63.27503
997.39        64.01629
997.77        64.58188
998.15        65.06139
998.54        65.33953
998.92        65.24113
999.30        64.76131
999.68        63.98317
1000.06         63.1138
1000.45         62.5423
1000.83        62.45674
1001.21        62.72406
1001.59        63.43504
1001.97         64.6798
1002.35        66.35184
1002.73        68.40691
1003.12        70.19876
1003.50        70.65251
1003.88        69.65603
1004.26        67.52115
1004.64        65.19331
1005.02        64.32411
1005.40        65.27366
1005.78        67.43329
1006.16        69.88557
1006.54        71.37529
1006.92        71.57229
1007.30        70.77725
1007.69        69.29967
1008.07        67.91461
1008.45        67.00548
1008.83        66.49262
1009.21        66.11518
1009.59        65.42457
1009.97        64.33591
1010.35        62.98842
1010.73         62.0808
1011.11        62.65849
1011.49        64.76448
1011.86        68.00778
1012.24         70.9598
1012.62         71.6778
1013.00        69.73289
1013.38        65.56466
1013.76        60.48622
1014.14        57.41196
1014.52         57.5022
1014.90        59.95937
1015.28        63.43222
1015.66        65.69931
1016.04         66.1061
1016.41         65.5685
1016.79        64.21018
1017.17         62.4122
1017.55        60.87479
1017.93        59.58447
1018.31        59.30118
1018.69        61.08849
1019.06        65.24135
1019.44        72.03526
1019.82         81.2268
1020.20        88.70298
1020.58        90.63039
1020.95         87.5442
1021.33         82.0956
1021.71        77.06526
1022.09          72.672
1022.46        67.62048
1022.84        62.27216
1023.22        58.18166
1023.60        56.85784
1023.97        58.41435
1024.35        61.15691
1024.73        63.11595
