SpectraSmart Spectrum 2.9.0.0
--------- Device Information -----------
Spectrum Name :  反射率_0
Saving Time :  2024/04/30 00:41:22
Spectro-Module Model Name : SE2030-DUVN
Spectro-Module Serial Number : OS361AC55029948
Wavelength Start : 200
Wavelength End : 1025
Wavelength Unit : Wavelength(nm)
Spectrum Unit : Reflectance(%)
-----------Spectrum Setting ------------
Integration Time : 20ms
Average : 10
Boxcar : 0
Background removal :  enabled
linearity correction :  enabled
SC :  disabled
Intensity correction :  disabled
DWT denoise :  enabled
savitzky-golay :  disabled
FFT :  disabled
Running average :  disabled
Kalman :  disabled
High pass :  disabled
---------------BEGIN--------------------
Wavelength(nm)             Reflectance(%)
200.29               0
200.75        66.88248
201.21        56.28609
201.67        45.27674
202.13        34.62807
202.58        25.30226
203.04        17.42135
203.50        14.25579
203.96        22.26516
204.42        42.30663
204.88        70.49026
205.34        95.79241
205.80        103.0828
206.26        93.77602
206.72        77.79968
207.18        62.07563
207.64        49.99574
208.10        40.87072
208.55         32.7319
209.01        26.55485
209.47        26.17859
209.93        31.60007
210.39        40.27751
210.85        48.67178
211.31        54.47912
211.77        58.09219
212.23        60.09126
212.69        60.83256
213.14        61.59948
213.60        62.04305
214.06          62.465
214.52        62.05099
214.98         59.9436
215.44         56.4459
215.90        51.93414
216.36        48.62053
216.81         50.8508
217.27        61.12718
217.73        80.83768
218.19        108.0444
218.65        127.5717
219.11        128.4446
219.57        115.4357
220.02        100.9899
220.48        94.81937
220.94        96.22263
221.40        103.3553
221.86        112.3014
222.32        111.2765
222.77        98.68546
223.23        84.50809
223.69         74.7806
224.15        71.87437
224.61        74.48027
225.06        81.08751
225.52        89.84388
225.98        95.32972
226.44         95.5969
226.90        93.19221
227.36        90.79394
227.81        90.42707
228.27         92.2678
228.73        95.36963
229.19         98.7957
229.65        100.4265
230.10        99.65705
230.56        98.11581
231.02        96.48173
231.48         95.3416
231.93        94.60916
232.39        93.97993
232.85         93.7166
233.31        94.50972
233.77        96.39729
234.22        99.46139
234.68        102.1531
235.14         101.819
235.60        98.05106
236.05        91.77724
236.51        85.64518
236.97        82.96858
237.43         84.4489
237.88        90.05027
238.34        98.03881
238.80        103.2022
239.26        102.0733
239.71        96.04871
240.17        88.26918
240.63        83.04908
241.08        81.48633
241.54        82.65924
242.00        87.23555
242.46        94.01257
242.91        100.0659
243.37        104.0141
243.83        105.7517
244.28        106.6083
244.74        107.0392
245.20        105.6551
245.66        102.7503
246.11        100.0611
246.57        98.33685
247.03        98.22758
247.48        97.55067
247.94        91.87665
248.40        83.45015
248.85        75.70929
249.31        71.24829
249.77        70.23608
250.22        72.21059
250.68        77.14303
251.14        85.54771
251.59        92.43024
252.05        92.27921
252.51        88.55012
252.96        84.33172
253.42        81.26186
253.88         78.6833
254.33         75.9172
254.79        74.12026
255.25        74.86138
255.70        77.35726
256.16        80.52385
256.62        83.13628
257.07        84.55576
257.53        85.46437
257.99        85.92818
258.44        85.61309
258.90        84.88416
259.35        83.53612
259.81        82.29552
260.27        81.26553
260.72        80.57135
261.18        80.42197
261.63        80.31044
262.09        80.25655
262.55        79.80201
263.00         78.8746
263.46        77.95933
263.91        76.96214
264.37        76.24457
264.83        75.69909
265.28        75.16045
265.74         74.8145
266.19        74.62006
266.65        74.63429
267.11        74.75396
267.56        74.76361
268.02        74.42001
268.47        73.62832
268.93        72.47922
269.38        71.12392
269.84        69.95437
270.30        69.08911
270.75         68.4388
271.21        67.86884
271.66        67.07645
272.12        66.02477
272.57        64.76163
273.03        63.48611
273.48        62.38885
273.94        61.60248
274.39        60.97606
274.85        60.42936
275.31        59.70494
275.76        58.72822
276.22         57.6463
276.67        56.53649
277.13        55.68241
277.58        55.03891
278.04        54.59222
278.49        54.11331
278.95        53.44613
279.40         52.4987
279.86         51.4524
280.31        50.39225
280.77        49.62193
281.22         49.1185
281.68        48.82283
282.13        48.58637
282.59        48.31855
283.04        47.92208
283.50        47.45523
283.95        46.85418
284.41        46.08321
284.86        45.14765
285.32        44.15028
285.77        43.15231
286.22        42.34332
286.68        41.77398
287.13        41.35167
287.59        41.07112
288.04        40.83478
288.50        40.62785
288.95        40.41201
289.41        40.17529
289.86        39.83067
290.32         39.3959
290.77        38.87841
291.22         38.3077
291.68        37.73829
292.13        37.19536
292.59        36.71606
293.04        36.36998
293.50        36.29481
293.95        36.48082
294.40        36.88955
294.86        37.36753
295.31        37.68865
295.77        37.78967
296.22        37.71305
296.68        37.58187
297.13        37.57075
297.58        37.73214
298.04        37.98207
298.49        38.22961
298.95        38.33706
299.40         38.2699
299.85        38.09597
300.31        37.88697
300.76        37.68239
301.21        37.53502
301.67        37.43357
302.12        37.35921
302.58        37.42792
303.03        37.62115
303.48        37.79167
303.94        37.85402
304.39        38.31834
304.84        38.07659
305.30        38.03336
305.75        37.89824
306.20        37.80371
306.66        37.77629
307.11        37.77236
307.57        37.77291
308.02        37.66656
308.47        37.45265
308.93        37.17481
309.38        36.86587
309.83        36.62772
310.29        36.48597
310.74        36.40759
311.19        36.34126
311.65        36.20034
312.10        35.96234
312.55        35.65906
313.00        35.35775
313.46        35.15988
313.91        35.07285
314.36        35.06422
314.82        35.06066
315.27        34.96798
315.72        34.75053
316.18        34.44664
316.63        34.09792
317.08        33.78168
317.53        33.52919
317.99         33.3309
318.44        33.16138
318.89        32.98464
319.35        32.79106
319.80        32.59121
320.25        32.42921
320.70        32.37236
321.16        32.41742
321.61        32.55601
322.06        32.69022
322.51        32.67077
322.97         32.4627
323.42        32.11041
323.87         31.7262
324.32        31.49626
324.78        31.45414
325.23        31.56295
325.68        31.70118
326.13        31.66546
326.59        31.39846
327.04         30.9794
327.49         30.5248
327.94        30.23557
328.39         30.1602
328.85        30.22026
329.30        30.33759
329.75        30.32485
330.20        30.13282
330.66        29.83558
331.11        29.50189
331.56        29.21207
332.01        29.00368
332.46        28.83576
332.92        28.74558
333.37        28.83606
333.82        29.09575
334.27        29.49875
334.72        29.88913
335.17        30.00288
335.63        29.77538
336.08        29.28679
336.53        28.70032
336.98        28.32285
337.43         28.2494
337.88        28.39356
338.34        28.64187
338.79        28.82745
339.24        28.88632
339.69        28.88645
340.14        28.84639
340.59        28.79069
341.05        28.74095
341.50        28.67107
341.95        28.62245
342.40         28.6792
342.85        28.84408
343.30          29.085
343.75        29.31395
344.20        29.38727
344.66        29.28179
345.11        29.03909
345.56        28.73025
346.01        28.46781
346.46        28.30077
346.91        28.20736
347.36        28.18239
347.81        28.21706
348.26        28.29479
348.72        28.40638
349.17        28.53505
349.62          28.643
350.07         28.7102
350.52        28.74377
350.97        28.71495
351.42        28.58536
351.87        28.36756
352.32        28.08575
352.77        27.82901
353.22        27.74084
353.67        27.84684
354.13        28.09307
354.58        28.38796
355.03        28.58167
355.48        28.62063
355.93        28.54215
356.38        28.36969
356.83        28.14269
357.28        27.88837
357.73        27.60362
358.18        27.31619
358.63         27.0734
359.08        26.88692
359.53        26.74747
359.98         26.6477
360.43        26.56747
360.88        26.49228
361.33        26.42511
361.78        26.33393
362.23        26.16889
362.68        25.92979
363.13        25.63877
363.58        25.34851
364.03        25.14519
364.48        25.04709
364.93        25.02031
365.38        25.03649
365.83        25.04797
366.28        25.03103
366.73        25.00015
367.18        24.92485
367.63        24.75809
368.08        24.50007
368.53        24.16321
368.98        23.82163
369.43        23.59792
369.88        23.52315
370.33        23.57261
370.78        23.66531
371.23         23.6629
371.68         23.5281
372.13        23.29369
372.58         23.0423
373.03        22.90916
373.48         22.9192
373.93        23.02139
374.38        23.11717
374.83        23.04989
375.28         22.7912
375.72        22.40186
376.17        21.99801
376.62        21.70031
377.07        21.53909
377.52        21.46836
377.97         21.4604
378.42        21.46955
378.87        21.47495
379.32        21.49817
379.77        21.51142
380.22        21.47102
380.67        21.37075
381.11        21.20622
381.56        21.04075
382.01        20.98276
382.46        21.05121
382.91         21.2182
383.36        21.37516
383.81        21.35632
384.26         21.1345
384.71        20.75818
385.15        20.35772
385.60        20.16515
386.05         20.2109
386.50        20.42066
386.95        20.64361
387.40        20.64292
387.85        20.38388
388.29        19.95791
388.74        19.53014
389.19        19.26014
389.64        19.18134
390.09        19.21896
390.54        19.33225
390.98        19.45283
391.43        19.54804
391.88        19.63891
392.33        19.67041
392.78        19.58162
393.23        19.38306
393.67        19.05314
394.12        18.71034
394.57        18.65299
395.02         18.6331
395.47         18.8207
395.91         19.0397
396.36        19.11187
396.81        18.99978
397.26        18.77185
397.71        18.51221
398.15        18.33535
398.60        18.29509
399.05        18.30498
399.50         18.3373
399.95        18.43838
400.39        18.49773
400.84        18.52265
401.29        18.48125
401.74        18.42842
402.18        18.36868
402.63        18.24954
403.08        18.11742
403.53        18.06022
403.97        18.08903
404.42        18.18441
404.87        18.27641
405.32        18.24945
405.76        18.07983
406.21        17.81382
406.66        17.54389
407.11        17.41584
407.55        17.46626
408.00        17.64933
408.45        17.86982
408.90         17.9546
409.34        17.85546
409.79        17.62698
410.24         17.3814
410.68        17.28731
411.13        17.38115
411.58        17.60551
412.03        17.85645
412.47        17.95988
412.92        17.85854
413.37        17.62696
413.81         17.3522
414.26        17.18652
414.71        17.15287
415.15        17.20729
415.60        17.29695
416.05        17.35642
416.49        17.35997
416.94        17.33527
417.39        17.28529
417.83        17.20721
418.28        17.11293
418.73        16.99628
419.17        16.89112
419.62        16.85547
420.07        16.89704
420.51        16.99759
420.96        17.11215
421.41        17.15948
421.85        17.11592
422.30        17.02066
422.74        16.90493
423.19        16.84366
423.64        16.84425
424.08        16.89343
424.53        16.94758
424.98        16.96241
425.42         16.9275
425.87        16.84736
426.31        16.74773
426.76        16.69292
427.21        16.63998
427.65        16.60445
428.10        16.56887
428.54        16.48091
428.99        16.35304
429.44        16.31494
429.88         16.3352
430.33        16.15452
430.77        15.88812
431.22        16.04618
431.66        16.56709
432.11        16.84248
432.56        16.77669
433.00        16.72279
433.45        16.67996
433.89        16.35377
434.34        15.91846
434.78        15.86388
435.23        16.12158
435.67        16.18437
436.12        16.02944
436.57        15.94553
437.01        15.96538
437.46        16.01058
437.90         16.0786
438.35        16.17933
438.79        16.27944
439.24         16.3005
439.68        16.25473
440.13         16.2288
440.57        16.20487
441.02        16.16171
441.46        16.10734
441.91        15.93939
442.35        15.73354
442.80        15.92894
443.24        16.38002
443.69        16.31373
444.13        15.79199
444.58        15.56782
445.02        15.64734
445.47         15.6297
445.91        15.51182
446.36        15.48796
446.80        15.55406
447.24         15.6621
447.69        15.77631
448.13        15.83991
448.58        15.84125
449.02        15.79852
449.47        15.74801
449.91        15.73701
450.36        15.77944
450.80        15.85658
451.25        15.94111
451.69        15.98795
452.13        15.98342
452.58        15.94925
453.02        15.90036
453.47        15.85841
453.91        15.82726
454.36        15.84573
454.80        15.82793
455.24        15.82006
455.69        15.80006
456.13        15.77088
456.58        15.74851
457.02         15.7411
457.46        15.75319
457.91        15.77718
458.35        15.79767
458.79        15.79946
459.24        15.78948
459.68        15.78182
460.13        15.78553
460.57        15.74218
461.01        15.77599
461.46        15.72873
461.90        15.67086
462.34        15.80235
462.79        16.05208
463.23        16.06949
463.68         15.8732
464.12         15.7885
464.56        15.82774
465.01        15.83169
465.45         15.7787
465.89        15.70644
466.34        15.64437
466.78         15.6553
467.22        15.77059
467.67        15.78966
468.11        15.71883
468.55        15.63504
468.99        15.57125
469.44        15.53701
469.88        15.53924
470.32        15.57921
470.77        15.62875
471.21        15.65704
471.65        15.64937
472.10        15.62287
472.54         15.5934
472.98        15.60223
473.42         15.6553
473.87        15.73478
474.31        15.81471
474.75        15.85924
475.20         15.8646
475.64        15.84002
476.08        15.80023
476.52        15.76439
476.97        15.74066
477.41         15.7188
477.85        15.71198
478.29        15.73973
478.74        15.80604
479.18         15.8948
479.62        15.97007
480.06        16.01446
480.50        16.02893
480.95         15.8775
481.39        15.84202
481.83        15.82925
482.27        15.93594
482.72        16.00492
483.16        16.20947
483.60        16.30482
484.04        16.34488
484.48        16.29812
484.93        16.21151
485.37        16.31206
485.81        16.56163
486.25        16.49413
486.69         16.0739
487.14        16.30089
487.58         16.9623
488.02        16.55776
488.46        16.93666
488.90        16.97795
489.34        16.68878
489.79        16.62047
490.23        16.61936
490.67        16.77489
491.11        16.98116
491.55         16.9359
491.99        16.70641
492.43        16.70742
492.88        16.95744
493.32        17.19932
493.76        17.37856
494.20        17.54876
494.64         17.6979
495.08        17.80525
495.52        17.86564
495.96        17.92034
496.41        17.98431
496.85        17.94425
497.29        17.84052
497.73        18.05377
498.17        18.29943
498.61        18.29726
499.05        18.02604
499.49        17.92269
499.93        18.02617
500.37        18.16639
500.82        18.29817
501.26        18.39177
501.70        18.43176
502.14        18.45346
502.58        18.49332
503.02        18.58657
503.46        18.74151
503.90        18.94537
504.34        19.15554
504.78        19.29976
505.22        19.35776
505.66        19.34717
506.10         19.2958
506.54        19.27218
506.98        19.29752
507.42        19.31417
507.86        19.29608
508.30        19.41946
508.74        19.32493
509.18        19.31384
509.62        19.29729
510.06        19.30689
510.50        19.34716
510.94        19.41316
511.38        19.49749
511.82        19.57897
512.26        19.64855
512.70        19.70632
513.14        19.75498
513.58        19.80008
514.02        19.84282
514.46        19.88171
514.90         19.9059
515.34        19.89984
515.78        19.86307
516.22        19.80147
516.66        19.73992
517.10        19.71628
517.54        19.73588
517.98        19.78596
518.42         19.8345
518.86        19.82903
519.30        19.75888
519.74        19.64423
520.18        19.51529
520.62        19.41687
521.06         19.3651
521.50        19.35151
521.93        19.36691
522.37        19.38949
522.81        19.41249
523.25        19.43701
523.69        19.47097
524.13        19.52656
524.57        19.60098
525.01        19.68482
525.45        19.74802
525.89        19.74554
526.32        19.66815
526.76        19.53675
527.20        19.39118
527.64        19.29405
528.08        19.25919
528.52        19.26892
528.96        19.29199
529.40        19.27643
529.83        19.20956
530.27        19.11484
530.71        19.01245
531.15        18.93576
531.59        18.89401
532.03         18.8715
532.46          18.863
532.90        18.86764
533.34         18.8791
533.78        18.90218
534.22        18.91711
534.66        18.89216
535.09        18.82355
535.53        18.72526
535.97        18.63238
536.41        18.60871
536.85        18.66434
537.28         18.7765
537.72        18.89895
538.16        18.95968
538.60        18.94229
539.04        18.87639
539.47        18.78665
539.91        18.72967
540.35        18.71719
540.79        18.73606
541.22        18.78872
541.66        18.88327
542.10        19.01135
542.54        19.17065
542.97        19.33469
543.41        19.46135
543.85         19.5426
544.29        19.59426
544.72        19.62752
545.16        19.67778
545.60        19.75324
546.04        19.83373
546.47        19.93069
546.91        20.09245
547.35        20.30197
547.79        20.48733
548.22        20.61498
548.66        20.74324
549.10        20.87402
549.53        20.90431
549.97        20.83541
550.41        21.09987
550.84        21.07718
551.28        21.23012
551.72        21.34253
552.15        21.55715
552.59        21.59552
553.03        21.68608
553.46         21.7639
553.90        21.84713
554.34        21.93472
554.77        22.04112
555.21        22.15651
555.65        22.20622
556.08        22.20679
556.52        22.27418
556.96         22.3966
557.39        22.50138
557.83        22.57923
558.27         22.6175
558.70         22.6489
559.14        22.75394
559.57        22.91672
560.01        23.09293
560.45        23.23739
560.88        23.21665
561.32        23.17239
561.75        23.13091
562.19        23.15129
562.63         23.1636
563.06         23.1738
563.50        23.24274
563.93        23.34852
564.37         23.4459
564.80        23.51892
565.24        23.58721
565.68        23.64976
566.11        23.71957
566.55        23.80062
566.98        23.85422
567.42        23.91723
567.85        24.00297
568.29        24.11783
568.72        24.32034
569.16        24.62536
569.60        24.56747
570.03        24.90445
570.47        25.03973
570.90        25.09785
571.34        25.33093
571.77        25.36031
572.21        25.44925
572.64        25.48805
573.08        25.61148
573.51        25.86208
573.95        25.82921
574.38        26.16468
574.82        26.20969
575.25        26.09682
575.69        26.03967
576.12        26.06353
576.56        26.17884
576.99        26.38916
577.42        26.34951
577.86        26.13079
578.29        26.08341
578.73        26.24102
579.16        26.11053
579.60        26.14404
580.03        25.94283
580.47        26.09866
580.90        25.96656
581.33         25.6637
581.77        25.97477
582.20        25.67569
582.64        25.61169
583.07        25.42541
583.51        25.22969
583.94        25.13479
584.37        24.95662
584.81        24.77394
585.24        24.91574
585.68        25.16467
586.11        25.04672
586.54        24.71597
586.98        24.70367
587.41        25.02131
587.85        24.71344
588.28        24.65684
588.71        24.77083
589.15        24.55372
589.58        24.47836
590.01        24.39482
590.45        24.43137
590.88        24.59459
591.31        24.67437
591.75        24.62765
592.18         24.7425
592.61        25.00422
593.05        24.65188
593.48        24.56131
593.91        24.70529
594.35        24.62512
594.78         24.7833
595.21        24.96373
595.65        24.96574
596.08         24.8138
596.51        25.23056
596.94        25.41177
597.38        25.69967
597.81        25.83233
598.24        25.84002
598.68        26.06215
599.11        26.26964
599.54        26.75275
599.97        26.99156
600.41        27.11819
600.84         27.1705
601.27         27.6116
601.70        27.90906
602.14        28.17357
602.57        28.48024
603.00        28.80759
603.43        29.13648
603.87        29.39761
604.30        29.82247
604.73        30.18595
605.16        30.61619
605.60        31.01566
606.03        31.39192
606.46        31.69761
606.89        32.03272
607.32        32.41838
607.76        32.75797
608.19        33.05309
608.62        33.37197
609.05        33.74095
609.48        34.08225
609.92        34.37448
610.35        34.71723
610.78        35.18268
611.21        35.14849
611.64         35.4825
612.07        35.73479
612.50        36.13099
612.94        36.47195
613.37        36.77345
613.80        37.03372
614.23        37.39536
614.66        37.65916
615.09        37.87156
615.52        38.04306
615.96        38.19388
616.39        38.37938
616.82        38.60378
617.25        38.81924
617.68        39.00137
618.11        39.26014
618.54        39.56155
618.97        39.79175
619.40        39.97142
619.84        40.17176
620.27        40.41181
620.70        40.70496
621.13        40.99419
621.56        40.94164
621.99        41.06837
622.42        40.82164
622.85        41.26646
623.28        41.32593
623.71        41.52363
624.14        41.00407
624.57        41.33431
625.00        41.28152
625.43        41.27393
625.86        41.19247
626.29         41.0227
626.72        41.05564
627.15        40.81245
627.58        40.66248
628.01        40.46302
628.44        40.23753
628.87        39.98716
629.30        39.72007
629.73        39.46928
630.16        39.24891
630.59        39.05634
631.02        38.97581
631.45        38.78231
631.88        38.53594
632.31        38.16604
632.74        37.70136
633.17        37.18607
633.60         36.7008
634.03        36.27247
634.46         35.8754
634.89        35.49657
635.32        35.11597
635.75        34.72477
636.18        34.33456
636.61        33.94086
637.04        33.53708
637.47        33.13209
637.89        32.70528
638.32        32.26324
638.75        31.91713
639.18        31.69311
639.61         31.2585
640.04        31.16146
640.47        30.91453
640.90        30.67693
641.33        30.44892
641.76        30.24635
642.18        30.08865
642.61        29.96883
643.04        29.88554
643.47        29.84171
643.90        29.83317
644.33          29.852
644.76        29.93619
645.18        30.05065
645.61        30.05718
646.04        29.92429
646.47        30.00815
646.90        30.26886
647.33        30.43955
647.75        30.50857
648.18        30.64034
648.61        30.84797
649.04        31.11542
649.47         31.4423
649.89        31.74868
650.32        32.04425
650.75         32.5285
651.18         33.1434
651.61        33.57192
652.03        33.86068
652.46        34.33078
652.89        34.94772
653.32        35.47354
653.74        35.96052
654.17         36.1473
654.60        36.42963
655.03        37.45651
655.46        37.14712
655.88         38.4858
656.31        40.93216
656.74        42.15181
657.16        41.05012
657.59        40.06853
658.02        40.39901
658.45        41.15814
658.87          41.535
659.30        41.67929
659.73        42.68116
660.15        42.87049
660.58        43.36019
661.01        43.51195
661.44        43.64906
661.86        43.73067
662.29         43.8446
662.72        44.26031
663.14        44.88659
663.57        45.12983
664.00        45.03165
664.42        45.16375
664.85         45.5662
665.27        45.88484
665.70        46.08554
666.13        46.31086
666.55        46.56144
666.98        46.79281
667.41        47.00401
667.83        47.17172
668.26        47.28864
668.69        47.40285
669.11        47.54201
669.54        47.59857
669.96        47.82686
670.39        48.01583
670.82        48.22421
671.24         48.4285
671.67         48.6101
672.09        48.76952
672.52        48.91571
672.94        49.11462
673.37        48.99327
673.80         49.4153
674.22        49.30461
674.65        49.53759
675.07        49.82547
675.50        50.13227
675.92         50.4144
676.35         50.6222
676.77         50.7523
677.20        50.79482
677.62        50.79925
678.05        50.85201
678.47        50.97141
678.90         51.1424
679.32         51.3265
679.75        51.45836
680.17        51.51457
680.60        51.57172
681.02        51.57829
681.45        51.63601
681.87        51.73264
682.30        51.90096
682.72        52.12394
683.15          52.199
683.57        52.19986
684.00        52.47068
684.42        52.93572
684.85        53.21277
685.27         53.2776
685.70        53.23365
686.12         53.1778
686.54        53.51229
686.97        54.15491
687.39        54.44612
687.82        54.26258
688.24        54.63856
688.66        54.42479
689.09        54.29725
689.51        54.00628
689.94        53.87485
690.36        53.94197
690.78        54.11555
691.21        54.35962
691.63        54.64578
692.06        54.91162
692.48        55.05627
692.90        55.10149
693.33        55.19325
693.75         55.3474
694.17        55.46651
694.60        55.55884
695.02        55.67617
695.44        55.81642
695.87        56.02906
696.29        56.27913
696.71        56.33661
697.14        56.26208
697.56        56.38674
697.98        56.69932
698.41        56.90868
698.83         56.9977
699.25        57.14991
699.68        57.32552
700.10        57.41529
700.52        57.39908
700.94        57.32115
701.37        57.22917
701.79        57.21684
702.21        57.29986
702.64        57.46021
703.06        57.66397
703.48         57.8652
703.90        58.05114
704.33        58.24862
704.75        58.43248
705.17        58.62184
705.59        58.79535
706.01         58.9411
706.44        59.07475
706.86        59.22125
707.28        59.37738
707.70        59.56921
708.12        59.76603
708.55        59.83779
708.97        59.81126
709.39        59.86831
709.81        60.01037
710.23        60.16924
710.66        60.33196
711.08        60.57686
711.50        60.85102
711.92         61.0618
712.34        61.19242
712.76         61.2671
713.19           61.29
713.61        61.31015
714.03        61.32832
714.45        61.34076
714.87        61.36293
715.29        61.41876
715.71        61.51115
716.13        61.63422
716.56        61.75847
716.98        61.90527
717.40        62.04006
717.82        62.16473
718.24        62.26544
718.66        62.32471
719.08        62.34298
719.50        62.32246
719.92        62.29762
720.34        62.32464
720.76        62.41549
721.19        62.55137
721.61        62.69976
722.03         62.7808
722.45        62.77611
722.87        62.70555
723.29        62.62234
723.71        62.61255
724.13        62.69816
724.55        62.85811
724.97        63.03626
725.39        63.13777
725.81        63.14662
726.23        63.10089
726.65         63.0641
727.07        63.13781
727.49         63.3376
727.91        63.61205
728.33        63.91584
728.75        64.16016
729.17        64.30819
729.59        64.43574
730.01         64.5059
730.43        64.35891
730.85        64.06152
731.27        63.86625
731.69        63.84697
732.10        63.93282
732.52        64.13818
732.94        64.54681
733.36        65.05571
733.78        65.41267
734.20        65.54904
734.62        65.51582
735.04        65.39317
735.46        65.35601
735.88         65.4324
736.30        65.47427
736.72         65.4748
737.13        65.54865
737.55        65.58714
737.97        65.48107
738.39        65.34186
738.81        64.91446
739.23        65.08488
739.65        65.56355
740.06         66.3075
740.48        66.58363
740.90        66.30672
741.32        65.82708
741.74        65.35408
742.16        65.12029
742.57        65.22514
742.99        65.58932
743.41        66.06161
743.83        66.36256
744.25        66.43406
744.67        66.41145
745.08        66.35987
745.50        66.32508
745.92        66.34313
746.34        66.37891
746.75        66.46214
747.17        66.59792
747.59        66.77249
748.01        67.12637
748.42        67.52973
748.84        67.42823
749.26        66.95526
749.68        66.84686
750.09        67.10781
750.51        67.28375
750.93        67.30168
751.35        67.25492
751.76        67.18203
752.18        67.19799
752.60        67.30919
753.01        67.40385
753.43        67.44916
753.85        67.49446
754.27        67.55399
754.68         67.6459
755.10        67.74936
755.52        67.83971
755.93        67.88789
756.35        67.84827
756.77        67.83453
757.18        68.03123
757.60        68.47202
758.02        69.23059
758.43        69.81293
758.85        69.94951
759.26        68.07027
759.68        67.29746
760.10        68.24867
760.51          68.663
760.93         68.4173
761.34        68.59148
761.76        68.99344
762.18        68.88394
762.59        68.36909
763.01        68.11703
763.42        68.19929
763.84         68.2223
764.26        68.22315
764.67        68.23459
765.09         68.3391
765.50        68.96049
765.92        69.88152
766.33        70.01048
766.75        69.28217
767.16        69.15263
767.58        69.26929
768.00        69.06022
768.41        68.55067
768.83        68.79545
769.24        69.54505
769.66        69.65518
770.07        69.15333
770.49        68.68322
770.90        68.47147
771.32        68.91669
771.73        69.79334
772.15        69.98945
772.56        69.46983
772.97        69.18786
773.39        68.86676
773.80         69.0928
774.22        69.62805
774.63        70.05161
775.05        70.18948
775.46        70.31305
775.88        70.36144
776.29        70.11821
776.70        69.70515
777.12        69.51567
777.53        69.61338
777.95        69.84425
778.36        70.14124
778.77        70.35011
779.19        70.42677
779.60        70.59583
780.02        70.76339
780.43        70.63296
780.84         70.3566
781.26        70.24648
781.67        70.41768
782.09        71.26513
782.50        72.39089
782.91        72.27633
783.33        71.06295
783.74         70.4771
784.15        70.63803
784.57        70.53448
784.98        70.17809
785.39        70.08265
785.81        70.27518
786.22        70.62335
786.63        71.07913
787.04        71.54609
787.46        71.97395
787.87        72.36303
788.28        72.68304
788.70         72.8683
789.11        72.90725
789.52        72.84992
789.93        72.70467
790.35        72.48018
790.76        72.21329
791.17        71.91734
791.58        71.71477
792.00        71.69389
792.41        71.87524
792.82         72.4455
793.23        73.20731
793.65        73.22468
794.06        72.70261
794.47        73.03435
794.88        74.00237
795.29        74.20868
795.71        73.58218
796.12        72.92587
796.53        72.47392
796.94        72.29722
797.35        72.49642
797.76        73.05577
798.18        73.74066
798.59        74.20219
799.00        74.31072
799.41        74.15891
799.82        73.85326
800.23        73.59156
800.64        73.45042
801.06        73.33968
801.47        73.29549
801.88        73.30946
802.29        73.36539
802.70        73.46559
803.11        73.58572
803.52        73.66766
803.93        73.70715
804.34        73.72937
804.75        73.71057
805.17        73.68907
805.58        73.72579
805.99        73.56834
806.40         73.3483
806.81        73.85654
807.22         74.8312
807.63        74.87137
808.04        74.11121
808.45         73.9351
808.86        74.42813
809.27        74.97638
809.68        75.32143
810.09        74.97762
810.50        74.09077
810.91        73.70114
811.32        73.93686
811.73        74.04379
812.14        74.01902
812.55        74.48052
812.96        75.23045
813.37        75.39153
813.78        74.93817
814.19        74.49771
814.60        74.23437
815.01         74.0452
815.42        73.98807
815.83        74.18036
816.24        74.55561
816.65        74.86988
817.05         75.0401
817.46        75.10131
817.87        75.08017
818.28        74.95574
818.69        74.75083
819.10        74.47247
819.51        74.19753
819.92        74.08437
820.33        74.17683
820.74        74.41541
821.14        74.75919
821.55        75.14907
821.96        75.53767
822.37        75.94525
822.78        76.25552
823.19        76.26696
823.60         75.9445
824.00        75.34306
824.41        74.67979
824.82        74.33018
825.23        74.38239
825.64        74.76325
826.04        75.27859
826.45        75.48868
826.86        75.30101
827.27         74.8352
827.68        74.32612
828.08        74.16711
828.49        74.41109
828.90        74.98029
829.31         75.6643
829.72        76.10663
830.12         76.2277
830.53        76.03995
830.94        75.79907
831.35        75.88902
831.75        76.41631
832.16        77.17925
832.57        77.90135
832.97        78.08021
833.38        77.61258
833.79        76.74171
834.20        75.75414
834.60        75.03929
835.01        74.74442
835.42        74.71965
835.82        74.97089
836.23        75.43426
836.64        76.05945
837.04        76.89281
837.45        77.62547
837.86        77.89639
838.26        77.62144
838.67        76.89799
839.08        76.02051
839.48        75.44461
839.89        75.33958
840.29        75.58578
840.70        76.02437
841.11        76.40318
841.51        76.65373
841.92        76.80157
842.33        76.93624
842.73        77.18509
843.14        77.51163
843.54        77.88689
843.95        78.17234
844.35        78.23009
844.76        78.01227
845.17        77.56335
845.57        77.05629
845.98        76.73143
846.38        76.67474
846.79        76.82571
847.19        77.00508
847.60        76.84869
848.00        76.31728
848.41        75.55863
848.81        74.86278
849.22        74.65561
849.62        75.05807
850.03        75.87524
850.43        76.92842
850.84        77.68726
851.24        78.02867
851.65        77.98923
852.05        77.70531
852.46        77.35547
852.86         77.0213
853.27        76.73552
853.67        76.42545
854.07        76.18629
854.48        75.97247
854.88        75.81194
855.29        75.67969
855.69        75.73141
856.10         75.8798
856.50        76.18737
856.90        76.44438
857.31        76.38895
857.71        76.03018
858.12        75.39884
858.52        74.76662
858.92         74.5358
859.33        74.78514
859.73        75.44337
860.13        76.23125
860.54        76.69769
860.94        76.75402
861.34        76.42943
861.75        75.87451
862.15        75.42043
862.55        75.14665
862.96        75.01025
863.36        74.81316
863.76        74.26592
864.17        73.37574
864.57        72.29907
864.97         71.3692
865.38        71.02936
865.78        71.39705
866.18        72.31501
866.58        73.51027
866.99        74.39697
867.39         74.7756
867.79         74.7489
868.19         74.4261
868.60        73.98437
869.00        73.52306
869.40        72.98747
869.80        72.55611
870.21        72.53743
870.61        73.02443
871.01        73.90234
871.41        74.85503
871.81        75.36143
872.22        75.27818
872.62        74.73186
873.02         73.9714
873.42         73.4309
873.82         73.2665
874.22        73.40475
874.63        73.64621
875.03        73.68098
875.43        73.44859
875.83        73.03412
876.23        72.75591
876.63        73.12478
877.03        74.19715
877.44        75.73087
877.84        77.23087
878.24          77.797
878.64        77.25841
879.04         75.9645
879.44        74.44926
879.84        73.49611
880.24        73.29737
880.64         73.5845
881.04        74.18581
881.44        74.81125
881.84        75.31808
882.24        75.82845
882.65        76.13927
883.05         76.0295
883.45        75.44951
883.85         74.5117
884.25        73.60326
884.65        73.33575
885.05        73.80769
885.45        74.78246
885.85        75.99353
886.25        76.95709
886.65        77.46432
887.05        77.68666
887.45        77.48035
887.85        76.63699
888.25        75.29452
888.65        73.61774
889.04        72.15664
889.44        71.72741
889.84        72.37428
890.24        73.90025
890.64        75.80673
891.04        76.99939
891.44         77.0659
891.84        76.35854
892.24         75.3102
892.64        74.51911
893.04        74.15097
893.44        73.99766
893.83        74.09757
894.23        74.45364
894.63        75.04236
895.03        75.88595
895.43        76.73922
895.83         77.2065
896.23        77.19675
896.63        76.74101
897.02        76.11616
897.42        75.87135
897.82        76.11252
898.22        76.74363
898.62        77.34193
899.01        77.21233
899.41        76.23293
899.81        74.66765
900.21        73.15778
900.61        72.66953
901.00        73.37894
901.40        74.96986
901.80         76.7486
902.20        77.56808
902.59        77.12608
902.99        75.78795
903.39        74.16391
903.79         73.1766
904.18        73.06713
904.58        73.57124
904.98         74.3007
905.38         74.6725
905.77        74.50405
906.17        73.99624
906.57        73.43974
906.96        73.29563
907.36        73.64096
907.76        74.35085
908.15        75.08321
908.55        75.16419
908.95        74.52979
909.34        73.39676
909.74        72.35723
910.14        72.17643
910.53        73.03518
910.93        74.61947
911.33        76.48523
911.72        77.93764
912.12        78.64874
912.52         78.8137
912.91        78.62863
913.31        78.42643
913.70        78.34664
914.10        78.24456
914.49        78.02362
914.89        77.53497
915.29        76.80017
915.68        75.95719
916.08        75.22336
916.47        74.76905
916.87        74.69015
917.26        74.86931
917.66        75.26418
918.05        75.83043
918.45        76.44663
918.84        77.15962
919.24         77.7016
919.64        77.78455
920.03        77.36792
920.42        76.51672
920.82        75.58219
921.21        75.00873
921.61        74.92619
922.00        75.25018
922.40        75.75579
922.79        76.12986
923.19        76.23429
923.58        76.18561
923.98        76.11446
924.37        76.23529
924.77        76.57912
925.16        77.04787
925.55        77.49414
925.95        77.69939
926.34        77.62936
926.74        77.35529
927.13        76.98432
927.52         76.6467
927.92        76.40868
928.31        76.21865
928.70        76.09771
929.10        76.06303
929.49        76.10004
929.89        76.17159
930.28        76.22691
930.67         76.0906
931.07        75.73508
931.46        75.25038
931.85        74.71153
932.24        74.22888
932.64        73.87309
933.03        73.65731
933.42        73.63855
933.82        73.89063
934.21         74.4127
934.60        75.07124
934.99        75.83628
935.39        76.63749
935.78        77.45547
936.17        78.27895
936.56        78.68909
936.96        78.07284
937.35        76.44592
937.74        74.11499
938.13        71.95605
938.53        71.08984
938.92        71.65117
939.31        73.41106
939.70        75.61031
940.09        76.74766
940.49        76.34042
940.88        74.84396
941.27        73.11671
941.66        72.43681
942.05        73.08987
942.44        74.71894
942.84        76.59026
943.23        77.46546
943.62        76.90595
944.01        75.32391
944.40        73.57626
944.79        72.89391
945.18        73.54369
945.57        75.17692
945.97        76.93503
946.36        77.58925
946.75        76.70175
947.14        74.71609
947.53        72.58582
947.92        71.72681
948.31        72.46809
948.70        74.41267
949.09        76.68832
949.48        77.72166
949.87        77.06268
950.26        75.25275
950.65        73.23651
951.04        72.32034
951.43        72.80069
951.82        74.29661
952.21        76.14371
952.60        77.13299
952.99        76.85816
953.38        75.70098
953.77        74.37928
954.16        73.82824
954.55        74.25956
954.94        75.50094
955.33        76.89775
955.72        77.11467
956.11         75.7823
956.50        73.39371
956.89        71.17096
957.28         70.6901
957.66        72.24921
958.05          75.368
958.44        78.88554
958.83        80.43336
959.22        79.28606
959.61        76.29814
960.00        72.94933
960.39        71.12659
960.78        71.17275
961.16        72.56936
961.55         74.4897
961.94        75.36206
962.33        74.64915
962.72        73.04169
963.11        71.25057
963.49         70.1871
963.88         70.0835
964.27        70.56439
964.66        71.51687
965.04        72.84203
965.43        74.26971
965.82        75.84637
966.21         77.1824
966.60        77.54936
966.98        76.86264
967.37         75.4579
967.76        73.81335
968.15        72.57944
968.53         71.9071
968.92        71.53758
969.31        71.65778
969.69        72.59749
970.08        74.25558
970.47        76.67342
970.86         78.8744
971.24         79.1792
971.63        77.28187
972.02        73.78269
972.40        70.20819
972.79        68.91256
973.17        70.30899
973.56        73.56582
973.95        77.50488
974.33        79.88111
974.72        79.85207
975.11        78.17932
975.49        75.74128
975.88        74.18327
976.26        73.96239
976.65        74.47783
977.04        75.41136
977.42        76.22681
977.81         76.5264
978.19        76.66451
978.58        76.61602
978.96        76.16559
979.35        75.41083
979.74        74.40704
980.12        73.55604
980.51        73.54036
980.89        74.57469
981.28        76.26948
981.66        78.43066
982.05        80.41734
982.43        82.04167
982.82        83.34917
983.20        83.94439
983.59        83.08968
983.97        80.84687
984.35        77.54668
984.74        74.38368
985.12        72.97856
985.51        73.57362
985.89        75.85868
986.28        78.67819
986.66        80.41228
987.04        80.37869
987.43        79.04097
987.81        77.16334
988.20        76.38417
988.58        77.08136
988.96         78.7724
989.35        80.32513
989.73        80.19721
990.12        78.00294
990.50        74.44032
990.88        70.61279
991.27        68.26532
991.65         67.8535
992.03        68.91011
992.42        70.78734
992.80         72.7792
993.18        74.47235
993.56         76.0764
993.95        77.43729
994.33        78.40865
994.71        78.83177
995.10        78.71532
995.48        78.20161
995.86        77.67602
996.24         77.2684
996.63        76.79195
997.01        76.52364
997.39        76.70357
997.77        77.31748
998.15        78.35522
998.54        79.20546
998.92        78.88708
999.30         77.2458
999.68         74.5888
1000.06         71.8453
1000.45        70.75368
1000.83         71.9281
1001.21        74.81563
1001.59        78.57767
1001.97        81.81248
1002.35        83.93776
1002.73        85.23502
1003.12        85.71416
1003.50        85.36064
1003.88        84.37603
1004.26        82.81791
1004.64        81.07439
1005.02        79.89079
1005.40         79.5299
1005.78        79.82875
1006.16         80.6921
1006.54        81.95328
1006.92        83.48946
1007.30        85.34652
1007.69        87.07054
1008.07        87.84342
1008.45        87.27681
1008.83        85.57194
1009.21        83.26769
1009.59         81.3941
1009.97        80.31379
1010.35        79.70503
1010.73        79.66475
1011.11         80.2715
1011.49        81.35439
1011.86        82.99955
1012.24        84.21005
1012.62        83.59285
1013.00        80.89796
1013.38        76.34917
1013.76        71.25559
1014.14        68.53726
1014.52        69.28785
1014.90        72.74632
1015.28        77.20698
1015.66        79.91325
1016.04        80.08198
1016.41        78.63822
1016.79        76.10448
1017.17        73.78936
1017.55        72.54116
1017.93        71.95461
1018.31         72.2131
1018.69        73.74364
1019.06        76.75866
1019.44        81.54649
1019.82        88.03196
1020.20        93.46009
1020.58        95.14646
1020.95        93.21334
1021.33        89.55461
1021.71        86.20911
1022.09        83.36716
1022.46        80.22688
1022.84         76.7803
1023.22        73.35511
1023.60        71.01066
1023.97         70.3123
1024.35        71.01792
1024.73        72.62536
