SpectraSmart Spectrum 2.9.0.0
--------- Device Information -----------
Spectrum Name :  反射率_0
Saving Time :  2024/04/30 01:00:02
Spectro-Module Model Name : SE2030-DUVN
Spectro-Module Serial Number : OS361AC55029948
Wavelength Start : 200
Wavelength End : 1025
Wavelength Unit : Wavelength(nm)
Spectrum Unit : Reflectance(%)
-----------Spectrum Setting ------------
Integration Time : 20ms
Average : 10
Boxcar : 0
Background removal :  enabled
linearity correction :  enabled
SC :  disabled
Intensity correction :  disabled
DWT denoise :  enabled
savitzky-golay :  disabled
FFT :  disabled
Running average :  disabled
Kalman :  disabled
High pass :  disabled
---------------BEGIN--------------------
Wavelength(nm)             Reflectance(%)
200.29               0
200.75        35.35934
201.21        26.52499
201.67        16.13977
202.13        7.902999
202.58        3.667937
203.04        2.856074
203.50        6.566875
203.96         16.7981
204.42         32.5812
204.88         51.7705
205.34        66.93656
205.80        68.38496
206.26        58.57704
206.72        45.00683
207.18        32.64901
207.64         23.9031
208.10         18.0223
208.55        13.25915
209.01        10.58245
209.47        12.89803
209.93        19.43605
210.39        27.94968
210.85        35.00466
211.31        38.07021
211.77        37.24273
212.23        32.37995
212.69        24.25129
213.14        19.49409
213.60        21.66181
214.06        27.77642
214.52        33.41632
214.98        35.50148
215.44        34.54909
215.90        31.94087
216.36        29.29301
216.81        29.60494
217.27         34.6023
217.73         44.0395
218.19        57.35668
218.65        68.21758
219.11         70.9203
219.57        67.23396
220.02        60.86929
220.48        54.59248
220.94        47.71644
221.40        38.29473
221.86        26.91267
222.32        19.83138
222.77        20.37116
223.23        25.51953
223.69        30.10132
224.15        30.84752
224.61        28.16418
225.06        22.89695
225.52        17.49897
225.98        17.06259
226.44        22.02263
226.90        28.94436
227.36        34.75717
227.81         37.7035
228.27        38.27205
228.73        37.34894
229.19        36.04922
229.65        36.36222
230.10        38.44622
230.56        41.09613
231.02        43.22134
231.48        44.02281
231.93        43.50954
232.39        42.10978
232.85        40.27263
233.31        38.87006
233.77         38.2244
234.22        38.22864
234.68        38.27701
235.14        37.33031
235.60        35.29903
236.05        32.71598
236.51        30.61336
236.97        30.19721
237.43        31.75186
237.88        35.30441
238.34        40.27331
238.80        44.54238
239.26        46.27409
239.71         45.6884
240.17        43.64036
240.63        41.79511
241.08        40.58515
241.54        39.44783
242.00        38.42007
242.46         38.2535
242.91        39.94925
243.37        43.46706
243.83        47.65506
244.28        51.60448
244.74        55.21557
245.20        58.31887
245.66        60.54326
246.11         61.0774
246.57        59.56066
247.03        56.67524
247.48        51.64096
247.94        44.05115
248.40        37.05354
248.85        32.22232
249.31        30.62724
249.77        32.48318
250.22        37.94081
250.68        48.47989
251.14          65.259
251.59        78.64413
252.05        78.12686
252.51        69.93385
252.96        61.76428
253.42        56.97515
253.88         54.2355
254.33        51.92962
254.79          49.963
255.25        48.20961
255.70        46.86835
256.16        46.41516
256.62        46.36777
257.07        46.24059
257.53        46.24026
257.99        46.26151
258.44        46.14205
258.90        46.26323
259.35         46.2598
259.81         46.2645
260.27        46.16326
260.72        45.91714
261.18        45.65128
261.63         45.1969
262.09        44.61836
262.55        43.74333
263.00        42.61781
263.46        41.52335
263.91        40.45406
264.37        39.60907
264.83        38.92907
265.28        38.30225
265.74        37.86447
266.19        37.62402
266.65         37.6032
267.11        37.72801
267.56         37.8104
268.02        37.57774
268.47        36.96675
268.93        36.05757
269.38        35.01337
269.84        34.23797
270.30         33.8236
270.75         33.6687
271.21         33.5684
271.66        33.19764
272.12          32.494
272.57        31.54394
273.03        30.56405
273.48        29.81225
273.94        29.39998
274.39        29.19189
274.85        29.04948
275.31           28.72
275.76        28.14761
276.22        27.44944
276.67        26.73913
277.13        26.25342
277.58        25.98616
278.04        25.88443
278.49        25.77418
278.95        25.49463
279.40        24.98314
279.86        24.37187
280.31        23.74509
280.77        23.32958
281.22        23.13028
281.68        23.09591
282.13          23.124
282.59        23.11352
283.04        23.01609
283.50        22.85694
283.95        22.65102
284.41        22.42537
284.86        22.18603
285.32        21.96203
285.77         21.7088
286.22        21.42542
286.68        21.13578
287.13        20.82519
287.59         20.5893
288.04        20.51965
288.50        20.62947
288.95        20.84174
289.41        21.06024
289.86        21.11168
290.32        20.98487
290.77        20.74155
291.22        20.44645
291.68        20.20105
292.13        20.04431
292.59        19.96856
293.04        20.04043
293.50        20.37699
293.95        20.97472
294.40        21.80183
294.86        22.68371
295.31        23.35658
295.77        23.75233
296.22        23.92514
296.68        24.04907
297.13        24.38697
297.58        24.99994
298.04        25.76602
298.49        26.52526
298.95        27.02415
299.40        27.20897
299.85        27.18587
300.31        27.07666
300.76        27.00919
301.21         27.0595
301.67        27.18661
302.12        27.36364
302.58        27.68872
303.03        28.14241
303.48        28.56234
303.94        28.84813
304.39         29.5883
304.84        29.51418
305.30        29.65337
305.75         29.6893
306.20        29.77971
306.66        29.95073
307.11        30.15945
307.57        30.36556
308.02         30.4414
308.47        30.37908
308.93        30.22433
309.38        30.03303
309.83        29.93556
310.29        29.95811
310.74        30.06105
311.19        30.15533
311.65        30.09691
312.10        29.86199
312.55        29.50661
313.00        29.15034
313.46        28.97604
313.91        29.00967
314.36        29.18955
314.82        29.40329
315.27          29.491
315.72        29.39271
316.18        29.16399
316.63        28.85271
317.08        28.54684
317.53        28.28848
317.99        28.06715
318.44        27.87359
318.89        27.69864
319.35        27.53999
319.80        27.40237
320.25        27.32226
320.70        27.35175
321.16         27.4778
321.61        27.68747
322.06        27.87181
322.51         27.8629
322.97        27.62452
323.42        27.21222
323.87        26.74848
324.32        26.43434
324.78        26.31661
325.23        26.35713
325.68         26.4622
326.13        26.47153
326.59        26.33131
327.04        26.10109
327.49        25.84887
327.94        25.69457
328.39        25.66364
328.85        25.69819
329.30        25.74303
329.75        25.66809
330.20        25.44544
330.66        25.13025
331.11        24.79205
331.56        24.51422
332.01         24.3308
332.46        24.21094
332.92         24.1639
333.37        24.23156
333.82        24.39451
334.27        24.63853
334.72        24.86798
335.17        24.92353
335.63        24.76567
336.08        24.44158
336.53        24.04215
336.98        23.74615
337.43        23.61589
337.88        23.60906
338.34        23.67559
338.79        23.74981
339.24        23.79722
339.69        23.84862
340.14        23.90071
340.59        23.94203
341.05        23.97321
341.50        23.98137
341.95         23.9833
342.40        24.02251
342.85         24.0988
343.30        24.18712
343.75         24.2513
344.20         24.2345
344.66        24.13543
345.11        23.97899
345.56        23.77925
346.01        23.55363
346.46          23.331
346.91        23.11794
347.36        22.97455
347.81        22.99062
348.26         23.1663
348.72        23.45896
349.17        23.77654
349.62        23.95963
350.07        23.95921
350.52          23.826
350.97         23.6073
351.42        23.37746
351.87        23.17864
352.32        23.00255
352.77        22.88708
353.22        22.89454
353.67        23.02421
354.13        23.24206
354.58        23.49718
355.03        23.70304
355.48        23.81865
355.93        23.86066
356.38        23.79595
356.83        23.58083
357.28        23.23541
357.73         22.7919
358.18        22.35676
358.63        22.09822
359.08         22.0488
359.53         22.1522
359.98        22.32654
360.43        22.43256
360.88        22.42298
361.33        22.34173
361.78        22.18935
362.23        21.96989
362.68        21.70416
363.13        21.38983
363.58        21.09872
364.03        20.94893
364.48        20.95936
364.93         21.0984
365.38        21.27614
365.83        21.34057
366.28        21.25162
366.73         21.0512
367.18        20.80568
367.63         20.6237
368.08         20.5342
368.53        20.49996
368.98        20.48322
369.43        20.42397
369.88        20.30807
370.33        20.16756
370.78        20.02166
371.23        19.89715
371.68        19.80384
372.13          19.722
372.58        19.66276
373.03        19.64811
373.48        19.66921
373.93        19.71504
374.38        19.72857
374.83         19.6165
375.28        19.37217
375.72        19.03442
376.17        18.69449
376.62        18.44635
377.07        18.31299
377.52         18.2579
377.97        18.26732
378.42        18.31624
378.87         18.3815
379.32        18.46725
379.77        18.52375
380.22        18.47713
380.67        18.31791
381.11        18.06042
381.56        17.77886
382.01            17.6
382.46        17.55863
382.91        17.62593
383.36        17.72463
383.81        17.73177
384.26        17.62296
384.71        17.43679
385.15        17.24362
385.60        17.17912
386.05         17.2524
386.50        17.40694
386.95        17.56047
387.40        17.58873
387.85         17.4685
388.29         17.2442
388.74         16.9934
389.19        16.76127
389.64        16.56807
390.09        16.39063
390.54        16.25799
390.98        16.21904
391.43        16.27687
391.88        16.40997
392.33        16.53683
392.78         16.5567
393.23        16.45817
393.67        16.23643
394.12        15.97886
394.57         15.9176
395.02         15.8421
395.47        15.90203
395.91        15.97649
396.36        15.96904
396.81        15.86263
397.26        15.69741
397.71        15.52332
398.15        15.40214
398.60        15.37026
399.05        15.36964
399.50        15.37341
399.95        15.41315
400.39        15.39881
400.84        15.33533
401.29        15.22558
401.74        15.16812
402.18        15.17849
402.63        15.19962
403.08        15.22252
403.53        15.24621
403.97        15.26444
404.42         15.2803
404.87         15.2794
405.32        15.23866
405.76        15.15235
406.21        15.03038
406.66        14.90843
407.11        14.84622
407.55        14.85973
408.00         14.9347
408.45        15.01405
408.90        14.99197
409.34        14.84742
409.79        14.61623
410.24        14.39711
410.68         14.3382
411.13        14.46622
411.58         14.7315
412.03        15.02437
412.47        15.15635
412.92        15.06707
413.37        14.83143
413.81        14.54274
414.26        14.36327
414.71        14.32056
415.15        14.36707
415.60        14.45485
416.05        14.52389
416.49        14.54852
416.94        14.55727
417.39        14.54017
417.83        14.47389
418.28         14.3659
418.73        14.21297
419.17        14.06833
419.62        14.02087
420.07        14.08435
420.51        14.23322
420.96        14.39588
421.41        14.44987
421.85          14.369
422.30        14.20985
422.74        14.03829
423.19        13.97498
423.64        14.03724
424.08        14.19317
424.53        14.37857
424.98        14.50794
425.42        14.55044
425.87        14.51964
426.31        14.44116
426.76        14.37945
427.21        14.30402
427.65        14.22592
428.10        14.14046
428.54        14.02048
428.99        13.88442
429.44        13.84261
429.88        13.86433
430.33        13.72094
430.77        13.50635
431.22         13.6564
431.66        14.12081
432.11        14.37403
432.56        14.33187
433.00        14.31301
433.45        14.31705
433.89        14.03642
434.34        13.64347
434.78        13.66757
435.23        14.01708
435.67        14.10329
436.12        13.89657
436.57        13.73121
437.01        13.66201
437.46         13.6376
437.90        13.67208
438.35        13.76954
438.79        13.89565
439.24        13.97232
439.68        14.00119
440.13        14.05513
440.57        14.10674
441.02        14.11766
441.46        14.08947
441.91        13.93763
442.35         13.7349
442.80        13.87982
443.24        14.24698
443.69        14.14909
444.13        13.66238
444.58        13.47884
445.02        13.60506
445.47        13.67976
445.91        13.66232
446.36        13.66805
446.80        13.68389
447.24        13.68615
447.69        13.68254
448.13        13.68624
448.58         13.7021
449.02        13.72623
449.47        13.76205
449.91        13.80677
450.36        13.85838
450.80        13.91352
451.25        13.96236
451.69        13.98741
452.13        13.98308
452.58        13.96157
453.02        13.92449
453.47        13.87528
453.91        13.81523
454.36        13.78529
454.80        13.72887
455.24        13.71284
455.69        13.72256
456.13        13.75153
456.58        13.79127
457.02        13.81392
457.46        13.81763
457.91        13.80859
458.35        13.79435
458.79        13.79282
459.24        13.81651
459.68        13.86409
460.13        13.93162
460.57        13.94862
461.01        14.01805
461.46        14.00478
461.90        13.97075
462.34        14.09147
462.79        14.30638
463.23        14.30618
463.68        14.11601
464.12        14.03963
464.56        14.09028
465.01        14.11936
465.45        14.10591
465.89        14.08198
466.34         14.0701
466.78        14.12665
467.22        14.26476
467.67        14.27618
468.11        14.16224
468.55        14.00275
468.99        13.85408
469.44        13.76586
469.88        13.75659
470.32         13.8208
470.77        13.91485
471.21         13.9802
471.65        13.99305
472.10        13.97474
472.54        13.95626
472.98        14.00181
473.42        14.11864
473.87        14.27814
474.31        14.42685
474.75        14.48742
475.20        14.45055
475.64          14.342
476.08        14.21219
476.52        14.13511
476.97        14.13139
477.41        14.17469
477.85        14.24877
478.29        14.32406
478.74        14.39167
479.18        14.45484
479.62        14.49845
480.06        14.53269
480.50         14.5666
480.95        14.46571
481.39        14.48127
481.83        14.52356
482.27        14.67491
482.72        14.79018
483.16         15.0252
483.60        15.13273
484.04        15.14872
484.48        15.11127
484.93        15.07217
485.37        15.07894
485.81        15.07956
486.25        15.28172
486.69        14.78664
487.14        15.02801
487.58        15.57349
488.02        15.64759
488.46        15.76467
488.90        16.19423
489.34        15.47923
489.79        15.48888
490.23        15.71541
490.67        16.02617
491.11        16.29118
491.55         16.2831
491.99        16.08723
492.43        16.11684
492.88        16.39262
493.32        16.62125
493.76        16.75683
494.20        16.89954
494.64        17.04575
495.08        17.16118
495.52        17.24024
495.96        17.32333
496.41        17.42385
496.85         17.4335
497.29        17.39011
497.73        17.66378
498.17        17.97687
498.61        18.04996
499.05        17.85564
499.49        17.82094
499.93        17.98168
500.37        18.16654
500.82        18.32617
501.26        18.42592
501.70        18.45127
502.14        18.44251
502.58        18.44159
503.02        18.49141
503.46        18.60625
503.90        18.77565
504.34        18.96404
504.78        19.10887
505.22        19.19062
505.66        19.22244
506.10        19.22378
506.54        19.24929
506.98        19.31472
507.42         19.3651
507.86        19.37129
508.30        19.50696
508.74        19.41323
509.18        19.39397
509.62        19.37139
510.06        19.39681
510.50        19.47672
510.94         19.5973
511.38        19.73894
511.82        19.85844
512.26        19.93997
512.70        19.99371
513.14        20.02084
513.58        20.02465
514.02        20.01176
514.46        19.98192
514.90        19.95145
515.34         19.9488
515.78        19.98018
516.22         20.0383
516.66        20.10658
517.10        20.15676
517.54        20.17849
517.98        20.17616
518.42        20.15442
518.86        20.12228
519.30        20.08417
519.74         20.0393
520.18        19.98612
520.62        19.92137
521.06        19.84893
521.50        19.77666
521.93        19.71917
522.37         19.6921
522.81        19.70074
523.25        19.73559
523.69        19.78606
524.13        19.83657
524.57        19.87809
525.01        19.91062
525.45        19.92451
525.89        19.90616
526.32        19.85306
526.76        19.77589
527.20        19.68926
527.64        19.61809
528.08        19.56968
528.52        19.53809
528.96        19.51737
529.40        19.50104
529.83        19.48438
530.27        19.46317
530.71        19.42882
531.15        19.41749
531.59         19.3521
532.03        19.29172
532.46        19.22127
532.90        19.16141
533.34        19.11554
533.78        19.08539
534.22        19.05863
534.66        19.01232
535.09        18.94379
535.53        18.86712
535.97        18.80593
536.41        18.80391
536.85        18.86496
537.28        18.96796
537.72        19.07839
538.16        19.14427
538.60        19.15236
539.04        19.12607
539.47        19.07183
539.91        19.01892
540.35        18.97649
540.79        18.94271
541.22        18.94486
541.66        19.03041
542.10         19.1982
542.54        19.43011
542.97        19.67697
543.41        19.86158
543.85        19.96607
544.29        20.01918
544.72        20.03966
545.16        20.07466
545.60        20.14004
546.04        20.21302
546.47        20.31473
546.91        20.51005
547.35        20.78207
547.79         21.0503
548.22        21.26582
548.66        21.46764
549.10        21.65158
549.53         21.7151
549.97        21.66057
550.41        21.94134
550.84        21.91549
551.28        22.06424
551.72         22.1692
552.15        22.38855
552.59        22.43617
553.03        22.54875
553.46        22.65556
553.90         22.7687
554.34        22.88523
554.77        23.02249
555.21        23.17082
555.65        23.25316
556.08        23.28589
556.52        23.38725
556.96        23.54523
557.39        23.68517
557.83        23.79645
558.27        23.86481
558.70        23.91935
559.14        24.03643
559.57        24.19911
560.01         24.3658
560.45        24.49736
560.88         24.4657
561.32        24.42328
561.75        24.39375
562.19        24.43679
562.63        24.47374
563.06        24.50821
563.50        24.60657
563.93        24.74116
564.37        24.85712
564.80        24.93707
565.24        25.00257
565.68        25.06218
566.11        25.14545
566.55        25.25844
566.98        25.35445
567.42        25.45909
567.85        25.56551
568.29        25.67722
568.72        25.86305
569.16        26.15337
569.60        26.06789
570.03        26.41335
570.47        26.54582
570.90         26.6671
571.34        26.82332
571.77        26.90572
572.21        26.98101
572.64         27.0133
573.08        27.10862
573.51        27.32226
573.95        27.26663
574.38        27.65541
574.82        27.64875
575.25        27.67304
575.69        27.54581
576.12         27.3544
576.56        27.80259
576.99        28.03157
577.42        27.82777
577.86        27.73915
578.29        27.55684
578.73        27.58871
579.16        27.45342
579.60        27.68623
580.03        27.47992
580.47         27.4591
580.90        27.31022
581.33        27.14645
581.77        27.31276
582.20        27.00657
582.64         26.8635
583.07        26.60582
583.51        26.50977
583.94        26.63565
584.37        26.48677
584.81        26.12408
585.24        26.12546
585.68        26.29852
586.11        26.25941
586.54        25.83348
586.98        25.89908
587.41        26.33029
587.85        26.08091
588.28        25.88489
588.71        26.05303
589.15        25.85828
589.58        25.88148
590.01        25.82872
590.45        25.82557
590.88        25.89685
591.31        25.95885
591.75        25.95554
592.18         26.0769
592.61        26.34821
593.05        25.74629
593.48        26.02141
593.91        26.05104
594.35        25.75717
594.78        25.96547
595.21         26.4483
595.65        26.47922
596.08        26.11778
596.51        26.52562
596.94        26.98005
597.38        27.39108
597.81        27.49738
598.24        27.52267
598.68        27.78403
599.11        28.06251
599.54        28.33194
599.97        28.57421
600.41        28.77687
600.84         29.0985
601.27        29.41077
601.70        29.80029
602.14        30.18274
602.57        30.51188
603.00        30.77752
603.43          31.049
603.87         31.2715
604.30        31.84541
604.73        32.17179
605.16        32.72873
605.60        33.27541
606.03        33.71653
606.46        33.99833
606.89        34.32594
607.32        34.73145
607.76        35.07479
608.19        35.36958
608.62        35.67682
609.05        36.03355
609.48         36.4685
609.92        36.90842
610.35        37.21484
610.78        37.43666
611.21        37.38319
611.64        37.93775
612.07        38.22303
612.50        38.46817
612.94        38.81514
613.37        39.31198
613.80        39.40357
614.23        39.94197
614.66        40.18948
615.09        40.39033
615.52        40.59494
615.96        40.82357
616.39        40.92133
616.82        40.90182
617.25        41.37369
617.68        41.52858
618.11        41.86284
618.54        42.10144
618.97        42.26705
619.40        42.39092
619.84        42.58416
620.27        42.88927
620.70        43.21881
621.13        43.44602
621.56        43.74059
621.99        43.43814
622.42        43.41487
622.85        43.78107
623.28        44.02197
623.71        44.20076
624.14        43.43872
624.57        43.93239
625.00        43.82536
625.43        43.77125
625.86        43.68443
626.29        43.68198
626.72        43.62867
627.15        43.53039
627.58        43.40999
628.01         43.2649
628.44         43.0959
628.87        42.90284
629.30        42.69219
629.73        42.47282
630.16        42.23408
630.59        41.97116
631.02        41.78479
631.45        41.47653
631.88        41.18066
632.31        40.83611
632.74        40.45307
633.17        40.03309
633.60        39.58487
634.03        39.11801
634.46        38.63245
634.89        38.14707
635.32        37.69413
635.75        37.28218
636.18        36.90359
636.61        36.54881
637.04        36.20436
637.47        35.87114
637.89        35.52981
638.32        35.16247
638.75        34.84807
639.18        34.60636
639.61        34.08141
640.04        33.90578
640.47         33.6064
640.90        33.37082
641.33        33.18556
641.76        33.03334
642.18          32.876
642.61        32.69201
643.04        32.50088
643.47        32.34494
643.90        32.27922
644.33        32.31058
644.76        32.46346
645.18        32.66549
645.61        32.70987
646.04        32.54688
646.47        32.58091
646.90        32.80051
647.33        32.96538
647.75        33.07248
648.18        33.29161
648.61        33.60258
649.04         33.9005
649.47        34.18716
649.89        34.48106
650.32        34.79868
650.75        35.26817
651.18        35.85454
651.61        36.31672
652.03        36.68209
652.46        37.23568
652.89        37.87498
653.32        38.27947
653.74        38.54101
654.17        38.65495
654.60        38.68848
655.03        40.20727
655.46        39.48709
655.88        40.68692
656.31        42.44114
656.74         42.4799
657.16         41.5717
657.59        41.27016
658.02        42.11941
658.45        43.41808
658.87        43.73051
659.30         43.8787
659.73        44.65933
660.15         44.8687
660.58        45.28207
661.01        45.46152
661.44        45.62349
661.86        45.64787
662.29        45.64285
662.72        45.99498
663.14        46.62371
663.57        46.84799
664.00        46.71889
664.42        46.86377
664.85        47.32432
665.27        47.72975
665.70        48.02018
666.13        48.29589
666.55        48.54726
666.98        48.74284
667.41         48.8947
667.83        49.01608
668.26        49.11171
668.69        49.19128
669.11        49.27344
669.54        49.38648
669.96         49.5375
670.39        49.72773
670.82         49.9337
671.24        50.10158
671.67           50.22
672.09         50.3392
672.52        50.48338
672.94        50.69968
673.37        50.60224
673.80        51.10199
674.22        51.06287
674.65        51.32497
675.07        51.58597
675.50         51.8602
675.92        52.11005
676.35        52.26857
676.77        52.34045
677.20        52.32782
677.62        52.30111
678.05        52.37257
678.47        52.56217
678.90        52.84393
679.32        53.13741
679.75        53.31503
680.17        53.33429
680.60        53.27527
681.02        53.22375
681.45        53.20767
681.87        53.23677
682.30        53.70579
682.72        53.84545
683.15        54.05241
683.57         54.1352
684.00        54.32387
684.42        54.58117
684.85        54.74032
685.27        54.80954
685.70        54.76541
686.12        54.70517
686.54        55.06314
686.97        55.71483
687.39        55.98768
687.82        55.83851
688.24        55.88443
688.66        56.14708
689.09        56.06361
689.51        56.02826
689.94         55.9893
690.36        56.07549
690.78        56.21298
691.21        56.38684
691.63        56.56892
692.06        56.73824
692.48        56.91974
692.90          57.089
693.33        57.19552
693.75        57.23704
694.17        57.22208
694.60        57.20057
695.02         57.2443
695.44        57.36391
695.87        57.61502
696.29        57.93801
696.71        58.01381
697.14        57.91232
697.56        58.08627
697.98        58.49364
698.41        58.70315
698.83        58.69026
699.25         58.7128
699.68        58.78439
700.10        58.83632
700.52        58.86184
700.94        58.98562
701.37        59.02722
701.79        59.10945
702.21        59.17379
702.64        59.23532
703.06        59.31589
703.48        59.46516
703.90        59.69048
704.33        59.97854
704.75        60.25937
705.17        60.47979
705.59        60.60174
706.01        60.65104
706.44         60.6571
706.86        60.68688
707.28        60.75957
707.70         60.8205
708.12         60.8933
708.55         61.0874
708.97        61.36325
709.39        61.52016
709.81        61.55748
710.23        61.67041
710.66        61.85701
711.08        62.00107
711.50        62.09828
711.92        62.23597
712.34        62.41893
712.76          62.624
713.19        62.79495
713.61        62.87754
714.03        62.84594
714.45         62.7352
714.87        62.62179
715.29         62.6185
715.71        62.74926
716.13        62.97839
716.56         63.2299
716.98        63.44836
717.40        63.57186
717.82        63.62542
718.24         63.6274
718.66        63.60965
719.08         63.5903
719.50        63.56084
719.92        63.53565
720.34         63.5401
720.76        63.58065
721.19        63.64931
721.61        63.74765
722.03        63.84741
722.45        63.93764
722.87        64.01945
723.29         64.0921
723.71        64.15618
724.13        64.21405
724.55        64.26868
724.97        64.31989
725.39        64.36671
725.81         64.4159
726.23        64.47366
726.65        64.55653
727.07        64.69339
727.49        64.88036
727.91        65.08817
728.33        65.29626
728.75        65.47661
729.17        65.62598
729.59         65.7267
730.01        65.71922
730.43        65.64574
730.85        65.54536
731.27        64.91388
731.69        64.82899
732.10         64.7977
732.52        65.13451
732.94        65.75511
733.36        66.46295
733.78        66.89534
734.20        66.93631
734.62         66.6482
735.04        66.25252
735.46         66.1899
735.88        66.49702
736.30        66.86219
736.72        67.13225
737.13        67.25878
737.55        67.15054
737.97        66.81517
738.39        66.40958
738.81        66.13496
739.23        66.10168
739.65          66.465
740.06        67.01242
740.48         67.2696
740.90        67.16132
741.32        66.91097
741.74        66.65668
742.16        66.61432
742.57        66.86554
742.99        67.19196
743.41        67.49529
743.83        68.11482
744.25        68.34493
744.67        68.42984
745.08        68.25301
745.50         68.1703
745.92        68.23032
746.34        68.24633
746.75        68.22198
747.17        68.23035
747.59        68.27338
748.01        68.34425
748.42        68.43128
748.84        68.48328
749.26        68.50182
749.68        68.48982
750.09        68.46868
750.51        68.50557
750.93        68.57505
751.35        68.65343
751.76         68.7622
752.18        68.66248
752.60          68.862
753.01        68.93237
753.43        68.99439
753.85        68.95443
754.27        68.80801
754.68        68.82346
755.10        68.76278
755.52        68.58817
755.93         68.8206
756.35        68.90106
756.77        69.06411
757.18        69.28646
757.60        69.55612
758.02        70.16355
758.43        70.78631
758.85        70.36707
759.26         69.2231
759.68        68.75213
760.10        69.02366
760.51        69.90688
760.93        69.96475
761.34        70.13699
761.76        70.03388
762.18        69.94966
762.59        69.92691
763.01        69.68968
763.42        69.33242
763.84        69.13139
764.26        69.14989
764.67        69.15159
765.09        69.20641
765.50        69.66482
765.92         70.3813
766.33        70.67319
766.75        70.43837
767.16        70.40266
767.58        70.55754
768.00        70.31055
768.41        69.83344
768.83        69.97208
769.24        70.54609
769.66        70.68452
770.07        70.38762
770.49         69.9282
770.90        69.82716
771.32        70.20392
771.73        71.00011
772.15        71.28957
772.56        71.00111
772.97        70.91164
773.39        70.64697
773.80        70.66172
774.22        70.81661
774.63        71.15766
775.05        71.51719
775.46        71.71367
775.88        71.66116
776.29        71.47179
776.70         71.2249
777.12        71.00946
777.53        70.86336
777.95        70.98612
778.36        70.93535
778.77        71.05739
779.19        71.19835
779.60        71.49581
780.02        71.82507
780.43        71.88586
780.84        71.74736
781.26        71.70928
781.67        71.85038
782.09        72.29321
782.50        72.84355
782.91         72.7709
783.33        72.13734
783.74        71.79396
784.15        71.80144
784.57        71.66366
784.98        71.41335
785.39        71.35598
785.81        71.51418
786.22        71.79475
786.63        72.16136
787.04        72.55552
787.46        72.93962
787.87        73.29417
788.28        73.59161
788.70        73.78541
789.11        73.85841
789.52        73.83903
789.93        73.73779
790.35        73.57215
790.76        73.37891
791.17        73.16811
791.58         73.0103
792.00         72.9662
792.41        73.06263
792.82        73.34067
793.23        73.70963
793.65        73.82626
794.06        73.74245
794.47        73.90333
794.88        74.23221
795.29        74.27647
795.71        73.99655
796.12        73.67524
796.53        73.44235
796.94        73.42783
797.35        73.68404
797.76         74.1749
798.18        74.72402
798.59        75.08665
799.00        75.17025
799.41        75.04631
799.82        74.81672
800.23        74.66479
800.64        74.65279
801.06        74.69443
801.47        74.79792
801.88        74.90271
802.29         74.9741
802.70        75.01496
803.11          75.016
803.52        74.95706
803.93        74.84984
804.34        74.72227
804.75        74.56723
805.17        74.43053
805.58        74.41467
805.99        74.32241
806.40        74.26111
806.81        74.99104
807.22        76.16933
807.63        76.18048
808.04        75.15965
808.45        74.81982
808.86        75.29437
809.27        75.57838
809.68        75.55741
810.09        75.55144
810.50        75.54419
810.91        75.45088
811.32        75.34589
811.73        75.34449
812.14        75.46685
812.55         75.6974
812.96        75.94471
813.37        76.02687
813.78         75.9071
814.19        75.66258
814.60        75.39998
815.01        75.26704
815.42        75.29977
815.83        75.44566
816.24        75.67049
816.65        75.90283
817.05        76.09156
817.46         76.2095
817.87        76.24926
818.28        76.14234
818.69        75.89626
819.10         75.5444
819.51        75.16496
819.92        74.91562
820.33        74.85242
820.74        74.91722
821.14        75.10599
821.55        75.41132
821.96        75.79652
822.37        76.28149
822.78        76.69389
823.19        76.72809
823.60        76.31805
824.00         75.5313
824.41        74.67908
824.82        74.28807
825.23         74.4713
825.64        75.11789
826.04        75.89043
826.45        76.09557
826.86        75.59354
827.27        74.60199
827.68        73.55382
828.08        73.15503
828.49        73.53397
828.90        74.50619
829.31        75.72773
829.72        76.60504
830.12        76.96215
830.53        76.88127
830.94        76.61419
831.35        76.54562
831.75        76.81039
832.16        77.18935
832.57        77.53849
832.97        77.59131
833.38        77.29349
833.79        76.83295
834.20        76.30937
834.60        75.82159
835.01        75.45546
835.42        75.13503
835.82        75.02808
836.23        75.34661
836.64        76.11561
837.04        77.30323
837.45        78.43285
837.86        78.85524
838.26         78.4132
838.67        77.30658
839.08        76.01237
839.48        75.26265
839.89        75.28612
840.29        75.85916
840.70         76.6844
841.11        77.29026
841.51         77.5405
841.92        77.53731
842.33        77.43046
842.73        77.44567
843.14        77.60043
843.54        77.84131
843.95        78.05592
844.35        78.15182
844.76        78.07817
845.17        77.86377
845.57        77.63218
845.98        77.53457
846.38        77.62373
846.79        77.85377
847.19        78.03652
847.60        77.80562
848.00         77.1347
848.41        76.17162
848.81        75.26766
849.22        74.94012
849.62        75.33133
850.03        76.24297
850.43        77.42355
850.84        78.19976
851.24        78.41296
851.65        78.13495
852.05        77.62276
852.46        77.25443
852.86        77.13684
853.27        77.21302
853.67        77.26001
854.07        77.18709
854.48        76.91734
854.88        76.53143
855.29        76.09711
855.69        75.96677
856.10        76.13088
856.50        76.59758
856.90        77.06314
857.31        77.11962
857.71         76.7395
858.12        76.00526
858.52        75.25145
858.92         74.9808
859.33          75.301
859.73        76.09843
860.13        77.05116
860.54        77.64307
860.94        77.76317
861.34        77.46496
861.75         76.9016
862.15        76.41152
862.55        76.08012
862.96        75.85078
863.36        75.56236
863.76        74.98518
864.17        74.13441
864.57        73.16104
864.97        72.32204
865.38        71.93767
865.78        72.10307
866.18        72.68324
866.58        73.52985
866.99        74.30479
867.39        74.88748
867.79        75.31615
868.19        75.50856
868.60         75.3564
869.00        74.90053
869.40         74.1609
869.80         73.4834
870.21         73.4682
870.61         74.2636
871.01        75.62567
871.41        77.05828
871.81        77.76414
872.22        77.53298
872.62        76.61169
873.02        75.33218
873.42        74.26382
873.82        73.64702
874.22        73.37674
874.63         73.3542
875.03        73.42075
875.43        73.51788
875.83        73.69396
876.23        74.05965
876.63         74.7635
877.03        75.76551
877.44        76.90629
877.84        77.89648
878.24        78.19838
878.64        77.72999
879.04        76.71048
879.44        75.51521
879.84        74.69629
880.24        74.39133
880.64        74.43034
881.04        74.71475
881.44        75.05618
881.84        75.37148
882.24        75.76764
882.65        76.06226
883.05        76.07539
883.45        75.74083
883.85        75.12011
884.25         74.5799
884.65        74.70742
885.05        75.57401
885.45        76.94808
885.85        78.41783
886.25        79.26795
886.65        79.26225
887.05        78.63902
887.45        77.55737
887.85        76.32162
888.25        75.17104
888.65        74.09988
889.04        73.30904
889.44         73.1377
889.84        73.54808
890.24        74.49067
890.64        75.69292
891.04        76.52748
891.44         76.7447
891.84        76.49994
892.24        76.03738
892.64         75.7309
893.04        75.67346
893.44        75.72944
893.83        75.90282
894.23        76.12238
894.63        76.38245
895.03        76.74293
895.43        77.07886
895.83         77.1834
896.23        77.02106
896.63        76.59052
897.02        76.12988
897.42        76.10596
897.82        76.57742
898.22        77.45268
898.62        78.27616
899.01        78.29961
899.41         77.3856
899.81        75.80557
900.21        74.20897
900.61        73.58752
901.00        74.14123
901.40        75.55728
901.80        77.20281
902.20        78.02788
902.59        77.73695
902.99        76.65353
903.39        75.30029
903.79        74.45881
904.18        74.34274
904.58         74.7495
904.98        75.32264
905.38        75.53391
905.77        75.23552
906.17        74.60233
906.57        74.00016
906.96        74.01641
907.36        74.72315
907.76        75.94175
908.15        77.15627
908.55        77.39029
908.95        76.51239
909.34        74.85419
909.74        73.16685
910.14        72.46082
910.53        73.01536
910.93        74.46856
911.33        76.38374
911.72         78.0722
912.12         79.1756
912.52        79.87007
912.91        80.27021
913.31        80.55254
913.70        80.78355
914.10        80.82896
914.49        80.57414
914.89         79.8735
915.29        78.78732
915.68        77.47729
916.08        76.28339
916.47         75.5636
916.87        75.45486
917.26        75.79761
917.66        76.44572
918.05        77.16533
918.45        77.77674
918.84        78.38324
919.24        78.76372
919.64        78.72025
920.03        78.24642
920.42        77.36229
920.82        76.42796
921.21        75.91031
921.61        75.92865
922.00        76.39697
922.40        77.02351
922.79        77.37646
923.19        77.29967
923.58        76.95518
923.98        76.56414
924.37        76.48199
924.77        76.77826
925.16        77.31485
925.55        77.89822
925.95        78.23061
926.34        78.24204
926.74        78.01825
927.13        77.66468
927.52        77.31134
927.92        77.02319
928.31        76.73949
928.70        76.48642
929.10        76.29155
929.49        76.15935
929.89        76.08394
930.28        76.02812
930.67        75.82967
931.07        75.47604
931.46        75.04535
931.85        74.65719
932.24        74.49831
932.64        74.61723
933.03        74.96548
933.42        75.46204
933.82         75.9444
934.21        76.34812
934.60        76.62292
934.99          76.825
935.39        77.03674
935.78        77.32597
936.17        77.65755
936.56        77.74321
936.96        77.16515
937.35        75.94316
937.74        74.31187
938.13        72.88601
938.53        72.43524
938.92        73.03828
939.31        74.53858
939.70        76.38079
940.09        77.46616
940.49        77.41072
940.88        76.51086
941.27        75.37502
941.66        74.93727
942.05        75.41286
942.44        76.56419
942.84        77.81065
943.23        78.20362
943.62        77.43711
944.01        75.85651
944.40        74.24982
944.79        73.74352
945.18        74.55783
945.57        76.36655
945.97        78.32492
946.36        79.21043
946.75        78.56662
947.14        76.81387
947.53        74.81817
947.92        73.88448
948.31        74.32893
948.70        75.77336
949.09        77.51067
949.48        78.27075
949.87        77.68507
950.26        76.21971
950.65        74.57851
951.04        73.70855
951.43        73.83625
951.82        74.67294
952.21        75.79327
952.60        76.44505
952.99        76.35059
953.38        75.72891
953.77        75.00876
954.16        74.74043
954.55        75.05322
954.94        75.87362
955.33        76.73155
955.72        76.68884
956.11        75.53037
956.50        73.61067
956.89        71.92123
957.28        71.75352
957.66        73.34374
958.05        76.27798
958.44        79.53483
958.83        81.00649
959.22        80.04037
959.61        77.40162
960.00        74.35876
960.39        72.52188
960.78        72.19927
961.16        72.94949
961.55        74.18607
961.94        74.83436
962.33        74.49655
962.72        73.65864
963.11        72.70072
963.49        72.08675
963.88        71.94636
964.27        72.03999
964.66        72.38307
965.04        73.10539
965.43        74.06081
965.82        75.25654
966.21        76.33869
966.60        76.64619
966.98        76.08496
967.37        74.94765
967.76        73.66734
968.15        72.83115
968.53        72.55424
968.92        72.58878
969.31        72.98409
969.69        73.82371
970.08        74.96948
970.47        76.55671
970.86        77.90549
971.24        77.85802
971.63        76.24711
972.02        73.49138
972.40        70.87994
972.79         70.4352
973.17        72.46355
973.56        76.22598
973.95        80.49204
974.33        82.92108
974.72        82.66741
975.11         80.4949
975.49        77.46432
975.88        75.53403
976.26        75.24415
976.65        75.94897
977.04        77.16662
977.42        78.02905
977.81        78.04436
978.19        77.68254
978.58        77.09635
978.96        76.34409
979.35        75.59441
979.74        74.80786
980.12        74.26996
980.51        74.47329
980.89        75.55876
981.28         77.1897
981.66        79.23795
982.05        81.15843
982.43        82.82298
982.82        84.28864
983.20        85.11066
983.59        84.46661
983.97        82.38885
984.35        79.17841
984.74        76.20152
985.12         75.3447
985.51        76.83975
985.89         80.2686
986.28        84.06796
986.66        85.94495
987.04        85.06824
987.43         82.0952
987.81        78.30074
988.20        76.23319
988.58        76.60519
988.96        78.76272
989.35        81.19634
989.73        81.67798
990.12        79.59337
990.50        75.81687
990.88         71.7178
991.27        69.47135
991.65        69.60017
992.03        71.41672
992.42        73.94492
992.80        76.01389
993.18        77.10609
993.56        77.59188
993.95        77.60323
994.33        77.55959
994.71        77.55017
995.10        77.45776
995.48        77.27478
995.86         77.1228
996.24        77.05716
996.63         77.0284
997.01        77.27171
997.39        77.92048
997.77        78.91444
998.15        80.14499
998.54        81.20739
998.92        81.52285
999.30        80.96974
999.68        79.73442
1000.06        78.22089
1000.45        77.17663
1000.83        76.97287
1001.21        77.40871
1001.59        78.35453
1001.97        79.54607
1002.35        80.78361
1002.73        82.08803
1003.12        83.16872
1003.50        83.49129
1003.88        83.01994
1004.26        81.91739
1004.64        80.52827
1005.02        79.50471
1005.40        79.09095
1005.78        79.11908
1006.16        79.49632
1006.54        80.08263
1006.92         80.7838
1007.30        81.64083
1007.69        82.43054
1008.07        82.79693
1008.45        82.53227
1008.83        81.74435
1009.21        80.60339
1009.59        79.47295
1009.97        78.51501
1010.35        77.59217
1010.73         76.9922
1011.11         77.1454
1011.49        78.01856
1011.86        79.54923
1012.24        80.80496
1012.62         80.5295
1013.00        78.44837
1013.38        74.77814
1013.76        70.53168
1014.14        67.97342
1014.52         67.9976
1014.90        70.06717
1015.28        72.87989
1015.66        74.30206
1016.04        73.73135
1016.41        71.85347
1016.79        69.35452
1017.17        67.71982
1017.55        67.54951
1017.93        68.23569
1018.31        69.36272
1018.69        70.75032
1019.06        72.54134
1019.44        74.89241
1019.82         78.0617
1020.20         81.3697
1020.58        83.55383
1020.95        84.07356
1021.33        83.11626
1021.71         80.9986
1022.09        77.69072
1022.46        72.72469
1022.84        66.40611
1023.22        60.50502
1023.60          57.223
1023.97         56.7047
1024.35        58.11102
1024.73        60.40205
