SpectraSmart Spectrum 2.9.0.0
--------- Device Information -----------
Spectrum Name :  反射率_0
Saving Time :  2024/04/30 01:12:39
Spectro-Module Model Name : SE2030-DUVN
Spectro-Module Serial Number : OS361AC55029948
Wavelength Start : 200
Wavelength End : 1025
Wavelength Unit : Wavelength(nm)
Spectrum Unit : Reflectance(%)
-----------Spectrum Setting ------------
Integration Time : 20ms
Average : 10
Boxcar : 0
Background removal :  enabled
linearity correction :  enabled
SC :  disabled
Intensity correction :  disabled
DWT denoise :  enabled
savitzky-golay :  disabled
FFT :  disabled
Running average :  disabled
Kalman :  disabled
High pass :  disabled
---------------BEGIN--------------------
Wavelength(nm)             Reflectance(%)
200.29               0
200.75        83.51083
201.21        70.03691
201.67        55.70727
202.13        49.26601
202.58         54.5741
203.04        70.31939
203.50        92.81095
203.96        113.0415
204.42        124.9331
204.88        128.5463
205.34        123.8776
205.80        113.9413
206.26        102.9683
206.72        92.73951
207.18        84.07104
207.64        76.41131
208.10        68.85258
208.55        60.79964
209.01        53.50873
209.47        51.21217
209.93        54.52848
210.39         61.1736
210.85        67.03081
211.31        68.63609
211.77        65.65823
212.23        57.65987
212.69        46.68147
213.14        43.69305
213.60        52.82259
214.06        67.53581
214.52        79.46358
214.98        83.53957
215.44        81.13007
215.90        74.43969
216.36        67.18401
216.81        66.51685
217.27        76.21892
217.73        97.14731
218.19        127.5826
218.65        151.3146
219.11        155.7213
219.57        145.5648
220.02        133.1747
220.48        129.1762
220.94        133.2832
221.40        143.4732
221.86        155.9989
222.32        157.9955
222.77        146.3291
223.23        132.0378
223.69        121.1917
224.15        115.8643
224.61        114.8958
225.06        116.8403
225.52        121.2206
225.98        126.2272
226.44        130.0217
226.90         132.453
227.36        134.2711
227.81        136.4207
228.27        139.4411
228.73        142.8663
229.19        145.4008
229.65         144.484
230.10        140.2549
230.56        135.3875
231.02        131.3512
231.48         129.356
231.93        129.1259
232.39        130.0951
232.85        132.2261
233.31        135.6019
233.77        139.8976
234.22        145.3232
234.68        149.9379
235.14        150.5412
235.60        146.5772
236.05        138.9648
236.51        131.0768
236.97        127.2022
237.43        128.2316
237.88        134.1824
238.34        142.6054
238.80        146.8527
239.26        142.9163
239.71        132.9065
240.17        121.3418
240.63        113.9356
241.08        112.0688
241.54        114.8296
242.00        122.9127
242.46        132.3989
242.91        137.2799
243.37        136.2949
243.83        132.8318
244.28        131.9818
244.74        134.4677
245.20        137.7673
245.66        141.1405
246.11        143.5034
246.57        143.4239
247.03         142.859
247.48         138.005
247.94        123.2295
248.40        104.5655
248.85        88.02821
249.31        78.28353
249.77         75.8119
250.22        79.57631
250.68         90.3267
251.14        108.7159
251.59        122.2315
252.05        119.5795
252.51        109.5113
252.96        100.9513
253.42        98.21245
253.88        99.74003
254.33         103.711
254.79        109.2719
255.25        113.2747
255.70        114.1991
256.16         114.181
256.62        114.1622
257.07        114.8084
257.53        116.7183
257.99        119.1341
258.44        120.8371
258.90        121.1545
259.35        119.6352
259.81        117.8046
260.27        116.2625
260.72        115.5666
261.18        115.9917
261.63         116.558
262.09        117.0023
262.55        116.3074
263.00        114.3987
263.46        112.2256
263.91        109.9254
264.37        108.3239
264.83        107.2813
265.28        106.4782
265.74        105.9876
266.19        105.5057
266.65        105.0968
267.11        104.7291
267.56        104.3071
268.02        103.7979
268.47        103.1027
268.93        102.2429
269.38        101.2079
269.84        100.1266
270.30        99.04572
270.75        97.93023
271.21        96.83468
271.66        95.67348
272.12        94.46922
272.57        93.17838
273.03        91.84043
273.48        90.37119
273.94        88.90418
274.39        87.38054
274.85        85.98152
275.31        84.72513
275.76        83.55801
276.22        82.55492
276.67        81.56268
277.13        80.61642
277.58        79.59541
278.04         78.6204
278.49        77.60087
278.95        76.64829
279.40          75.675
279.86        74.78671
280.31        73.89113
280.77        73.09969
281.22        72.31938
281.68        71.59433
282.13         70.8658
282.59        70.23096
283.04        69.59267
283.50        68.97204
283.95        68.19008
284.41         67.0898
284.86        65.64639
285.32        64.05057
285.77        62.45028
286.22        61.18815
286.68        60.34498
287.13        59.76786
287.59        59.38236
288.04        58.95885
288.50        58.47112
288.95         57.9085
289.41        57.34161
289.86        56.76766
290.32        56.22829
290.77        55.68316
291.22        55.09772
291.68        54.43018
292.13        53.67771
292.59        52.92326
293.04        52.28404
293.50        51.99087
293.95        52.04014
294.40        52.36846
294.86        52.77702
295.31        52.96955
295.77        52.86921
296.22        52.54288
296.68        52.15391
297.13        51.93057
297.58        51.94535
298.04        52.10443
298.49         52.2876
298.95        52.32458
299.40        52.16305
299.85        51.87756
300.31        51.57374
300.76        51.32677
301.21        51.19543
301.67        51.16117
302.12        51.13954
302.58        51.15593
303.03        51.17466
303.48        51.12023
303.94        51.00482
304.39         51.3318
304.84        51.24751
305.30        51.42347
305.75        51.54131
306.20        51.59294
306.66        51.57858
307.11        51.48964
307.57        51.36886
308.02        51.17353
308.47        50.93275
308.93        50.66444
309.38        50.38409
309.83        50.18269
310.29        50.07754
310.74        50.03487
311.19        49.99955
311.65        49.87096
312.10        49.62297
312.55         49.3026
313.00         48.9756
313.46        48.74421
313.91        48.61875
314.36        48.55952
314.82        48.53297
315.27        48.51144
315.72        48.45936
316.18        48.39277
316.63        48.25691
317.08        47.97601
317.53        47.55774
317.99        47.04643
318.44        46.53288
318.89        46.17017
319.35         45.9949
319.80        45.95891
320.25        46.01951
320.70        46.10204
321.16        46.15173
321.61        46.20543
322.06        46.19932
322.51        46.04493
322.97         45.7348
323.42         45.2993
323.87        44.83745
324.32        44.52007
324.78         44.3771
325.23        44.38973
325.68        44.46392
326.13        44.43904
326.59        44.25798
327.04        43.97994
327.49        43.67126
327.94        43.46014
328.39        43.37283
328.85        43.34572
329.30        43.32848
329.75        43.16457
330.20        42.82728
330.66         42.3809
331.11        41.93174
331.56        41.60717
332.01        41.45377
332.46        41.43227
332.92        41.50978
333.37        41.67993
333.82        41.89679
334.27        42.15876
334.72        42.40658
335.17         42.5468
335.63         42.5452
336.08        42.42777
336.53         42.2331
336.98         42.0649
337.43        41.96157
337.88         41.9075
338.34        41.87196
338.79        41.82058
339.24        41.73806
339.69        41.64956
340.14        41.58008
340.59        41.56426
341.05         41.6119
341.50        41.70441
341.95        41.81181
342.40        41.89969
342.85        41.95173
343.30        41.96395
343.75        41.94708
344.20        41.92243
344.66        41.90744
345.11         41.8992
345.56        41.86902
346.01        41.76726
346.46        41.60147
346.91        41.39612
347.36         41.2415
347.81        41.27205
348.26        41.49851
348.72        41.86155
349.17        42.24669
349.62         42.4473
350.07        42.40635
350.52        42.19529
350.97         41.8985
351.42        41.64482
351.87         41.4846
352.32        41.38463
352.77        41.35386
353.22        41.40876
353.67         41.5322
354.13        41.70574
354.58        41.87806
355.03         41.9612
355.48        41.92494
355.93        41.79067
356.38        41.55949
356.83        41.23941
357.28        40.85637
357.73        40.42453
358.18         40.0123
358.63        39.72598
359.08        39.58125
359.53        39.53968
359.98        39.53746
360.43        39.46729
360.88        39.29328
361.33        39.04721
361.78        38.73335
362.23        38.36184
362.68        37.95363
363.13        37.51286
363.58        37.09454
364.03         36.7856
364.48        36.60356
364.93          36.528
365.38        36.50498
365.83        36.44135
366.28         36.3077
366.73        36.12383
367.18        35.91584
367.63        35.72905
368.08        35.57249
368.53        35.42442
368.98        35.26734
369.43        35.07583
369.88        34.84914
370.33        34.61075
370.78        34.37158
371.23        34.14647
371.68        33.94289
372.13        33.74697
372.58        33.58375
373.03         33.4938
373.48        33.46877
373.93        33.48855
374.38        33.47128
374.83         33.2855
375.28        32.91885
375.72        32.42177
376.17        31.92252
376.62        31.54707
377.07        31.32671
377.52        31.21481
377.97        31.18676
378.42        31.20002
378.87        31.22657
379.32        31.27684
379.77        31.30375
380.22         31.2376
380.67        31.06488
381.11        30.78883
381.56         30.4791
382.01        30.26014
382.46        30.16637
382.91        30.17779
383.36        30.20126
383.81        30.08781
384.26        29.81709
384.71        29.43984
385.15        29.07722
385.60        28.94949
386.05        29.07347
386.50         29.3606
386.95        29.66084
387.40        29.74293
387.85        29.56121
388.29        29.19278
388.74        28.77833
389.19        28.42104
389.64        28.15784
390.09        27.94267
390.54        27.79823
390.98        27.76154
391.43        27.83442
391.88        27.99933
392.33        28.15669
392.78        28.18897
393.23        28.08496
393.67        27.81759
394.12          27.503
394.57        27.49639
395.02        27.42213
395.47        27.54881
395.91        27.68612
396.36        27.70283
396.81        27.57277
397.26        27.35247
397.71         27.0987
398.15        26.87907
398.60        26.75283
399.05        26.64155
399.50        26.53895
399.95        26.55375
400.39        26.54242
400.84        26.50003
401.29        26.39775
401.74        26.34453
402.18        26.34899
402.63        26.32897
403.08        26.30532
403.53        26.33442
403.97        26.41282
404.42        26.52118
404.87        26.59957
405.32        26.55253
405.76        26.36352
406.21         26.0822
406.66        25.78728
407.11        25.60384
407.55        25.57101
408.00        25.64881
408.45        25.78421
408.90        25.87185
409.34        25.87381
409.79        25.81727
410.24        25.75007
410.68        25.74555
411.13        25.81729
411.58        25.93135
412.03        26.03033
412.47         26.0281
412.92         25.8936
413.37         25.6768
413.81        25.42879
414.26        25.25592
414.71        25.16761
415.15        25.14398
415.60        25.15161
416.05        25.15803
416.49        25.15172
416.94        25.14834
417.39        25.14369
417.83        25.12449
418.28        25.09384
418.73        25.04198
419.17        24.99962
419.62        25.02275
420.07        25.11333
420.51        25.24905
420.96        25.37232
421.41        25.38028
421.85        25.25058
422.30        25.04443
422.74        24.81785
423.19        24.69135
423.64        24.67929
424.08        24.76128
424.53        24.87583
424.98         24.9528
425.42        24.97212
425.87         24.9389
426.31        24.87932
426.76        24.87076
427.21        24.84519
427.65         24.8222
428.10        24.78362
428.54         24.6769
428.99        24.51363
429.44        24.46799
429.88        24.48797
430.33         24.1734
430.77        23.71478
431.22        23.90351
431.66        24.61446
432.11        24.97369
432.56        24.86185
433.00        24.56638
433.45        24.21223
433.89         24.1882
434.34        24.45412
434.78         24.4274
435.23        24.12647
435.67        23.99814
436.12        24.05999
436.57        24.03279
437.01        23.94405
437.46        23.96065
437.90        24.08532
438.35        24.26673
438.79        24.44164
439.24        24.47134
439.68        24.36533
440.13          24.267
440.57        24.18824
441.02        24.12115
441.46        24.07946
441.91        23.97297
442.35        23.83773
442.80        24.07108
443.24        24.51968
443.69        24.43806
444.13         23.8947
444.58        23.64815
445.02        23.70518
445.47        23.66805
445.91        23.53993
446.36        23.52457
446.80        23.61546
447.24        23.76413
447.69        23.91785
448.13        23.98863
448.58        23.96204
449.02        23.86267
449.47        23.75004
449.91        23.70448
450.36        23.74916
450.80        23.85244
451.25        23.97082
451.69        24.02837
452.13        24.00601
452.58        23.94152
453.02         23.8613
453.47        23.80119
453.91        23.76969
454.36        23.82107
454.80        23.83221
455.24        23.88401
455.69        23.93897
456.13        23.99231
456.58         24.0443
457.02        24.07301
457.46        24.07895
457.91        24.06503
458.35        24.02688
458.79        23.97448
459.24        23.92705
459.68        23.89882
460.13        23.89793
460.57        23.83134
461.01        23.88123
461.46        23.81372
461.90        23.72779
462.34        23.91735
462.79        24.27515
463.23        24.27526
463.68        23.95571
464.12        23.82085
464.56         23.8926
465.01         23.9227
465.45        23.88005
465.89        23.82461
466.34        23.79645
466.78         23.8873
467.22         24.1264
467.67        24.17283
468.11        24.02838
468.55        23.82172
468.99         23.6243
469.44        23.48545
469.88        23.42945
470.32        23.45194
470.77        23.50716
471.21        23.53442
471.65        23.51064
472.10        23.46564
472.54         23.4276
472.98        23.45959
473.42        23.56805
473.87        23.72057
474.31        23.87077
474.75        23.96005
475.20        23.97817
475.64        23.93905
476.08        23.86397
476.52        23.77972
476.97        23.70239
477.41         23.6248
477.85        23.57066
478.29        23.57533
478.74        23.65025
479.18        23.76873
479.62        23.89166
480.06        24.01223
480.50        24.13035
480.95        24.03247
481.39        24.10775
481.83        24.15276
482.27          24.298
482.72        24.31808
483.16        24.52302
483.60        24.59579
484.04        24.62673
484.48        24.62267
484.93        24.60099
485.37        24.61693
485.81        24.67282
486.25        24.60268
486.69        24.35103
487.14        24.59573
487.58        24.90128
488.02        24.94578
488.46        25.06406
488.90        25.48789
489.34        24.93165
489.79        24.96866
490.23        25.15553
490.67        25.41848
491.11        25.64009
491.55        25.54559
491.99         25.2474
492.43        25.22518
492.88        25.51299
493.32        25.81662
493.76        26.05915
494.20        26.28473
494.64         26.4707
495.08        26.59202
495.52        26.66513
495.96        26.75255
496.41        26.86892
496.85        26.94422
497.29        26.96459
497.73         27.1417
498.17        27.14667
498.61         27.1788
499.05        27.15479
499.49          27.125
499.93        27.11891
500.37        27.19981
500.82        27.35635
501.26        27.49135
501.70        27.59135
502.14        27.71189
502.58        27.85111
503.02        27.97675
503.46        28.08602
503.90        28.18724
504.34        28.27384
504.78        28.33764
505.22        28.37893
505.66         28.3937
506.10        28.39538
506.54        28.43893
506.98        28.53687
507.42        28.61988
507.86        28.64018
508.30        28.84439
508.74        28.69773
509.18        28.64278
509.62        28.57476
510.06        28.58883
510.50          28.699
510.94        28.88582
511.38        29.09592
511.82        29.22573
512.26        29.24784
512.70        29.18852
513.14        29.10307
513.58        29.07754
514.02        29.13367
514.46        29.24771
514.90        29.36732
515.34        29.40865
515.78        29.35364
516.22        29.23101
516.66        29.10523
517.10        29.07417
517.54        29.15678
517.98        29.31929
518.42        29.49147
518.86        29.56118
519.30        29.50207
519.74        29.35214
520.18        29.17638
520.62        29.07339
521.06        29.07098
521.50        29.14194
521.93        29.24467
522.37        29.30143
522.81        29.29408
523.25        29.24446
523.69        29.18975
524.13        29.18634
524.57        29.24132
525.01        29.32651
525.45        29.39887
525.89        29.39247
526.32        29.28989
526.76        29.12959
527.20        28.94281
527.64        28.77687
528.08        28.65112
528.52        28.55416
528.96        28.49322
529.40        28.47885
529.83        28.50406
530.27        28.56659
530.71        28.63414
531.15        28.65818
531.59        28.62423
532.03        28.53963
532.46        28.42425
532.90        28.32368
533.34        28.25071
533.78        28.20192
534.22        28.16021
534.66        28.09731
535.09        28.00839
535.53        27.91186
535.97        27.83957
536.41        27.84745
536.85        27.94033
537.28        28.09275
537.72        28.24929
538.16        28.32491
538.60        28.29994
539.04        28.20478
539.47        28.07564
539.91        27.99498
540.35        27.97791
540.79        28.00955
541.22        28.07579
541.66        28.15841
542.10        28.24638
542.54        28.34947
542.97        28.46653
543.41        28.59769
543.85        28.73875
544.29        28.88917
544.72         29.0277
545.16        29.14411
545.60        29.23406
546.04         29.2892
546.47        29.34045
546.91          29.482
547.35        29.70356
547.79        29.89516
548.22        30.02329
548.66        30.19783
549.10        30.42035
549.53        30.53153
549.97        30.50675
550.41        30.93655
550.84        30.89776
551.28        31.07957
551.72         31.1747
552.15        31.40768
552.59        31.38353
553.03        31.43394
553.46         31.4758
553.90        31.55303
554.34        31.66768
554.77        31.83918
555.21        32.04084
555.65        32.14495
556.08        32.16612
556.52        32.26999
556.96        32.44596
557.39        32.59912
557.83        32.71788
558.27        32.78391
558.70        32.82485
559.14        32.92764
559.57         33.0672
560.01         33.1939
560.45        33.28782
560.88        33.21112
561.32        33.17227
561.75        33.22554
562.19        33.39942
562.63        33.41617
563.06        33.30893
563.50        33.38951
563.93        33.61992
564.37        33.75892
564.80        33.78381
565.24        33.82497
565.68        33.89385
566.11         33.9811
566.55          34.092
566.98        34.17887
567.42        34.27137
567.85        34.35225
568.29         34.4256
568.72        34.58503
569.16        34.89022
569.60        34.70641
570.03        35.10944
570.47        35.28687
570.90        35.49875
571.34        35.56305
571.77        35.71678
572.21        35.73292
572.64        35.71129
573.08        35.83968
573.51        36.12684
573.95         36.0854
574.38        36.51042
574.82        36.25209
575.25        36.33089
575.69        36.51479
576.12        36.29242
576.56         36.4846
576.99        36.48527
577.42        36.36774
577.86        36.45555
578.29        36.43032
578.73        36.43048
579.16        36.56863
579.60         36.3231
580.03        36.24631
580.47        36.50602
580.90        36.43785
581.33        36.16778
581.77        36.34535
582.20        36.06768
582.64        36.21489
583.07        35.82528
583.51        35.58871
583.94         35.4455
584.37         35.2354
584.81        35.05929
585.24        35.19451
585.68        35.36173
586.11        35.42575
586.54        34.96797
586.98        34.91568
587.41        35.58602
587.85        35.01083
588.28        35.01789
588.71        35.28451
589.15        34.70507
589.58        35.06409
590.01        34.70332
590.45        34.74839
590.88         34.8382
591.31         34.9663
591.75        35.04774
592.18         35.0832
592.61        35.14277
593.05        34.67626
593.48        35.09063
593.91        35.07411
594.35         35.0485
594.78        35.08765
595.21        35.21345
595.65        35.20217
596.08        35.10984
596.51        35.50704
596.94        35.87976
597.38        36.21898
597.81        36.35365
598.24         36.2826
598.68        36.36756
599.11        36.68194
599.54        37.11466
599.97        37.32973
600.41        37.28502
600.84        37.92535
601.27        38.04138
601.70        38.55897
602.14        39.03609
602.57        39.23465
603.00        39.20683
603.43        39.50889
603.87         40.0327
604.30        40.54812
604.73         40.7883
605.16        41.17999
605.60        41.62659
606.03        41.99616
606.46        42.24395
606.89        42.64387
607.32        42.95471
607.76        43.34277
608.19        43.77126
608.62        43.81461
609.05        44.34665
609.48        44.70437
609.92        44.96188
610.35        45.24709
610.78        45.81616
611.21        45.71097
611.64         46.0799
612.07        46.43569
612.50        46.70884
612.94        47.06907
613.37        47.45027
613.80        47.51177
614.23        47.95554
614.66        48.16199
615.09        48.34244
615.52        48.49172
615.96        48.63419
616.39        48.85666
616.82        48.85424
617.25        49.35762
617.68        49.33993
618.11        49.61185
618.54        49.87094
618.97        50.05494
619.40        50.16862
619.84         50.3434
620.27        50.64368
620.70        50.86808
621.13        50.93738
621.56         51.3473
621.99        51.35263
622.42        50.92962
622.85        51.67328
623.28        51.22694
623.71        51.85028
624.14        51.24607
624.57         51.9003
625.00        51.52887
625.43         51.6766
625.86        51.51172
626.29        51.33899
626.72        51.27509
627.15        51.12229
627.58        51.07609
628.01        51.02869
628.44        50.83139
628.87        50.51418
629.30        50.33317
629.73        50.28474
630.16        50.11889
630.59        49.81946
631.02        49.64233
631.45        49.35929
631.88        49.08039
632.31        48.73708
632.74        48.35505
633.17        47.95017
633.60        47.55536
634.03        47.18143
634.46        46.81365
634.89        46.44507
635.32         46.0689
635.75        45.68303
636.18        45.29166
636.61        44.90097
637.04        44.52416
637.47        44.17001
637.89        43.81807
638.32        43.45588
638.75        43.14912
639.18        42.90919
639.61        42.48412
640.04        42.30679
640.47        42.00859
640.90        41.72022
641.33         41.4464
641.76        41.19727
642.18        40.98673
642.61         40.8059
643.04        40.65591
643.47        40.56259
643.90        40.55137
644.33        40.61447
644.76        40.79393
645.18        41.00771
645.61        41.00756
646.04        40.74288
646.47         40.7264
646.90        40.93606
647.33        41.06286
647.75        41.09715
648.18        41.24259
648.61        41.51712
649.04        41.81879
649.47        42.14385
649.89         42.6184
650.32        43.15034
650.75        43.44258
651.18        43.56607
651.61        43.87693
652.03        44.41238
652.46        45.06866
652.89        45.69645
653.32        45.98245
653.74         46.0665
654.17         46.1796
654.60        46.54774
655.03        47.74381
655.46         47.0772
655.88        48.25597
656.31        50.90361
656.74        51.04634
657.16        50.32722
657.59        49.18322
658.02        49.43932
658.45        50.81867
658.87        51.30098
659.30        51.10141
659.73        51.76771
660.15        52.10888
660.58        52.41159
661.01        52.75742
661.44        53.06646
661.86         53.0223
662.29        52.77511
662.72        53.15282
663.14        54.04578
663.57        54.22938
664.00        53.85969
664.42        53.90321
664.85        54.43832
665.27        54.88459
665.70        55.16409
666.13        55.44194
666.55        55.70404
666.98        55.90091
667.41        56.05088
667.83        56.17717
668.26        56.28381
668.69        56.37873
669.11        56.47403
669.54        56.58401
669.96        56.71436
670.39        56.88092
670.82        57.06294
671.24        57.19576
671.67        57.28014
672.09        57.39557
672.52        57.56567
672.94        57.82813
673.37        57.74313
673.80        58.29251
674.22        58.30091
674.65        58.57701
675.07         58.8139
675.50        59.03445
675.92        59.23488
676.35        59.40393
676.77        59.55463
677.20        59.65805
677.62        59.74535
678.05        59.88762
678.47        60.08061
678.90        60.27673
679.32        60.42755
679.75        60.50591
680.17        60.49587
680.60        60.40245
681.02        60.31121
681.45        60.34355
681.87        60.52367
682.30        60.89225
682.72         61.3545
683.15        61.47641
683.57        61.34048
684.00        61.53524
684.42        62.01275
684.85        62.24389
685.27        62.21348
685.70        62.16083
686.12        62.17549
686.54        62.47154
686.97        62.96856
687.39        63.31556
687.82        63.41722
688.24        63.50832
688.66        63.57339
689.09        63.43683
689.51        63.19001
689.94        63.08696
690.36        63.16946
690.78        63.36982
691.21        63.62998
691.63        63.85934
692.06        64.02193
692.48        64.15627
692.90        64.28439
693.33        64.39442
693.75        64.48259
694.17        64.61401
694.60        64.81146
695.02        64.71594
695.44        64.84434
695.87        65.08757
696.29        65.13057
696.71        65.14772
697.14        65.06704
697.56        65.16251
697.98        65.42249
698.41        65.63841
698.83        65.76492
699.25        65.97038
699.68        66.18842
700.10        66.30177
700.52        66.28094
700.94        66.17604
701.37        66.04182
701.79        65.98567
702.21        66.02987
702.64        66.15408
703.06        66.33731
703.48        66.55355
703.90        66.79173
704.33        67.07675
704.75         67.3466
705.17        67.56473
705.59        67.68817
706.01        67.71564
706.44        67.71136
706.86        67.75765
707.28        67.86621
707.70        68.11457
708.12        68.40744
708.55        68.36402
708.97        68.06727
709.39        68.05976
709.81        68.37546
710.23        68.62167
710.66        68.77637
711.08        69.10324
711.50        69.52168
711.92        69.80428
712.34        69.92013
712.76        69.93262
713.19        69.86073
713.61         69.7879
714.03        69.73049
714.45        69.67597
714.87        69.65267
715.29        69.70443
715.71        69.83423
716.13        70.03319
716.56        70.24277
716.98        70.44298
717.40        70.58004
717.82        70.66122
718.24         70.7001
718.66        70.72646
719.08        70.75223
719.50        70.76817
719.92         70.7756
720.34        70.77806
720.76        70.77842
721.19        70.77478
721.61        70.78429
722.03        70.80286
722.45        70.82919
722.87        70.86066
723.29        70.89468
723.71        70.92602
724.13        70.95538
724.55        70.99078
724.97         71.0295
725.39         71.0649
725.81          71.102
726.23        71.14487
726.65        71.21636
727.07        71.35625
727.49        71.56115
727.91        71.80024
728.33        72.03912
728.75        72.21515
729.17        72.30486
729.59        72.35211
730.01        72.33644
730.43        72.18528
730.85        71.94366
731.27        71.73144
731.69        71.63457
732.10        71.71575
732.52        71.98919
732.94        72.44762
733.36         72.9985
733.78        73.43155
734.20        73.67198
734.62        73.80465
735.04        73.84059
735.46        73.75832
735.88        73.64546
736.30        73.57855
736.72         73.5722
737.13        73.80362
737.55        74.08682
737.97        73.78646
738.39        73.08582
738.81        72.90714
739.23        73.29749
739.65        73.68733
740.06        73.89061
740.48        73.99203
740.90        73.93291
741.32        73.66507
741.74        73.34103
742.16        73.23698
742.57        73.42078
742.99        73.84467
743.41        74.35812
743.83         74.5731
744.25        74.48695
744.67        74.48344
745.08        74.60583
745.50        74.61856
745.92        74.55172
746.34        74.55583
746.75        74.63107
747.17        74.70247
747.59        74.76436
748.01        74.84317
748.42        74.94657
748.84        75.05136
749.26        75.16068
749.68        75.26448
750.09        75.33097
750.51        75.36217
750.93        75.34152
751.35        75.26387
751.76        75.17117
752.18        75.13261
752.60        75.16411
753.01        75.25817
753.43        75.35581
753.85        75.39127
754.27        75.36466
754.68        75.33253
755.10        75.32437
755.52        75.38377
755.93        75.49233
756.35        75.59557
756.77        75.75816
757.18        75.96764
757.60        76.19989
758.02        76.81045
758.43        77.47257
758.85        76.93263
759.26        75.60172
759.68        75.27749
760.10        75.88102
760.51        76.79865
760.93        76.58797
761.34        76.15751
761.76        76.58302
762.18        76.62958
762.59        76.69723
763.01         76.3996
763.42        75.89495
763.84        75.70261
764.26        75.88033
764.67        76.03944
765.09        76.19215
765.50         76.6378
765.92        77.25381
766.33        77.49773
766.75        77.27648
767.16        77.23162
767.58        77.34746
768.00        77.08215
768.41        76.60608
768.83        76.79702
769.24         77.4332
769.66        77.51094
770.07        77.03415
770.49        76.50758
770.90        76.19131
771.32         76.6527
771.73        77.68775
772.15        78.08918
772.56        77.75755
772.97        77.65144
773.39        77.38353
773.80        77.44747
774.22        77.68317
774.63        78.08801
775.05        78.47212
775.46        78.68382
775.88        78.63731
776.29        78.40449
776.70        78.07391
777.12        77.83253
777.53        77.74151
777.95        77.72404
778.36        77.78812
778.77        77.89563
779.19        78.02177
779.60        78.33356
780.02        78.70229
780.43        78.74519
780.84        78.56498
781.26        78.61218
781.67        78.92518
782.09        79.49034
782.50        80.05281
782.91        79.79805
783.33           78.87
783.74        78.39739
784.15        78.47946
784.57        78.48256
784.98        78.37543
785.39        78.41133
785.81        78.58634
786.22        78.83191
786.63         79.1588
787.04        79.55266
787.46        80.00068
787.87        80.52032
788.28        81.01382
788.70        81.24817
789.11        81.18543
789.52        80.98761
789.93        80.71479
790.35         80.3555
790.76        80.01212
791.17         79.8589
791.58        79.94498
792.00         80.0903
792.41         80.2855
792.82        80.79361
793.23        81.43679
793.65         81.4334
794.06        80.92518
794.47        80.92683
794.88         81.3809
795.29        81.41336
795.71        80.97833
796.12        80.70958
796.53        80.68346
796.94        80.57032
797.35        80.47558
797.76         80.9152
798.18        81.70272
798.59         82.1412
799.00        82.11851
799.41         81.9644
799.82        81.80247
800.23        81.72003
800.64        81.77958
801.06        81.92632
801.47        82.13301
801.88        82.27525
802.29        82.30032
802.70        82.20754
803.11        82.07065
803.52         81.9932
803.93        82.02486
804.34        82.22869
804.75        82.42454
805.17        82.30814
805.58        81.98151
805.99        81.38146
806.40         80.8353
806.81          81.634
807.22        83.34212
807.63         83.5513
808.04        82.36965
808.45        82.13348
808.86        82.97102
809.27        83.46039
809.68        83.42918
810.09        83.34055
810.50        83.18536
810.91        82.82932
811.32        82.44724
811.73        82.32384
812.14        82.51688
812.55        82.98721
812.96         83.5349
813.37         83.7612
813.78        83.56764
814.19        83.09766
814.60        82.57085
815.01         82.2984
815.42        82.35037
815.83        82.62035
816.24        82.99817
816.65        83.26938
817.05        83.34243
817.46        83.25749
817.87        83.07646
818.28         82.8176
818.69        82.51816
819.10        82.17705
819.51        81.89204
819.92        81.85249
820.33        82.09528
820.74        82.54207
821.14        83.08937
821.55        83.58198
821.96        83.95241
822.37         84.2477
822.78        84.39326
823.19         84.2743
823.60        83.89242
824.00        83.27514
824.41        82.64053
824.82        82.36681
825.23        82.52638
825.64        83.04397
826.04        83.67352
826.45        83.86369
826.86        83.51197
827.27        82.78635
827.68        81.98585
828.08        81.61071
828.49        81.74704
828.90        82.27888
829.31        83.02417
829.72        83.66772
830.12        84.11653
830.53        84.36566
830.94        84.52319
831.35        84.71848
831.75        85.00574
832.16        85.23653
832.57        85.34913
832.97        85.21647
833.38         84.8402
833.79        84.35806
834.20        83.86475
834.60        83.45817
835.01        83.21457
835.42        83.06514
835.82        83.13676
836.23        83.55569
836.64        84.32687
837.04        85.43339
837.45        86.43819
837.86        86.78652
838.26        86.34771
838.67        85.29124
839.08        84.05164
839.48        83.29333
839.89        83.22773
840.29         83.6552
840.70          84.311
841.11         84.7696
841.51        84.92323
841.92        84.88108
842.33        84.77125
842.73        84.78196
843.14        84.91947
843.54        85.12634
843.95        85.37325
844.35        85.70751
844.76        86.07298
845.17        86.43421
845.57        86.71251
845.98        86.73381
846.38        86.49372
846.79        86.05679
847.19        85.45905
847.60          84.715
848.00        83.92564
848.41        83.12647
848.81        82.55596
849.22        82.55294
849.62        83.18899
850.03        84.31232
850.43        85.64068
850.84        86.41418
851.24        86.47205
851.65        85.88266
852.05        84.99386
852.46        84.35458
852.86        84.12186
853.27        84.20911
853.67        84.32938
854.07        84.31852
854.48        84.07203
854.88        83.70784
855.29        83.28576
855.69        83.17094
856.10        83.34773
856.50        83.82004
856.90        84.30234
857.31        84.43386
857.71        84.19069
858.12        83.63309
858.52        83.06268
858.92        82.91273
859.33        83.26878
859.73        84.04736
860.13        84.93486
860.54        85.43238
860.94        85.44819
861.34         85.0193
861.75        84.34425
862.15        83.84831
862.55        83.62246
862.96        83.59285
863.36        83.49236
863.76        82.92201
864.17        81.87646
864.57        80.56429
864.97         79.3737
865.38        78.81668
865.78        79.04171
866.18        79.87054
866.58        81.06243
866.99        82.08382
867.39        82.74124
867.79        83.10098
868.19        83.16631
868.60        82.96665
869.00        82.56266
869.40        81.91653
869.80        81.28202
870.21        81.11089
870.61        81.54041
871.01        82.42097
871.41        83.35155
871.81        83.67033
872.22         83.2174
872.62        82.19091
873.02        80.96539
873.42        80.17117
873.82        80.01556
874.22        80.35833
874.63        80.90104
875.03        81.17822
875.43        81.07928
875.83        80.72705
876.23        80.46486
876.63         80.8502
877.03        81.95384
877.44        83.50159
877.84        85.00059
878.24        85.55819
878.64        85.00738
879.04        83.71369
879.44        82.19504
879.84         81.2034
880.24        80.93164
880.64        81.12035
881.04        81.65205
881.44        82.32148
881.84        83.00904
882.24        83.82746
882.65        84.48277
883.05          84.604
883.45        84.08737
883.85        83.06488
884.25        82.05834
884.65        81.88906
885.05        82.69113
885.45        84.17382
885.85        85.86798
886.25        86.94987
886.65        87.12859
887.05        86.66505
887.45        85.69289
887.85        84.47498
888.25        83.24417
888.65        81.99828
889.04        80.97466
889.44        80.57644
889.84        80.77276
890.24        81.51701
890.64        82.52986
891.04        83.18382
891.44        83.24732
891.84         82.8813
892.24         82.3792
892.64        82.17141
893.04        82.34876
893.44        82.76664
893.83         83.3063
894.23        83.67874
894.63        83.82468
895.03        83.84126
895.43        83.80832
895.83        83.83826
896.23        83.95579
896.63        84.08674
897.02        84.19574
897.42        84.29195
897.82        84.34769
898.22        84.41697
898.62        84.41651
899.01        84.21036
899.41        83.78931
899.81         83.2028
900.21         82.7058
900.61        82.69293
901.00        83.21317
901.40        84.13959
901.80        85.08582
902.20        85.41389
902.59        84.97096
902.99        83.95367
903.39        82.76748
903.79        82.02517
904.18        81.88155
904.58        82.19875
904.98         82.6728
905.38        82.83963
905.77        82.56428
906.17        81.99302
906.57        81.41563
906.96        81.31197
907.36        81.74149
907.76        82.57083
908.15        83.41379
908.55        83.50437
908.95        82.76227
909.34        81.44345
909.74        80.16392
910.14        79.72382
910.53         80.3373
910.93        81.69419
911.33        83.42366
911.72        84.94581
912.12        85.94572
912.52        86.58611
912.91        86.95194
913.31        87.16706
913.70        87.29626
914.10        87.22305
914.49        86.92743
914.89        86.39923
915.29        85.70236
915.68        84.94761
916.08        84.29315
916.47        83.81474
916.87        83.59381
917.26        83.53962
917.66        83.72418
918.05        84.28951
918.45        85.13936
918.84        86.27561
919.24        87.22443
919.64        87.35897
920.03        86.57598
920.42        85.06533
920.82        83.43651
921.21        82.51762
921.61        82.52155
922.00        83.23035
922.40        84.25083
922.79        84.98903
923.19        85.19614
923.58        85.07919
923.98        84.79841
924.37        84.60833
924.77        84.58501
925.16        84.62038
925.55        84.65891
925.95         84.6415
926.34        84.57568
926.74        84.50512
927.13        84.44592
927.52        84.36377
927.92        84.26685
928.31        84.12845
928.70        84.02126
929.10        84.05305
929.49        84.23544
929.89        84.49995
930.28        84.72544
930.67        84.60954
931.07        84.11469
931.46         83.3897
931.85         82.6383
932.24        82.16345
932.64        82.05682
933.03        82.24695
933.42        82.68056
933.82        83.23186
934.21        83.83776
934.60        84.43889
934.99        84.99752
935.39        85.43342
935.78        85.77427
936.17        86.00491
936.56        85.92553
936.96        85.29077
937.35        84.15918
937.74        82.70612
938.13        81.45834
938.53        81.06702
938.92        81.57818
939.31        82.86822
939.70        84.44572
940.09        85.33605
940.49        85.20477
940.88        84.32346
941.27        83.20029
941.66        82.61958
942.05        82.76961
942.44        83.45188
942.84        84.22797
943.23        84.42967
943.62        83.82203
944.01        82.66586
944.40         81.5442
944.79         81.2827
945.18        82.03408
945.57        83.54768
945.97        85.14295
946.36        85.90579
946.75        85.44996
947.14        84.08084
947.53        82.49247
947.92         81.7293
948.31        82.05968
948.70        83.22593
949.09        84.61761
949.48        85.14327
949.87        84.50244
950.26        83.05614
950.65        81.56664
951.04        81.07916
951.43        81.80336
951.82        83.46561
952.21        85.31676
952.60        85.99852
952.99        85.14038
953.38        83.18835
953.77        81.15374
954.16        80.37693
954.55         81.1242
954.94        83.13976
955.33         85.5053
955.72        86.26017
956.11        84.79362
956.50        81.81089
956.89        78.82829
957.28        77.80654
957.66        79.15079
958.05        82.25761
958.44        85.96061
958.83        87.87046
959.22        87.18819
959.61        84.74722
960.00        81.91753
960.39        80.45661
960.78        80.69127
961.16        82.11807
961.55        83.91122
961.94        84.58156
962.33        83.63699
962.72        81.76945
963.11        79.70261
963.49        78.34254
963.88        77.92209
964.27        78.08479
964.66        78.73974
965.04         79.8108
965.43        81.05109
965.82        82.54272
966.21        83.88544
966.60        84.33148
966.98        83.76819
967.37        82.47626
967.76        81.01287
968.15        80.16737
968.53        80.09052
968.92        80.49986
969.31        81.29891
969.69        82.28987
970.08        83.22836
970.47        84.31978
970.86        85.09157
971.24        84.75759
971.63        83.23754
972.02        80.82807
972.40        78.57452
972.79        78.15762
973.17        79.82401
973.56        82.96918
973.95        86.54713
974.33         88.5443
974.72        88.23444
975.11        86.28186
975.49        83.66665
975.88        82.21937
976.26        82.41706
976.65        83.63068
977.04        85.31781
977.42        86.49103
977.81         86.6032
978.19        86.13283
978.58        85.28816
978.96        84.24944
979.35        83.23125
979.74        82.18773
980.12        81.43085
980.51        81.46459
980.89        82.45936
981.28         84.1124
981.66        86.25922
982.05        88.27558
982.43        89.98264
982.82        91.33897
983.20         92.0266
983.59        91.42962
983.97        89.61108
984.35         86.8811
984.74        84.15428
985.12        82.63483
985.51        82.53102
985.89        83.62323
986.28        85.24437
986.66        86.59235
987.04        87.18422
987.43        87.32175
987.81        87.08282
988.20        86.85297
988.58        86.67263
988.96        86.34341
989.35        85.67986
989.73         84.7348
990.12        83.50523
990.50        82.22802
990.88        80.93154
991.27        79.60204
991.65        78.30805
992.03        77.19997
992.42        76.67554
992.80        77.63936
993.18         80.0883
993.56        83.70881
993.95        87.64551
994.33        90.41493
994.71        91.29867
995.10        90.77807
995.48        89.31982
995.86        87.76498
996.24        86.47668
996.63        85.08971
997.01        84.17847
997.39        84.55255
997.77        86.27068
998.15        89.14979
998.54        92.02603
998.92        93.04832
999.30         91.7887
999.68        88.65195
1000.06        84.78577
1000.45        82.45435
1000.83        82.53977
1001.21        84.41214
1001.59        87.07964
1001.97        88.85013
1002.35        89.17636
1002.73        88.61788
1003.12        87.62672
1003.50         86.7794
1003.88         86.3648
1004.26        86.16237
1004.64        86.15108
1005.02        86.37718
1005.40        86.79081
1005.78        87.35851
1006.16        88.06253
1006.54        88.87341
1006.92        89.74411
1007.30        90.65282
1007.69        91.27253
1008.07         91.1591
1008.45         90.1242
1008.83         88.4183
1009.21        86.51637
1009.59        85.20484
1009.97         84.7661
1010.35         84.9546
1010.73        85.82481
1011.11        87.40298
1011.49         89.4473
1011.86        91.89538
1012.24        93.84062
1012.62        94.10198
1013.00        92.43905
1013.38         89.0459
1013.76        84.78445
1014.14        81.70129
1014.52        80.64377
1014.90        81.13937
1015.28        82.38921
1015.66        82.91467
1016.04        82.30369
1016.41        81.30484
1016.79        79.93259
1017.17        78.41585
1017.55        77.22665
1017.93        76.24863
1018.31        76.17104
1018.69        77.98458
1019.06        81.99446
1019.44        88.46426
1019.82        96.84452
1020.20        102.5853
1020.58        102.1459
1020.95        96.63035
1021.33        89.58482
1021.71        84.36179
1022.09        81.13307
1022.46        78.69353
1022.84        76.93174
1023.22        75.38298
1023.60        74.24857
1023.97        74.22768
1024.35        74.85237
1024.73        75.29572
