SpectraSmart Spectrum 2.9.0.0
--------- Device Information -----------
Spectrum Name :  反射率_0
Saving Time :  2024/04/30 00:46:11
Spectro-Module Model Name : SE2030-DUVN
Spectro-Module Serial Number : OS361AC55029948
Wavelength Start : 200
Wavelength End : 1025
Wavelength Unit : Wavelength(nm)
Spectrum Unit : Reflectance(%)
-----------Spectrum Setting ------------
Integration Time : 20ms
Average : 10
Boxcar : 0
Background removal :  enabled
linearity correction :  enabled
SC :  disabled
Intensity correction :  disabled
DWT denoise :  enabled
savitzky-golay :  disabled
FFT :  disabled
Running average :  disabled
Kalman :  disabled
High pass :  disabled
---------------BEGIN--------------------
Wavelength(nm)             Reflectance(%)
200.29               0
200.75        34.99979
201.21        26.01745
201.67        14.33895
202.13        3.160537
202.58        -5.69808
203.04       -12.83694
203.50       -16.24461
203.96        -11.5316
204.42        1.944165
204.88        22.14551
205.34         41.9566
205.80         50.5875
206.26        47.92931
206.72        40.09093
207.18         31.1993
207.64        23.41795
208.10        16.46477
208.55        8.969709
209.01        2.243824
209.47       0.5892974
209.93        4.576391
210.39        12.15341
210.85        19.20868
211.31         22.3809
211.77        21.72084
212.23         17.2548
212.69        11.28439
213.14        13.10666
213.60        24.36893
214.06        38.35142
214.52        48.34933
214.98        50.67887
215.44          46.735
215.90        38.53342
216.36        28.70515
216.81        22.36991
217.27         22.3664
217.73        27.97507
218.19         39.7564
218.65        53.67367
219.11        63.24181
219.57        67.40022
220.02        67.16769
220.48        64.79926
220.94         60.4714
221.40        53.01885
221.86        41.94645
222.32        31.41061
222.77         26.2009
223.23        25.87938
223.69        27.46932
224.15        28.71612
224.61        29.43165
225.06        30.04807
225.52        31.42262
225.98        34.14966
226.44        37.52224
226.90        40.60807
227.36        42.61935
227.81        43.27763
228.27        42.87843
228.73        41.50721
229.19        40.03092
229.65        40.13454
230.10        41.87053
230.56        44.34786
231.02        46.19441
231.48         46.1932
231.93        44.39096
232.39        41.32639
232.85        37.95094
233.31        36.13789
233.77        36.51123
234.22        38.67443
234.68        41.48206
235.14          42.784
235.60        41.98295
236.05        39.79309
236.51        37.56613
236.97        37.03962
237.43        38.67707
237.88        42.37341
238.34        47.37254
238.80        51.26188
239.26        52.13219
239.71        50.49768
240.17        47.53157
240.63        45.11415
241.08        43.64557
241.54        42.40729
242.00        41.34581
242.46         40.8553
242.91        41.62287
243.37        43.99692
243.83        46.52798
244.28         47.3254
244.74        45.97678
245.20        42.41304
245.66        37.80609
246.11        35.45837
246.57        37.30204
247.03          42.739
247.48        49.45094
247.94        51.38448
248.40        48.32725
248.85        43.74039
249.31        40.68934
249.77        40.47452
250.22        43.20215
250.68        49.21674
251.14        59.59786
251.59        69.48079
252.05        71.68406
252.51        68.74193
252.96        64.77535
253.42        62.14687
253.88        60.21475
254.33        58.03724
254.79        55.75941
255.25        53.64476
255.70        52.11787
256.16        51.59525
256.62        51.59756
257.07        51.66834
257.53        52.04139
257.99        52.59256
258.44        53.09437
258.90        53.80177
259.35        54.22118
259.81        54.53236
260.27        54.63227
260.72        54.52024
261.18        54.36571
261.63        53.93306
262.09        53.30753
262.55        52.28145
263.00        50.91933
263.46        49.60316
263.91        48.29037
264.37        47.18106
264.83        46.21749
265.28        45.28316
265.74        44.63428
266.19        44.44219
266.65        44.72185
267.11         45.2944
267.56        45.77703
268.02         45.6385
268.47        44.76776
268.93        43.34456
269.38        41.65457
269.84        40.33068
270.30        39.56644
270.75        39.19756
271.21        39.02404
271.66        38.70669
272.12        38.15597
272.57        37.46379
273.03        36.74144
273.48        36.06391
273.94         35.5213
274.39        35.02187
274.85        34.57431
275.31        34.12697
275.76        33.64512
276.22        33.17539
276.67        32.70562
277.13        32.30904
277.58        31.94682
278.04        31.64935
278.49         31.3185
278.95        30.91456
279.40        30.39312
279.86        29.84316
280.31        29.30984
280.77        28.98076
281.22        28.83269
281.68         28.8339
282.13        28.86489
282.59        28.81391
283.04        28.63077
283.50        28.35652
283.95        28.02203
284.41         27.6937
284.86        27.38499
285.32        27.11971
285.77        26.84763
286.22        26.57019
286.68        26.30208
287.13        26.01688
287.59         25.7927
288.04        25.68421
288.50        25.70826
288.95        25.80823
289.41          25.905
289.86        25.83938
290.32         25.6173
290.77        25.29527
291.22        24.97613
291.68        24.81978
292.13        24.85748
292.59        25.05026
293.04        25.38646
293.50        25.87838
293.95        26.49777
294.40        27.24874
294.86        28.00435
295.31         28.5798
295.77        28.93859
296.22        29.11749
296.68        29.28641
297.13        29.69657
297.58         30.4043
298.04        31.29776
298.49        32.20969
298.95        32.87477
299.40        33.23035
299.85        33.37873
300.31        33.44334
300.76        33.55186
301.21        33.78196
301.67         34.0952
302.12        34.45589
302.58        34.95362
303.03        35.56222
303.48        36.13966
303.94        36.60854
304.39        37.49758
304.84        37.68115
305.30        38.07049
305.75        38.35304
306.20        38.63331
306.66        38.93207
307.11        39.21071
307.57         39.4788
308.02        39.66981
308.47        39.79138
308.93        39.87053
309.38        39.90653
309.83        39.94909
310.29        40.00969
310.74         40.0714
311.19        40.10614
311.65        40.06206
312.10        39.93062
312.55        39.74131
313.00        39.55667
313.46        39.47007
313.91        39.48823
314.36        39.58276
314.82        39.69502
315.27        39.75254
315.72        39.71591
316.18         39.6081
316.63        39.43381
317.08        39.21524
317.53         38.9722
317.99         38.7137
318.44        38.44725
318.89        38.19054
319.35        37.95397
319.80        37.73948
320.25        37.57919
320.70        37.51977
321.16        37.54693
321.61        37.65507
322.06        37.75686
322.51        37.71979
322.97        37.50948
323.42        37.16753
323.87        36.76624
324.32        36.43125
324.78        36.18936
325.23        36.02563
325.68        35.89371
326.13        35.71978
326.59        35.47997
327.04        35.22149
327.49        34.97306
327.94        34.79038
328.39        34.67963
328.85        34.59483
329.30        34.52829
329.75         34.4144
330.20        34.23713
330.66        34.02065
331.11        33.77433
331.56        33.48377
332.01        33.16043
332.46        32.80431
332.92        32.47605
333.37        32.32251
333.82         32.3602
334.27        32.55482
334.72        32.78789
335.17         32.8568
335.63        32.69976
336.08         32.3791
336.53         31.9868
336.98        31.70535
337.43        31.59277
337.88        31.59482
338.34        31.64184
338.79        31.64375
339.24        31.56591
339.69        31.45426
340.14         31.3353
340.59        31.24679
341.05        31.20677
341.50        31.19031
341.95        31.20284
342.40        31.26679
342.85        31.37007
343.30        31.49176
343.75        31.57941
344.20        31.55113
344.66        31.40147
345.11        31.15768
345.56         30.8588
346.01        30.56643
346.46        30.31919
346.91        30.11293
347.36        29.98301
347.81        29.97739
348.26        30.09066
348.72        30.29904
349.17        30.53515
349.62        30.67753
350.07        30.68611
350.52         30.5884
350.97        30.42715
351.42        30.27251
351.87        30.15474
352.32        30.06531
352.77        30.00114
353.22        29.95836
353.67        29.93218
354.13        29.91545
354.58        29.92668
355.03        29.99215
355.48        30.09821
355.93        30.22471
356.38        30.28864
356.83        30.16686
357.28        29.85258
357.73        29.40108
358.18        28.92299
358.63        28.59349
359.08        28.45387
359.53        28.44301
359.98         28.5001
360.43        28.52404
360.88          28.475
361.33        28.38937
361.78        28.24767
362.23        28.01615
362.68        27.70928
363.13        27.34351
363.58        27.00021
364.03        26.81323
364.48        26.80688
364.93        26.93494
365.38        27.12505
365.83         27.2551
366.28        27.28035
366.73        27.23132
367.18        27.11262
367.63        26.93664
368.08        26.71771
368.53        26.44867
368.98        26.17369
369.43        25.96736
369.88        25.85139
370.33        25.82304
370.78        25.82977
371.23        25.77725
371.68        25.64088
372.13        25.43614
372.58        25.23304
373.03        25.14702
373.48        25.19266
373.93        25.32625
374.38         25.4365
374.83        25.34521
375.28        25.02635
375.72        24.55009
376.17        24.06414
376.62        23.73321
377.07        23.59422
377.52        23.58381
377.97         23.6511
378.42        23.71189
378.87        23.72766
379.32          23.727
379.77        23.68532
380.22        23.56257
380.67        23.36063
381.11        23.08451
381.56        22.80383
382.01        22.63925
382.46        22.62227
382.91        22.72644
383.36        22.87079
383.81        22.92749
384.26         22.8653
384.71        22.71215
385.15        22.53629
385.60        22.47601
386.05        22.53805
386.50         22.6702
386.95         22.7725
387.40        22.69418
387.85        22.42153
388.29        22.01786
388.74        21.61561
389.19        21.32056
389.64         21.1605
390.09        21.09106
390.54        21.09948
390.98        21.15992
391.43        21.25567
391.88        21.38672
392.33        21.49491
392.78        21.51983
393.23        21.45953
393.67        21.27979
394.12        21.06748
394.57         21.0924
395.02         21.0656
395.47        21.20018
395.91        21.34042
396.36        21.36444
396.81        21.25209
397.26        21.05312
397.71        20.83698
398.15        20.69439
398.60        20.67287
399.05         20.6914
399.50         20.7147
399.95        20.78605
400.39         20.7833
400.84        20.71499
401.29        20.57086
401.74        20.46001
402.18        20.40202
402.63        20.33005
403.08        20.26464
403.53        20.25287
403.97         20.2945
404.42        20.38023
404.87         20.4594
405.32        20.44828
405.76        20.32806
406.21        20.13117
406.66        19.92797
407.11        19.83298
407.55        19.87702
408.00        20.02555
408.45        20.20064
408.90        20.25846
409.34        20.16062
409.79        19.95129
410.24         19.7363
410.68        19.67397
411.13        19.79722
411.58        20.05568
412.03        20.33608
412.47        20.44841
412.92        20.33118
413.37        20.05822
413.81        19.74211
414.26         19.5764
414.71        19.58873
415.15        19.72906
415.60        19.90008
416.05        19.96106
416.49        19.87422
416.94         19.6922
417.39        19.48754
417.83        19.36847
418.28        19.36793
418.73        19.43914
419.17        19.54388
419.62        19.62699
420.07        19.66579
420.51        19.68047
420.96        19.66836
421.41        19.61302
421.85        19.51601
422.30        19.40077
422.74        19.29294
423.19        19.26497
423.64        19.31895
424.08        19.44608
424.53        19.59621
424.98        19.70941
425.42        19.76619
425.87        19.76673
426.31        19.72745
426.76        19.70844
427.21        19.65738
427.65        19.59461
428.10        19.52033
428.54        19.40878
428.99         19.2805
429.44        19.27933
429.88        19.34531
430.33         19.1326
430.77        18.77457
431.22        18.89279
431.66        19.43251
432.11        19.71475
432.56        19.64135
433.00        19.62211
433.45        19.64573
433.89        19.33224
434.34        18.87568
434.78        18.88626
435.23        19.28051
435.67        19.42152
436.12        19.27781
436.57        19.21065
437.01        19.26127
437.46        19.33136
437.90        19.41902
438.35        19.53822
438.79        19.65379
439.24        19.67974
439.68        19.63221
440.13        19.61501
440.57        19.59919
441.02        19.54489
441.46        19.46277
441.91         19.2357
442.35         18.9664
442.80        19.20637
443.24        19.77966
443.69        19.72868
444.13        19.12967
444.58        18.91177
445.02        19.08142
445.47        19.14122
445.91        19.06146
446.36        19.04553
446.80         19.0854
447.24        19.13325
447.69        19.18431
448.13        19.22965
448.58        19.26737
449.02         19.2994
449.47        19.33422
449.91        19.37125
450.36        19.41345
450.80        19.45812
451.25        19.49532
451.69        19.50495
452.13        19.48289
452.58        19.44308
453.02        19.39938
453.47         19.3712
453.91        19.35931
454.36        19.41514
454.80        19.42668
455.24        19.43899
455.69        19.42191
456.13        19.37869
456.58        19.33863
457.02        19.32868
457.46        19.35752
457.91        19.41363
458.35        19.46334
458.79        19.46667
459.24        19.43024
459.68        19.38056
460.13        19.34966
460.57        19.30088
461.01         19.3899
461.46        19.40841
461.90        19.41712
462.34        19.62634
462.79        19.93923
463.23        19.93516
463.68        19.64922
464.12        19.50285
464.56        19.52041
465.01        19.49797
465.45        19.42432
465.89          19.368
466.34        19.36422
466.78        19.48624
467.22        19.74084
467.67          19.816
468.11        19.70428
468.55        19.52002
468.99         19.3477
469.44        19.26957
469.88        19.31239
470.32        19.45674
470.77        19.63415
471.21        19.74773
471.65        19.76352
472.10        19.72048
472.54        19.66321
472.98        19.67871
473.42        19.78348
473.87        19.94191
474.31        20.10367
474.75        20.20059
475.20        20.22111
475.64        20.18482
476.08        20.12415
476.52         20.0827
476.97        20.07613
477.41        20.08779
477.85        20.11881
478.29        20.16952
478.74          20.242
479.18        20.32389
479.62        20.39516
480.06        20.47224
480.50        20.56245
480.95        20.47714
481.39        20.54869
481.83        20.60704
482.27        20.76588
482.72         20.8353
483.16        21.06985
483.60        21.19407
484.04        21.28525
484.48        21.30811
484.93        21.30345
485.37        21.44521
485.81        21.64753
486.25        21.59839
486.69        21.12747
487.14        21.25725
487.58         21.9308
488.02        22.04973
488.46        22.49346
488.90        22.65114
489.34        22.27312
489.79        22.30267
490.23        22.56289
490.67        22.97055
491.11        23.36404
491.55        23.34035
491.99        23.00478
492.43        22.98876
492.88        23.32772
493.32        23.61471
493.76        23.79835
494.20        24.02481
494.64        24.28765
495.08         24.5374
495.52        24.74094
495.96        24.91241
496.41        25.05941
496.85        25.03599
497.29        24.91617
497.73        25.26126
498.17         25.6846
498.61        25.78299
499.05        25.51065
499.49        25.46523
499.93        25.69604
500.37        25.96356
500.82        26.20984
501.26         26.4023
501.70        26.51894
502.14        26.60428
502.58        26.69497
503.02        26.81752
503.46         26.9834
503.90        27.18921
504.34        27.39774
504.78         27.5432
505.22        27.61065
505.66        27.61701
506.10        27.59647
506.54         27.6353
506.98        27.75578
507.42        27.87628
507.86        27.94468
508.30        28.19454
508.74        28.09812
509.18        28.09285
509.62        28.06462
510.06        28.08701
510.50         28.1724
510.94        28.30625
511.38        28.46117
511.82        28.57765
512.26        28.63885
512.70        28.66025
513.14        28.66559
513.58        28.69137
514.02        28.74761
514.46        28.82255
514.90        28.89547
515.34        28.93477
515.78        28.93302
516.22         28.9008
516.66         28.8628
517.10        28.85634
517.54        28.88753
517.98        28.94212
518.42        28.99168
518.86        28.99067
519.30         28.9305
519.74        28.83106
520.18        28.71924
520.62        28.63379
521.06         28.5899
521.50        28.58089
521.93        28.60213
522.37        28.63633
522.81         28.6774
523.25        28.72126
523.69        28.76966
524.13        28.82663
524.57        28.88612
525.01        28.94037
525.45        28.96062
525.89        28.90434
526.32        28.76577
526.76        28.57384
527.20        28.37159
527.64        28.22537
528.08        28.15239
528.52        28.13524
528.96        28.14969
529.40        28.15471
529.83        28.13312
530.27        28.09798
530.71        28.05122
531.15        27.99973
531.59          27.945
532.03        27.88083
532.46        27.80356
532.90        27.72002
533.34        27.63347
533.78        27.55332
534.22        27.48245
534.66        27.42213
535.09        27.37163
535.53        27.33511
535.97         27.3219
536.41        27.35408
536.85        27.42811
537.28        27.53055
537.72        27.62453
538.16        27.65393
538.60        27.60951
539.04        27.51606
539.47        27.40253
539.91        27.33827
540.35        27.33691
540.79        27.39093
541.22        27.49267
541.66        27.63278
542.10        27.79879
542.54        27.98927
542.97        28.19728
543.41        28.41674
543.85        28.63773
544.29        28.86052
544.72        29.05179
545.16        29.18238
545.60        29.25123
546.04        29.26306
546.47        29.27455
546.91          29.421
547.35        29.70061
547.79        29.98524
548.22         30.2291
548.66        30.52481
549.10        30.86481
549.53         31.0944
549.97        31.16183
550.41        31.62862
550.84        31.54928
551.28        31.64187
551.72         31.6465
552.15         31.8759
552.59        31.94252
553.03        32.15705
553.46        32.38826
553.90        32.57314
554.34        32.68675
554.77        32.84221
555.21        33.05916
555.65        32.95864
556.08        33.08793
556.52        33.18654
556.96        33.38908
557.39        33.57756
557.83        33.73692
558.27        33.84785
558.70        33.92471
559.14        34.04554
559.57        34.18417
560.01        34.29495
560.45        34.36893
560.88        34.29626
561.32        34.29854
561.75        34.38257
562.19        34.58017
562.63        34.69741
563.06        34.71927
563.50        34.76842
563.93         34.8429
564.37         34.9241
564.80        35.00552
565.24        35.09914
565.68        35.20327
566.11        35.33813
566.55        35.50257
566.98        35.63931
567.42        35.78072
567.85        35.90596
568.29        36.02114
568.72        36.22726
569.16        36.55616
569.60        36.35569
570.03        36.76009
570.47        36.81731
570.90        36.82668
571.34        37.15673
571.77        37.15224
572.21        37.41074
572.64        37.52582
573.08        37.67644
573.51        37.86641
573.95        37.70499
574.38        38.19537
574.82        38.04359
575.25        38.11461
575.69        38.05707
576.12         37.7938
576.56        38.12864
576.99        38.34546
577.42        38.02726
577.86        38.30155
578.29        38.06582
578.73         38.1158
579.16        37.78286
579.60        37.79344
580.03        37.82821
580.47        37.91807
580.90        37.95037
581.33        37.67059
581.77         37.9269
582.20        37.22385
582.64         37.1619
583.07        36.96528
583.51         36.8157
583.94        36.72282
584.37        36.54969
584.81        36.41592
585.24        36.57382
585.68        36.70635
586.11        36.85509
586.54        36.56672
586.98        36.19286
587.41        36.67784
587.85        36.54637
588.28        36.26674
588.71        36.54939
589.15        36.21382
589.58        36.32729
590.01        36.26822
590.45        36.28046
590.88        36.31889
591.31        36.45377
591.75        36.61701
592.18        36.68562
592.61        36.67648
593.05        36.35302
593.48        36.57368
593.91        36.52299
594.35        36.41978
594.78        36.46406
595.21        36.78314
595.65        37.00163
596.08        36.59778
596.51        37.06505
596.94        37.62815
597.38        38.05429
597.81        38.09436
598.24        38.13319
598.68        38.38905
599.11        38.50397
599.54        39.05269
599.97        39.49543
600.41        39.15926
600.84        39.77163
601.27        40.00451
601.70        40.53934
602.14        41.18402
602.57        41.25998
603.00        41.51481
603.43        41.83297
603.87        42.28112
604.30        42.82888
604.73        43.01046
605.16        43.30369
605.60        43.59323
606.03        44.00925
606.46        44.44682
606.89         44.9324
607.32        45.13795
607.76        45.51598
608.19        45.97028
608.62        46.17833
609.05        46.22314
609.48        46.70918
609.92        47.39085
610.35        47.48782
610.78        47.96996
611.21        47.60608
611.64        47.85584
612.07        48.33944
612.50        48.65826
612.94        49.07392
613.37        49.39148
613.80        49.50545
614.23        49.90284
614.66        50.12866
615.09        50.34457
615.52        50.48623
615.96        50.49855
616.39        50.93502
616.82        50.39571
617.25        50.86627
617.68        50.95856
618.11        51.33011
618.54         51.6182
618.97        51.80611
619.40        51.92234
619.84        52.07565
620.27        52.31086
620.70        52.53909
621.13         52.6646
621.56        52.69743
621.99        52.60905
622.42        52.34684
622.85        52.86665
623.28        52.83464
623.71        53.31214
624.14        52.38608
624.57        53.02831
625.00        52.91301
625.43        52.85529
625.86        52.77745
626.29        52.66917
626.72        52.73038
627.15        52.66228
627.58        52.58075
628.01        52.34209
628.44        52.58788
628.87        52.18343
629.30        52.04622
629.73        51.84665
630.16         51.7306
630.59        51.43134
631.02         51.3033
631.45        51.04368
631.88         50.8142
632.31        50.54235
632.74        50.24369
633.17        49.91938
633.60        49.57196
634.03        49.20703
634.46        48.81818
634.89        48.42118
635.32        48.04656
635.75         47.7009
636.18        47.37681
636.61        47.05859
637.04        46.72623
637.47         46.3852
637.89        46.01371
638.32        45.60859
638.75        45.30383
639.18        45.13069
639.61        44.61552
640.04          44.558
640.47        44.29527
640.90        44.06344
641.33        43.85732
641.76        43.67699
642.18        43.51107
642.61        43.34048
643.04         43.1764
643.47        43.05684
643.90         43.0281
644.33        43.09028
644.76        43.28356
645.18         43.5204
645.61        43.54012
646.04        43.28646
646.47        43.28983
646.90        43.52411
647.33        43.68536
647.75        43.77357
648.18        43.90329
648.61        44.19664
649.04        44.52074
649.47        44.87051
649.89         45.0956
650.32        45.23407
650.75        45.56205
651.18        46.09172
651.61        46.63472
652.03        47.16354
652.46        47.72231
652.89        48.18358
653.32        48.50348
653.74         48.7944
654.17        48.75715
654.60        48.50167
655.03        50.33646
655.46        49.49931
655.88        50.68017
656.31        52.14785
656.74        51.82328
657.16        51.43166
657.59        50.72028
658.02        51.62817
658.45        53.10092
658.87        53.03391
659.30        52.93805
659.73        53.68436
660.15        54.16793
660.58        54.36848
661.01        54.41898
661.44        54.33985
661.86        54.24427
662.29         54.2411
662.72        54.59541
663.14        55.19983
663.57        55.33924
664.00        55.07771
664.42        55.11805
664.85        55.50513
665.27        55.79718
665.70        55.96122
666.13        56.18684
666.55        56.47256
666.98        56.75453
667.41        56.99336
667.83         57.1219
668.26        57.12453
668.69        57.03555
669.11        56.92787
669.54        56.91919
669.96        57.03935
670.39        57.25627
670.82          57.502
671.24        57.67127
671.67        57.72481
672.09        57.69412
672.52        57.65475
672.94        57.78782
673.37        57.67218
673.80        58.26545
674.22         58.2202
674.65        58.57546
675.07        58.72855
675.50        58.90947
675.92        59.04371
676.35        59.12393
676.77        59.16986
677.20        59.16598
677.62        59.16329
678.05        59.23915
678.47        59.40152
678.90        59.63245
679.32        59.85943
679.75        59.97356
680.17         59.9473
680.60        59.82721
681.02        59.67815
681.45        59.60525
681.87        59.64056
682.30        59.74806
682.72        59.91286
683.15        60.03107
683.57        60.12286
684.00        60.30726
684.42        60.53254
684.85        60.67326
685.27         60.7266
685.70        60.61853
686.12        60.46572
686.54        60.84854
686.97        61.63904
687.39        61.96731
687.82        61.71888
688.24        62.02617
688.66        61.91914
689.09        61.81113
689.51        61.49032
689.94        61.30262
690.36        61.28683
690.78        61.36979
691.21        61.53354
691.63         61.7216
692.06        61.90861
692.48        62.12488
692.90        62.33701
693.33        62.47746
693.75        62.53316
694.17        62.50427
694.60         62.4507
695.02        62.44714
695.44        62.50383
695.87        62.73919
696.29        63.06331
696.71         62.9593
697.14        62.56709
697.56        62.68413
697.98        63.24534
698.41        63.50301
698.83        63.41808
699.25        63.42035
699.68        63.51554
700.10        63.56194
700.52        63.54903
700.94        63.53024
701.37        63.49797
701.79        63.45583
702.21         63.4051
702.64        63.36016
703.06        63.34881
703.48        63.42526
703.90        63.59864
704.33        63.85785
704.75        64.13517
705.17        64.38428
705.59        64.55271
706.01        64.64894
706.44        64.68784
706.86        64.68864
707.28        64.66288
707.70         64.6587
708.12         64.6775
708.55        64.61372
708.97         64.5176
709.39        64.60136
709.81        64.87091
710.23        65.14791
710.66         65.4003
711.08         65.7425
711.50        66.09521
711.92        66.31484
712.34        66.38049
712.76        66.32725
713.19        66.19679
713.61        66.11192
714.03        66.09386
714.45        66.12124
714.87        66.18188
715.29        66.25286
715.71        66.32262
716.13        66.39992
716.56        66.46207
716.98         66.5491
717.40        66.63091
717.82        66.69967
718.24        66.74387
718.66        66.75193
719.08        66.72434
719.50        66.66637
719.92        66.60059
720.34        66.56175
720.76        66.56001
721.19        66.58289
721.61         66.6234
722.03        66.64177
722.45        66.62866
722.87        66.59251
723.29        66.55673
723.71        66.55898
724.13        66.60702
724.55        66.69016
724.97        66.77977
725.39        66.82639
725.81        66.82605
726.23        66.80598
726.65         66.7967
727.07        66.84861
727.49        66.96674
727.91        67.11237
728.33        67.28667
728.75        67.47877
729.17        67.66676
729.59        67.89924
730.01        68.07557
730.43        67.93546
730.85        67.52535
731.27        67.13325
731.69        66.89746
732.10        66.84894
732.52        67.02486
732.94        67.47346
733.36        68.07336
733.78        68.51167
734.20        68.68536
734.62        68.74291
735.04        68.73754
735.46        68.57536
735.88        68.38074
736.30        68.55145
736.72        68.97429
737.13        69.08747
737.55        68.81165
737.97         68.4803
738.39        68.23662
738.81        68.13864
739.23         68.2384
739.65        68.57954
740.06        68.97343
740.48        69.13515
740.90        68.99994
741.32        68.67308
741.74         68.3072
742.16        68.16058
742.57        68.31447
742.99        68.63017
743.41        68.99717
743.83        69.32162
744.25        69.50556
744.67        69.39874
745.08        69.11153
745.50        68.99199
745.92        69.10573
746.34        69.27813
746.75        69.44223
747.17        69.55953
747.59        69.60474
748.01        69.59729
748.42        69.58402
748.84        69.61049
749.26        69.69814
749.68        69.82018
750.09        69.92493
750.51        69.97153
750.93        69.93857
751.35        69.85336
751.76        69.75435
752.18        69.69334
752.60        69.68759
753.01        69.72726
753.43        69.78745
753.85        69.85646
754.27        69.93684
754.68        70.06417
755.10        70.19954
755.52        70.27999
755.93         70.2761
756.35        70.17268
756.77         70.1067
757.18        70.22223
757.60        70.53431
758.02        71.24347
758.43        72.00397
758.85        71.78076
759.26        70.64474
759.68        70.18877
760.10        70.48418
760.51        70.70539
760.93        70.73428
761.34        70.79864
761.76        70.83226
762.18        70.71754
762.59         70.5084
763.01        70.24491
763.42        70.02601
763.84        69.94608
764.26        70.05421
764.67        70.17934
765.09        70.34209
765.50        70.85538
765.92        71.49715
766.33        71.56499
766.75        71.02773
767.16        70.84853
767.58        71.07643
768.00        71.04313
768.41         70.7971
768.83        71.04073
769.24        71.57704
769.66        71.48325
770.07        70.86733
770.49         70.5876
770.90        70.74697
771.32        71.10043
771.73        71.52135
772.15        71.68485
772.56        71.54585
772.97        71.53537
773.39        71.26917
773.80        71.36118
774.22        71.66617
774.63        72.17645
775.05        72.67964
775.46        72.93124
775.88        72.83488
776.29        72.50887
776.70        72.07165
777.12        71.73955
777.53        71.58868
777.95        71.53809
778.36        71.58166
778.77        71.66566
779.19        71.76066
779.60        72.01082
780.02        72.29444
780.43        72.30456
780.84        72.11208
781.26        72.01684
781.67        72.11443
782.09        72.57546
782.50        73.19891
782.91        73.19652
783.33        72.61948
783.74        72.34785
784.15        72.43336
784.57        72.35558
784.98        72.13616
785.39        72.07703
785.81        72.20343
786.22        72.42624
786.63        72.73074
787.04        73.09311
787.46        73.47764
787.87        73.85118
788.28        74.17448
788.70        74.35255
789.11         74.3565
789.52        74.31407
789.93        74.21519
790.35        73.85339
790.76        73.35696
791.17        73.17042
791.58        73.32237
792.00        73.41264
792.41        73.43421
792.82        73.72477
793.23        74.18859
793.65        74.26372
794.06        74.04089
794.47        74.18326
794.88        74.61014
795.29        74.71225
795.71        74.44672
796.12        74.19269
796.53        74.05369
796.94        74.05801
797.35        74.24036
797.76        74.59095
798.18        74.98347
798.59         75.2561
799.00        75.33659
799.41        75.27196
799.82        75.11749
800.23        74.97826
800.64        74.89662
801.06        74.81496
801.47        74.77952
801.88        74.79206
802.29         74.8387
802.70        74.90305
803.11        74.96443
803.52        74.98018
803.93        74.96051
804.34         74.9449
804.75        74.89156
805.17        74.84354
805.58        74.86521
805.99        74.58314
806.40        74.20939
806.81        74.92227
807.22        76.35808
807.63        76.50089
808.04        75.45605
808.45         75.1457
808.86          75.687
809.27        76.01495
809.68        75.99335
810.09        75.78564
810.50        75.47444
810.91        75.41663
811.32        75.63772
811.73        75.76105
812.14        75.76945
812.55        75.93313
812.96        76.18103
813.37        76.22311
813.78         76.0278
814.19        75.69987
814.60        75.36118
815.01        75.18084
815.42        75.19638
815.83        75.34939
816.24        75.58215
816.65        75.77952
817.05        75.88747
817.46        75.90481
817.87        75.86175
818.28        75.74599
818.69        75.57594
819.10        75.35708
819.51        75.16286
819.92        75.13483
820.33        75.30273
820.74        75.60745
821.14        75.97709
821.55        76.30736
821.96        76.54801
822.37        76.73107
822.78        76.80039
823.19        76.66985
823.60        76.33854
824.00        75.82784
824.41        75.29041
824.82        74.99596
825.23        74.99996
825.64        75.26138
826.04        75.61213
826.45        75.65709
826.86         75.3391
827.27        74.78088
827.68        74.22516
828.08        74.08264
828.49          74.398
828.90        75.06084
829.31         75.8844
829.72        76.54535
830.12        76.95137
830.53        77.11743
830.94        77.13072
831.35        77.09789
831.75        77.08881
832.16        76.97998
832.57        76.84059
832.97        76.75622
833.38        76.74943
833.79        76.86555
834.20        76.98579
834.60        76.89619
835.01        76.60561
835.42        76.13922
835.82        75.76635
836.23        75.86729
836.64        76.53339
837.04        77.67569
837.45        78.80808
837.86        79.27203
838.26        78.89315
838.67        77.88536
839.08        76.68671
839.48        75.95539
839.89        75.90717
840.29        76.33556
840.70        76.97983
841.11        77.43549
841.51        77.58964
841.92        77.52795
842.33        77.39168
842.73         77.3916
843.14        77.53338
843.54        77.76495
843.95        77.96744
844.35        78.03345
844.76         77.9108
845.17        77.64014
845.57        77.33547
845.98        77.13506
846.38        77.09901
846.79         77.1855
847.19        77.26792
847.60        77.08179
848.00        76.60976
848.41        75.95876
848.81        75.37678
849.22        75.22519
849.62        75.61053
850.03        76.37374
850.43        77.33997
850.84        77.98248
851.24        78.19566
851.65        78.00845
852.05        77.62938
852.46        77.35398
852.86        77.25697
853.27        77.30895
853.67        77.30277
854.07        77.16153
854.48        76.81185
854.88         76.3258
855.29        75.76321
855.69        75.47643
856.10        75.47231
856.50        75.77515
856.90        76.11463
857.31        76.12057
857.71        75.76894
858.12        75.13174
858.52        74.50896
858.92         74.3419
859.33        74.71628
859.73        75.52877
860.13        76.47264
860.54        77.06444
860.94        77.20048
861.34        76.91537
861.75        76.36014
862.15        75.87103
862.55        75.53284
862.96        75.30247
863.36        74.99747
863.76          74.351
864.17        73.38063
864.57        72.25063
864.97        71.27874
865.38        70.87828
865.78        71.16177
866.18        71.97659
866.58        73.09467
866.99        74.01254
867.39        74.55212
867.79          74.794
868.19        74.75993
868.60        74.50481
869.00        74.10194
869.40        73.51361
869.80        73.01149
870.21         73.0664
870.61        73.79738
871.01        75.03283
871.41        76.31336
871.81        76.89114
872.22        76.58749
872.62        75.62222
873.02        74.39761
873.42        73.60062
873.82        73.45559
874.22         73.7911
874.63        74.32906
875.03         74.6395
875.43        74.60427
875.83        74.34522
876.23        74.11588
876.63        74.31943
877.03        75.01005
877.44         75.9763
877.84        76.88263
878.24        77.09914
878.64        76.52648
879.04        75.45158
879.44        74.26322
879.84        73.51588
880.24        73.35192
880.64        73.57433
881.04        74.11262
881.44        74.84247
881.84        75.66282
882.24        76.62698
882.65         77.4357
883.05        77.70915
883.45        77.32472
883.85        76.42235
884.25        75.44472
884.65        75.09039
885.05        75.48831
885.45        76.38913
885.85        77.48324
886.25        78.21916
886.65        78.38837
887.05        78.19737
887.45        77.62183
887.85        76.64091
888.25        75.41651
888.65         74.0373
889.04        72.88743
889.44        72.56115
889.84        73.06763
890.24        74.27837
890.64        75.80596
891.04        76.79489
891.44        76.91728
891.84        76.42482
892.24        75.67763
892.64        75.18549
893.04         75.0852
893.44        75.21542
893.83        75.53997
894.23        75.92661
894.63        76.33114
895.03        76.79261
895.43        77.25742
895.83         77.6268
896.23         77.8689
896.63        77.96394
897.02        77.91985
897.42        77.83724
897.82        77.72367
898.22        77.59065
898.62        77.40088
899.01        77.09621
899.41        76.67928
899.81         76.2066
900.21        75.81309
900.61        75.69233
901.00        75.86744
901.40        76.26955
901.80        76.71055
902.20        76.88554
902.59        76.71114
902.99        76.26955
903.39        75.72695
903.79        75.33115
904.18        75.15321
904.58        75.16257
904.98        75.24344
905.38        75.23212
905.77        75.07104
906.17        74.80514
906.57        74.57768
906.96        74.64202
907.36         74.9985
907.76        75.58852
908.15        76.14014
908.55         76.0787
908.95        75.37766
909.34        74.23132
909.74        73.15137
910.14         72.7845
910.53        73.30891
910.93        74.46601
911.33        75.97267
911.72        77.38747
912.12        78.42832
912.52        79.20227
912.91         79.7169
913.31        79.96843
913.70        79.99823
914.10        79.77525
914.49        79.31303
914.89        78.64958
915.29        77.86488
915.68        77.00018
916.08        76.32558
916.47        76.10238
916.87        76.40712
917.26        77.11802
917.66        77.95282
918.05        78.45894
918.45        78.44776
918.84        78.08984
919.24        77.49773
919.64        77.04581
920.03        76.87576
920.42        76.86184
920.82        76.98253
921.21        77.11166
921.61        77.21468
922.00         77.3409
922.40        77.48264
922.79        77.70228
923.19        77.95499
923.58        78.21796
923.98         78.3855
924.37        78.32243
924.77         78.0106
925.16        77.51583
925.55        76.97175
925.95         76.5972
926.34        76.48058
926.74        76.55317
927.13         76.7257
927.52        76.80971
927.92        76.75416
928.31        76.58874
928.70        76.38667
929.10        76.25156
929.49        76.20824
929.89        76.18501
930.28        76.13583
930.67         75.9085
931.07        75.50164
931.46        75.03703
931.85        74.61135
932.24        74.35757
932.64         74.3337
933.03        74.50654
933.42        74.91841
933.82        75.61346
934.21         76.5535
934.60        77.60837
934.99        78.61433
935.39        79.29915
935.78        79.62509
936.17        79.63111
936.56        79.19701
936.96        78.21886
937.35        76.82859
937.74        75.18733
938.13        73.79532
938.53         73.2537
938.92        73.60108
939.31        74.73093
939.70        76.19648
940.09        77.10068
940.49        77.11011
940.88        76.44109
941.27        75.53026
941.66        75.06502
942.05        75.21673
942.44        75.83375
942.84        76.48366
943.23        76.50204
943.62        75.69164
944.01        74.30092
944.40        73.03316
944.79        72.89413
945.18        74.04465
945.57        76.18819
945.97        78.41484
946.36        79.38075
946.75        78.61338
947.14        76.57311
947.53        74.23844
947.92        73.09013
948.31        73.50684
948.70        75.08931
949.09        77.09814
949.48        78.18906
949.87        77.92215
950.26        76.71732
950.65        75.29393
951.04        74.63663
951.43        74.97133
951.82        76.02976
952.21        77.19895
952.60        77.40933
952.99         76.4108
953.38        74.61073
953.77        72.88298
954.16        72.36544
954.55        73.26808
954.94        75.35486
955.33        77.80377
955.72        78.82816
956.11        77.81755
956.50        75.37498
956.89        72.75565
957.28         71.5975
957.66        72.26342
958.05        74.22594
958.44        76.65256
958.83        77.85226
959.22        77.26707
959.61        75.53119
960.00        73.55754
960.39        72.48698
960.78        72.53249
961.16        73.34206
961.55         74.4264
961.94        74.93987
962.33        74.57664
962.72        73.74708
963.11        72.77135
963.49        72.03276
963.88        71.65884
964.27        71.47836
964.66        71.59837
965.04        72.28354
965.43        73.42628
965.82         74.9767
966.21        76.50283
966.60        77.19511
966.98        76.88527
967.37        75.90015
967.76        74.66237
968.15        73.75367
968.53        73.31278
968.92        73.08721
969.31        73.22219
969.69        73.99398
970.08         75.3083
970.47        77.23507
970.86        78.94972
971.24        79.03577
971.63        77.23959
972.02        74.06781
972.40        70.88526
972.79        69.80007
973.17        71.17702
973.56         74.2934
973.95        77.98703
974.33        80.05126
974.72         79.6981
975.11        77.65279
975.49        74.98513
975.88        73.66023
976.26        74.16425
976.65        75.80995
977.04        77.88554
977.42        79.12576
977.81        78.92184
978.19        77.84772
978.58        76.31215
978.96        74.79597
979.35        73.61479
979.74        72.65558
980.12        72.13979
980.51        72.42083
980.89        73.58875
981.28         75.3774
981.66        77.65424
982.05        79.86065
982.43        81.83154
982.82        83.53477
983.20         84.5201
983.59        83.99009
983.97         81.9753
984.35        78.82704
984.74        75.76044
985.12         74.4276
985.51        75.08395
985.89        77.39745
986.28        80.23167
986.66         82.0006
987.04         82.0146
987.43        80.72641
987.81        78.81415
988.20        77.76418
988.58        77.92689
988.96        78.87206
989.35        79.61716
989.73        78.85501
990.12         76.2938
990.50        72.61894
990.88        68.83476
991.27        66.50637
991.65        66.03767
992.03        66.98573
992.42        68.84211
992.80        71.12794
993.18        73.45489
993.56        75.95554
993.95        78.18484
994.33        79.46166
994.71        79.47834
995.10        78.42014
995.48        76.83681
995.86        75.69903
996.24         75.2956
996.63        75.33059
997.01        75.82844
997.39        76.54814
997.77        77.29798
998.15        78.16703
998.54        78.83247
998.92         78.7705
999.30         77.9175
999.68        76.44501
1000.06        74.81934
1000.45        73.94221
1000.83        74.18515
1001.21        75.22353
1001.59        76.89177
1001.97        78.87444
1002.35        80.87781
1002.73        82.91409
1003.12        84.36665
1003.50        84.20178
1003.88        82.38873
1004.26        79.31784
1004.64        75.95418
1005.02        74.02955
1005.40        74.01554
1005.78        75.30505
1006.16        77.28707
1006.54        79.10565
1006.92        80.46986
1007.30        81.68234
1007.69        82.38829
1008.07        82.00195
1008.45        80.35371
1008.83        77.55254
1009.21        74.52149
1009.59        72.88299
1009.97        73.07176
1010.35        74.68685
1010.73        77.00293
1011.11        78.71888
1011.49         79.3613
1011.86        79.32832
1012.24        78.62668
1012.62        77.49237
1013.00        76.03044
1013.38        74.06037
1013.76        71.82383
1014.14        70.00087
1014.52        68.92345
1014.90        68.64229
1015.28        68.81147
1015.66        68.68349
1016.04        68.06929
1016.41        67.21143
1016.79        66.51862
1017.17         66.7522
1017.55        67.96665
1017.93        69.67197
1018.31        71.41071
1018.69        73.01558
1019.06        74.71468
1019.44        76.55116
1019.82        78.87875
1020.20        81.62358
1020.58        83.91645
1020.95        85.08824
1021.33        84.79578
1021.71        82.73833
1022.09        78.77743
1022.46        72.48079
1022.84        64.38345
1023.22        57.28342
1023.60        53.96891
1023.97        54.19168
1024.35         56.4185
1024.73        58.87037
