SpectraSmart Spectrum 2.9.0.0
--------- Device Information -----------
Spectrum Name :  反射率_0
Saving Time :  2024/04/30 00:41:47
Spectro-Module Model Name : SE2030-DUVN
Spectro-Module Serial Number : OS361AC55029948
Wavelength Start : 200
Wavelength End : 1025
Wavelength Unit : Wavelength(nm)
Spectrum Unit : Reflectance(%)
-----------Spectrum Setting ------------
Integration Time : 20ms
Average : 10
Boxcar : 0
Background removal :  enabled
linearity correction :  enabled
SC :  disabled
Intensity correction :  disabled
DWT denoise :  enabled
savitzky-golay :  disabled
FFT :  disabled
Running average :  disabled
Kalman :  disabled
High pass :  disabled
---------------BEGIN--------------------
Wavelength(nm)             Reflectance(%)
200.29               0
200.75        51.94407
201.21         46.0164
201.67         37.5876
202.13        29.25031
202.58        22.50975
203.04        16.38219
203.50        13.01635
203.96        17.50805
204.42        30.71061
204.88        50.52197
205.34        69.09672
205.80        74.86404
206.26        68.73964
206.72        57.99913
207.18        47.50788
207.64        39.83659
208.10         34.4729
208.55        29.73126
209.01         26.4109
209.47        27.34731
209.93        32.16075
210.39        39.04378
210.85        44.83249
211.31        46.94349
211.77        45.42972
212.23        40.35485
212.69        32.84862
213.14         30.0509
213.60        34.90063
214.06        43.21163
214.52        50.84339
214.98        55.68149
215.44         58.3855
215.90         60.2019
216.36        61.68752
216.81        63.52523
217.27        66.39196
217.73        70.46897
218.19          76.063
218.65        81.96541
219.11        85.93616
219.57        86.99878
220.02        86.83355
220.48        88.24323
220.94        91.30305
221.40        96.06106
221.86        100.2657
222.32        97.46146
222.77        87.84926
223.23        77.99248
223.69        71.14285
224.15        68.21653
224.61        68.40499
225.06        70.95284
225.52        75.81844
225.98        81.48422
226.44        85.98998
226.90        88.89831
227.36        90.76408
227.81        92.43904
228.27         94.3842
228.73        96.37879
229.19        97.44461
229.65         95.8373
230.10        91.93816
230.56        87.63585
231.02        84.25405
231.48        82.85056
231.93        83.12762
232.39        84.64214
232.85        86.89374
233.31        89.06406
233.77        90.71873
234.22        92.21613
234.68        93.01146
235.14        92.37252
235.60        90.34597
236.05        87.11857
236.51        84.07552
236.97        82.94836
237.43        84.08543
237.88        87.70786
238.34        92.58363
238.80        95.49863
239.26        94.33892
239.71         89.9864
240.17        84.43063
240.63         80.4315
241.08        78.56222
241.54        77.97543
242.00        78.77572
242.46        80.15501
242.91        81.33656
243.37        82.40045
243.83         83.2447
244.28        83.70274
244.74        83.53834
245.20         81.9019
245.66        79.78018
246.11        79.88797
246.57        83.44571
247.03        90.99493
247.48        98.01579
247.94        94.91855
248.40        83.71534
248.85          70.699
249.31        62.50527
249.77        62.05518
250.22        69.06082
250.68        84.64118
251.14        108.3119
251.59        120.6117
252.05        108.8807
252.51         89.2185
252.96        74.04709
253.42        66.91814
253.88        65.06173
254.33         65.8556
254.79         69.0151
255.25        72.90181
255.70        75.70049
256.16        77.95773
256.62        79.41241
257.07         79.9595
257.53        80.30949
257.99        80.33014
258.44        79.76244
258.90        79.12811
259.35        78.15045
259.81        77.33923
260.27        76.75404
260.72        76.48431
261.18        76.70438
261.63        76.95972
262.09        77.10072
262.55        76.48627
263.00        75.10346
263.46        73.52847
263.91        71.96143
264.37        71.06683
264.83        70.73217
265.28        70.68531
265.74        70.80239
266.19        70.58949
266.65        70.06596
267.11        69.33318
267.56        68.55048
268.02         67.9813
268.47        67.62096
268.93        67.38939
269.38        67.13225
269.84        66.70743
270.30        66.05683
270.75        65.24184
271.21        64.36293
271.66        63.46932
272.12        62.59977
272.57        61.68146
273.03        60.74702
273.48        59.74331
273.94        58.76309
274.39        57.78361
274.85        56.88539
275.31        56.02397
275.76        55.15854
276.22        54.33939
276.67        53.53586
277.13        52.87346
277.58        52.27249
278.04        51.76846
278.49        51.18729
278.95        50.43977
279.40        49.45667
279.86        48.39105
280.31         47.3131
280.77        46.50032
281.22        45.93517
281.68        45.57808
282.13        45.30248
282.59        45.03334
283.04        44.68007
283.50        44.28432
283.95        43.78107
284.41        43.12695
284.86        42.31819
285.32        41.44858
285.77        40.55891
286.22        39.80682
286.68        39.23999
287.13        38.77776
287.59        38.44106
288.04        38.17747
288.50        37.98322
288.95         37.8157
289.41        37.64136
289.86        37.34301
290.32        36.93464
290.77        36.43975
291.22        35.91195
291.68        35.44208
292.13        35.05622
292.59        34.76314
293.04        34.60587
293.50        34.68621
293.95        34.98162
294.40        35.46005
294.86        35.96479
295.31        36.26445
295.77        36.30504
296.22        36.14338
296.68        35.92406
297.13        35.85475
297.58        36.00132
298.04        36.27234
298.49        36.58414
298.95        36.80617
299.40        36.89046
299.85        36.88726
300.31        36.82663
300.76        36.68773
301.21        36.51366
301.67        36.31883
302.12        36.11218
302.58         36.0527
303.03        36.14514
303.48        36.23239
303.94        36.24749
304.39        36.74601
304.84        36.58723
305.30        36.68282
305.75        36.69403
306.20        36.68801
306.66        36.67414
307.11        36.62858
307.57        36.55417
308.02        36.37645
308.47         36.1081
308.93        35.78392
309.38        35.44128
309.83        35.18865
310.29         35.0503
310.74          34.993
311.19        34.95604
311.65        34.83503
312.10         34.6037
312.55        34.29916
313.00        33.98917
313.46        33.77786
313.91        33.67535
314.36        33.64618
314.82        33.63008
315.27        33.55369
315.72        33.38387
316.18        33.15433
316.63           32.88
317.08         32.5953
317.53        32.32282
317.99        32.06349
318.44        31.82683
318.89        31.63244
319.35        31.48316
319.80        31.37445
320.25        31.30886
320.70        31.28754
321.16        31.28974
321.61        31.32067
322.06        31.33118
322.51        31.25369
322.97        31.07439
323.42        30.81833
323.87        30.53235
324.32        30.29878
324.78        30.13231
325.23        30.02645
325.68        29.94639
326.13        29.83687
326.59        29.67518
327.04        29.49014
327.49        29.29808
327.94        29.13602
328.39        29.00804
328.85        28.88659
329.30        28.76224
329.75        28.57643
330.20        28.32569
330.66        28.03769
331.11        27.75904
331.56        27.53563
332.01        27.38592
332.46        27.29415
332.92        27.25731
333.37        27.29923
333.82        27.40153
334.27        27.55422
334.72        27.70161
335.17        27.75512
335.63        27.68875
336.08        27.52861
336.53        27.31925
336.98        27.15896
337.43        27.08222
337.88        27.06915
338.34        27.08569
338.79        27.09435
339.24         27.0769
339.69        27.05662
340.14        27.04926
340.59        27.07696
341.05        27.14435
341.50        27.22979
341.95        27.32139
342.40        27.41315
342.85        27.49236
343.30        27.54902
343.75        27.55884
344.20        27.48779
344.66        27.34377
345.11        27.14084
345.56        26.90663
346.01        26.67978
346.46        26.49061
346.91        26.34603
347.36        26.26935
347.81        26.29209
348.26        26.40665
348.72        26.58348
349.17         26.7892
349.62        26.96284
350.07        27.07229
350.52        27.13107
350.97         27.1081
351.42        26.96104
351.87         26.7062
352.32        26.37104
352.77         26.0578
353.22        25.93231
353.67        26.02694
354.13        26.28353
354.58        26.60535
355.03        26.83106
355.48         26.9028
355.93        26.86272
356.38        26.72861
356.83        26.53185
357.28        26.29886
357.73        26.02455
358.18        25.75072
358.63        25.54881
359.08        25.43114
359.53        25.37855
359.98        25.35757
360.43        25.30602
360.88        25.20326
361.33        25.07043
361.78        24.90122
362.23        24.68712
362.68        24.43934
363.13        24.16409
363.58        23.91014
364.03        23.75567
364.48        23.71301
364.93        23.75632
365.38        23.83131
365.83        23.84839
366.28        23.77914
366.73        23.64534
367.18        23.47245
367.63        23.30297
368.08        23.15264
368.53        23.01037
368.98         22.8714
369.43         22.7291
369.88        22.58538
370.33        22.45085
370.78        22.33616
371.23        22.25473
371.68        22.20496
372.13        22.17253
372.58        22.14426
373.03        22.10101
373.48        22.03175
373.93        21.93986
374.38        21.81129
374.83        21.62804
375.28        21.39898
375.72        21.13143
376.17        20.88547
376.62        20.70539
377.07        20.59782
377.52          20.545
377.97        20.52142
378.42        20.48384
378.87        20.41862
379.32        20.34019
379.77         20.2512
380.22         20.1554
380.67        20.05493
381.11        19.94289
381.56        19.83774
382.01        19.76962
382.46        19.74633
382.91        19.76624
383.36        19.79489
383.81        19.77742
384.26        19.70491
384.71        19.58846
385.15        19.47007
385.60        19.44565
386.05        19.51134
386.50        19.62626
386.95         19.7199
387.40         19.6843
387.85        19.50591
388.29        19.22687
388.74        18.92687
389.19        18.64812
389.64         18.4108
390.09        18.19363
390.54        18.03416
390.98        17.99327
391.43        18.07478
391.88        18.24953
392.33        18.41819
392.78        18.45819
393.23        18.35482
393.67        18.10535
394.12        17.81326
394.57        17.74705
395.02        17.67414
395.47        17.75923
395.91        17.86173
396.36         17.8643
396.81        17.74632
397.26         17.5581
397.71        17.36251
398.15        17.23886
398.60        17.22841
399.05        17.26036
399.50        17.30147
399.95        17.38455
400.39         17.4064
400.84        17.37317
401.29        17.27942
401.74        17.22217
402.18        17.21486
402.63        17.19459
403.08        17.16645
403.53        17.15302
403.97        17.15287
404.42        17.16729
404.87        17.16349
405.32        17.08709
405.76        16.93025
406.21        16.71715
406.66        16.51452
407.11        16.42951
407.55        16.48629
408.00        16.65221
408.45        16.84018
408.90        16.89059
409.34        16.76313
409.79        16.50953
410.24        16.24364
410.68        16.13667
411.13        16.22682
411.58        16.45977
412.03        16.73319
412.47        16.87301
412.92        16.81778
413.37        16.63394
413.81        16.40548
414.26        16.28224
414.71        16.28508
415.15        16.37098
415.60        16.47461
416.05        16.50962
416.49        16.45123
416.94        16.33824
417.39          16.203
417.83        16.08942
418.28        16.01823
418.73        15.96528
419.17        15.93999
419.62        15.96004
420.07        16.01907
420.51        16.11227
420.96          16.193
421.41        16.17871
421.85         16.0557
422.30        15.86769
422.74         15.6727
423.19        15.58295
423.64        15.61214
424.08        15.73674
424.53        15.89047
424.98        15.98418
425.42          15.989
425.87        15.91721
426.31        15.80629
426.76        15.74116
427.21        15.68894
427.65        15.65701
428.10         15.6188
428.54         15.5109
428.99        15.34562
429.44        15.25311
429.88         15.2219
430.33        15.03626
430.77        14.80569
431.22        14.99556
431.66        15.52975
432.11        15.80317
432.56        15.71729
433.00        15.61365
433.45        15.51179
433.89        15.18167
434.34        14.79452
434.78        14.77673
435.23        15.05903
435.67        15.16677
436.12        15.06965
436.57        15.03894
437.01        15.08717
437.46        15.11032
437.90        15.10429
438.35        15.08817
438.79        15.07127
439.24        15.04454
439.68        15.03177
440.13        15.09463
440.57        15.17656
441.02        15.18882
441.46        15.12268
441.91        14.90761
442.35        14.64676
442.80          14.795
443.24        15.22369
443.69        15.18643
444.13        14.73495
444.58        14.57636
445.02        14.71121
445.47        14.75815
445.91        14.69696
446.36        14.68819
446.80         14.7253
447.24        14.77097
447.69        14.80868
448.13        14.81465
448.58        14.78618
449.02        14.73113
449.47        14.68124
449.91        14.67549
450.36        14.72316
450.80        14.81216
451.25        14.90246
451.69        14.92838
452.13        14.87565
452.58        14.77064
453.02        14.65748
453.47        14.60581
453.91        14.62719
454.36        14.74156
454.80        14.83133
455.24        14.87822
455.69        14.84848
456.13        14.76611
456.58         14.6784
457.02        14.64325
457.46        14.67694
457.91        14.75205
458.35        14.83667
458.79        14.89147
459.24        14.91335
459.68        14.92347
460.13        14.92999
460.57        14.87474
461.01        14.87832
461.46         14.7938
461.90        14.69608
462.34        14.78575
462.79        15.00056
463.23        15.01069
463.68        14.83569
464.12        14.78048
464.56        14.85208
465.01        14.89719
465.45        14.88191
465.89        14.82357
466.34        14.74748
466.78        14.71811
467.22        14.77423
467.67        14.74669
468.11        14.65034
468.55        14.55423
468.99         14.4878
469.44        14.45559
469.88        14.46299
470.32         14.5156
470.77        14.58448
471.21        14.63638
471.65        14.65451
472.10        14.65065
472.54        14.64459
472.98        14.68545
473.42        14.77718
473.87        14.89798
474.31        15.00556
474.75        15.03814
475.20        14.99119
475.64        14.88763
476.08         14.7661
476.52        14.68251
476.97        14.65374
477.41        14.65674
477.85        14.69323
478.29        14.76278
478.74         14.8597
479.18        14.97522
479.62        15.06474
480.06         15.0951
480.50        15.06828
480.95        14.86261
481.39        14.76777
481.83        14.73583
482.27          14.866
482.72         15.0049
483.16        15.28953
483.60        15.43269
484.04        15.45509
484.48        15.40524
484.93        15.36439
485.37        15.38592
485.81        15.40929
486.25        15.75094
486.69         15.2703
487.14        15.46905
487.58        15.80601
488.02        15.80619
488.46        15.96022
488.90        16.11455
489.34        15.48225
489.79        15.42344
490.23        15.64017
490.67        15.88156
491.11        16.04065
491.55        15.99494
491.99        15.81464
492.43        15.81705
492.88         16.0186
493.32         16.1896
493.76        16.29063
494.20        16.39794
494.64        16.50825
495.08        16.59518
495.52        16.65233
495.96        16.71541
496.41        16.79597
496.85        16.78915
497.29        16.72894
497.73        16.96791
498.17        17.23742
498.61        17.26985
499.05        17.04522
499.49        16.98002
499.93        17.11119
500.37        17.27643
500.82        17.42395
501.26        17.51219
501.70         17.5258
502.14        17.50379
502.58        17.49712
503.02        17.56486
503.46        17.72055
503.90         17.9451
504.34        18.18177
504.78        18.33396
505.22        18.37504
505.66        18.33103
506.10        18.24243
506.54        18.19607
506.98        18.21936
507.42        18.25229
507.86        18.26214
508.30        18.40318
508.74        18.33029
509.18        18.33071
509.62        18.32728
510.06        18.36125
510.50        18.43718
510.94         18.5449
511.38        18.66137
511.82        18.74088
512.26        18.77131
512.70        18.76408
513.14        18.74319
513.58        18.74624
514.02        18.78343
514.46        18.84466
514.90         18.9087
515.34        18.94161
515.78         18.9348
516.22        18.89818
516.66        18.85653
517.10        18.84757
517.54        18.87759
517.98        18.93299
518.42        18.98251
518.86        18.97675
519.30        18.90648
519.74        18.79093
520.18        18.66441
520.62        18.57772
521.06        18.54607
521.50        18.55798
521.93        18.59364
522.37        18.61375
522.81        18.60898
523.25        18.58853
523.69        18.57088
524.13        18.58455
524.57        18.63156
525.01        18.69628
525.45        18.75099
525.89        18.75351
526.32          18.693
526.76        18.59169
527.20        18.47342
527.64        18.37495
528.08        18.30888
528.52        18.26638
528.96        18.24293
529.40        18.23071
529.83        18.22306
530.27        18.22316
530.71        18.22351
531.15        18.21392
531.59        18.18996
532.03        18.15088
532.46        18.09644
532.90        18.03398
533.34        17.96801
533.78        17.90445
534.22        17.84553
534.66         17.7929
535.09        17.74727
535.53        17.71314
535.97        17.70027
536.41        17.72879
536.85        17.79593
537.28        17.88961
537.72        17.97812
538.16          18.015
538.60        17.99118
539.04        17.92642
539.47        17.83992
539.91        17.77997
540.35        17.75677
540.79        17.76366
541.22        17.80306
541.66        17.88136
542.10        17.99123
542.54        18.12873
542.97        18.27592
543.41        18.40417
543.85        18.50592
544.29        18.59223
544.72        18.65755
545.16        18.71016
545.60        18.75465
546.04        18.78197
546.47        18.82339
546.91        18.95746
547.35        19.17589
547.79         19.3988
548.22        19.58037
548.66        19.75499
549.10        19.91809
549.53        19.97806
549.97        19.93484
550.41        20.20103
550.84        20.18404
551.28         20.3229
551.72        20.42026
552.15        20.63522
552.59        20.70014
553.03        20.81546
553.46        20.90984
553.90        20.99674
554.34        21.07231
554.77        21.14937
555.21        21.22556
555.65        21.24462
556.08        21.22657
556.52         21.2772
556.96        21.38549
557.39        21.48181
557.83        21.55725
558.27        21.60393
558.70        21.64562
559.14        21.74629
559.57        21.88975
560.01        22.03533
560.45        22.15903
560.88        22.16305
561.32        22.18377
561.75        22.23467
562.19        22.34222
562.63        22.39053
563.06        22.37584
563.50        22.37394
563.93        22.39457
564.37        22.44277
564.80        22.51561
565.24        22.61626
565.68        22.72406
566.11        22.82048
566.55        22.90084
566.98        22.94008
567.42        22.98256
567.85        23.05303
568.29        23.16245
568.72        23.36217
569.16        23.67211
569.60        23.62993
570.03         23.9568
570.47        24.10494
570.90        24.26599
571.34        24.34147
571.77        24.48471
572.21        24.55733
572.64        24.58627
573.08        24.68043
573.51        24.90679
573.95        24.76629
574.38        25.14293
574.82        25.22993
575.25        25.21116
575.69        25.14633
576.12        25.04321
576.56        25.28744
576.99        25.36345
577.42        25.35476
577.86         25.3715
578.29         25.3509
578.73        25.34708
579.16        25.39837
579.60        25.05066
580.03        24.85708
580.47        25.08555
580.90        25.08509
581.33        24.95808
581.77        24.95155
582.20        24.67073
582.64        24.76565
583.07        24.41498
583.51        24.22954
583.94        24.11269
584.37         23.9741
584.81        23.86746
585.24        23.97645
585.68        24.10301
586.11        24.02212
586.54        23.89633
586.98        23.68781
587.41          23.923
587.85        23.90938
588.28        23.75297
588.71        23.99999
589.15        23.66716
589.58         23.6999
590.01        23.54573
590.45        23.48224
590.88        23.46298
591.31        23.43116
591.75        23.39505
592.18        23.56122
592.61        23.87564
593.05        23.70254
593.48        23.81442
593.91        23.67346
594.35        23.68748
594.78        23.79173
595.21        24.02503
595.65         24.0516
596.08        23.88963
596.51        24.28465
596.94        24.46049
597.38        24.75669
597.81        24.92269
598.24        24.98186
598.68        25.18853
599.11        25.47036
599.54        25.72231
599.97        25.92453
600.41        26.07305
600.84        26.31905
601.27        26.64216
601.70        27.05049
602.14        27.47983
602.57        27.73598
603.00        27.84035
603.43         28.1502
603.87        28.58888
604.30           28.97
604.73        29.28153
605.16        29.63455
605.60        30.02428
606.03        30.44057
606.46        30.82716
606.89        31.23781
607.32        31.67477
607.76        32.05661
608.19        32.37464
608.62        32.66349
609.05        32.97646
609.48        33.31949
609.92        33.66105
610.35        34.06779
610.78        34.48181
611.21         34.4345
611.64        34.76552
612.07        35.00523
612.50           35.36
612.94        35.74127
613.37        36.20201
613.80        36.13531
614.23        36.76757
614.66        37.03081
615.09        37.28143
615.52        37.53704
615.96        37.80839
616.39        38.00223
616.82        38.11312
617.25         38.4767
617.68         38.6505
618.11        38.90369
618.54        39.09903
618.97        39.29187
619.40        39.49789
619.84        39.71043
620.27        39.95486
620.70        40.23629
621.13        40.46905
621.56        40.62331
621.99         40.6037
622.42        40.46063
622.85        40.69276
623.28        40.98537
623.71        41.23002
624.14        40.41306
624.57         41.0081
625.00        40.89642
625.43        40.83842
625.86        40.71968
626.29        40.53847
626.72         40.6475
627.15        40.33924
627.58        40.22637
628.01        40.09051
628.44        39.84157
628.87        39.51421
629.30        39.32554
629.73        39.25712
630.16        39.05577
630.59        38.70101
631.02        38.41487
631.45        38.03947
631.88        37.68416
632.31        37.30404
632.74        36.91187
633.17        36.50413
633.60        36.08064
634.03        35.64429
634.46        35.19373
634.89        34.73975
635.32        34.30233
635.75        33.88614
636.18        33.48537
636.61        33.09342
637.04        32.70293
637.47        32.31956
637.89         31.9289
638.32        31.52377
638.75        31.18703
639.18        30.93927
639.61        30.46293
640.04        30.31046
640.47        30.05476
640.90        29.85569
641.33        29.70229
641.76        29.57303
642.18        29.42497
642.61         29.2388
643.04        29.03452
643.47         28.8603
643.90        28.78314
644.33        28.81268
644.76        28.96451
645.18        29.16867
645.61        29.22872
646.04        29.09736
646.47        29.14553
646.90        29.35506
647.33        29.49517
647.75        29.56054
648.18        29.70746
648.61        29.95078
649.04        30.22151
649.47        30.52326
649.89        30.94202
650.32        31.43577
650.75        31.82997
651.18        32.15923
651.61        32.65934
652.03        33.31329
652.46        33.93158
652.89        34.43477
653.32        34.76399
653.74           35.03
654.17        35.26137
654.60        35.50974
655.03        36.55677
655.46        36.71338
655.88        38.10133
656.31        40.57543
656.74         41.4551
657.16        40.81034
657.59        39.74026
658.02        39.56004
658.45        40.53057
658.87        40.86002
659.30        41.43569
659.73        41.97999
660.15         42.2537
660.58        42.77984
661.01        43.10611
661.44        43.40919
661.86         43.4499
662.29        43.36811
662.72        43.77853
663.14        44.57635
663.57        44.79675
664.00        44.52145
664.42        44.64538
664.85        45.22092
665.27        45.74313
665.70        46.11758
666.13        46.44928
666.55        46.71777
666.98        46.88888
667.41        47.00821
667.83        47.14767
668.26        47.31854
668.69         47.5156
669.11        47.71792
669.54        47.88888
669.96        48.02092
670.39        48.14845
670.82        48.28045
671.24         48.3864
671.67        48.48458
672.09        48.67236
672.52        48.93506
672.94        49.20378
673.37        49.09119
673.80        49.53785
674.22        49.46774
674.65        49.71904
675.07        50.00847
675.50        50.33467
675.92        50.65051
676.35         50.8754
676.77        51.00589
677.20        51.05158
677.62        51.06399
678.05        51.12512
678.47         51.2532
678.90        51.43246
679.32        51.62888
679.75        51.78303
680.17        51.87334
680.60        51.98212
681.02        52.02822
681.45        52.11702
681.87        52.23293
682.30        52.35842
682.72        52.50444
683.15        52.64833
683.57         52.8097
684.00        53.01926
684.42        53.24683
684.85        53.44434
685.27        53.60479
685.70        53.66448
686.12        53.69208
686.54          54.037
686.97         54.5988
687.39        54.89272
687.82         54.8639
688.24        54.89926
688.66        55.00186
689.09        54.93345
689.51        54.74369
689.94        54.64147
690.36        54.65815
690.78        54.74445
691.21        54.89254
691.63        55.08833
692.06        55.31533
692.48        55.58767
692.90        55.86776
693.33        56.08507
693.75        56.22414
694.17        56.28846
694.60        56.32743
695.02        56.40995
695.44        56.54477
695.87        56.80747
696.29        57.12811
696.71        57.12062
697.14        56.87497
697.56        56.98619
697.98        57.42846
698.41        57.61142
698.83        57.56717
699.25        57.83439
699.68        58.32974
700.10        58.58871
700.52        58.55409
700.94        58.44183
701.37         58.3295
701.79        58.28907
702.21        58.34961
702.64        58.50036
703.06        58.68681
703.48        58.83307
703.90        58.92278
704.33        58.99134
704.75         59.0542
705.17        59.19658
705.59        59.41053
706.01        59.66972
706.44        59.93019
706.86        60.10781
707.28        60.17945
707.70        60.24064
708.12        60.33193
708.55        60.34551
708.97        60.37252
709.39         60.7495
709.81        61.37715
710.23        61.76426
710.66        61.83595
711.08        61.85297
711.50        61.87127
711.92        61.91045
712.34        62.00381
712.76        62.14591
713.19        62.28723
713.61        62.38718
714.03        62.41525
714.45         62.3944
714.87        62.37896
715.29        62.44442
715.71        62.60224
716.13        62.83774
716.56        63.07204
716.98        63.20559
717.40         63.1975
717.82         63.1753
718.24        63.18821
718.66        63.11228
719.08        63.20538
719.50        63.28113
719.92        63.39487
720.34        63.53688
720.76        63.63492
721.19        63.74453
721.61        63.84012
722.03        63.89054
722.45        63.89151
722.87        63.84653
723.29        63.79526
723.71        63.80364
724.13        63.88725
724.55        64.03242
724.97        64.19322
725.39         64.2898
725.81        64.30802
726.23        64.27836
726.65        64.25179
727.07        64.31129
727.49        64.47184
727.91        64.69257
728.33        64.94003
728.75        65.15508
729.17        65.31214
729.59        65.44775
730.01        65.53117
730.43           65.49
730.85        65.34847
731.27        65.17688
731.69        65.07111
732.10        65.15968
732.52        65.46754
732.94        65.94391
733.36        66.46112
733.78          66.906
734.20        66.98335
734.62        66.95898
735.04        66.85258
735.46        66.78845
735.88        66.84902
736.30        67.00986
736.72        67.20925
737.13        67.52299
737.55        67.74033
737.97        67.32465
738.39        66.51205
738.81        66.15186
739.23        66.38017
739.65        66.93744
740.06        67.53317
740.48        67.80035
740.90        67.64181
741.32        67.23222
741.74         66.7829
742.16        66.58993
742.57        66.75198
742.99        67.17313
743.41        67.69215
743.83          67.999
744.25        68.04356
744.67         68.0125
745.08        67.97524
745.50        67.93938
745.92        67.93609
746.34        67.95943
746.75        68.05511
747.17        68.14771
747.59        68.21152
748.01        68.58315
748.42        69.17079
748.84        68.59496
749.26        68.42735
749.68        68.19971
750.09        68.38518
750.51        68.72828
750.93        69.07285
751.35        69.07317
751.76        68.77319
752.18        68.67086
752.60        68.78407
753.01        68.81601
753.43        68.77029
753.85        68.58749
754.27        68.79843
754.68        68.87322
755.10        68.94659
755.52        69.06758
755.93        69.21258
756.35        69.24608
756.77         69.2728
757.18        69.52302
757.60        70.04782
758.02        70.56295
758.43        71.54298
758.85        71.08245
759.26        69.87879
759.68        68.62582
760.10        69.21558
760.51        70.09922
760.93        69.99815
761.34        70.21024
761.76        70.57864
762.18        70.44047
762.59         70.0027
763.01         69.6151
763.42        69.42477
763.84        69.31229
764.26        69.35413
764.67        69.49183
765.09        69.67593
765.50         70.3151
765.92        70.98697
766.33        70.73123
766.75        70.43443
767.16        70.54976
767.58        70.50535
768.00        70.32645
768.41        69.90714
768.83        70.34955
769.24        71.30173
769.66        71.29064
770.07        70.41142
770.49        69.75758
770.90        69.59358
771.32        70.01416
771.73        70.82955
772.15        71.19492
772.56         71.0288
772.97        71.04474
773.39         70.8749
773.80        71.12885
774.22        71.57431
774.63        71.85647
775.05        71.86259
775.46        71.88074
775.88         71.8806
776.29        71.71068
776.70        71.41129
777.12        71.18866
777.53        71.08094
777.95        70.99989
778.36        71.00446
778.77        71.13114
779.19        71.37594
779.60        71.91014
780.02         72.4985
780.43        72.58643
780.84        72.27814
781.26          72.012
781.67        71.99775
782.09        72.75204
782.50        73.90331
782.91        73.84842
783.33        72.70432
783.74        72.16355
784.15        72.31133
784.57        72.21793
784.98        71.95169
785.39        71.58147
785.81        71.95794
786.22        72.38421
786.63        72.97941
787.04        73.30843
787.46        73.39822
787.87        73.69392
788.28        74.16068
788.70        74.38698
789.11        74.34947
789.52        74.32345
789.93        74.30676
790.35        74.12958
790.76        73.84798
791.17        73.63979
791.58         73.5709
792.00        73.56973
792.41        73.65443
792.82        73.96178
793.23        74.40604
793.65        74.53383
794.06        74.43143
794.47        74.73464
794.88        75.28667
795.29        75.36249
795.71        74.90513
796.12         74.3288
796.53        73.84071
796.94        73.66724
797.35        73.91016
797.76         74.5088
798.18         75.2255
798.59        75.71095
799.00        75.83578
799.41        75.69872
799.82        75.42234
800.23        75.22416
800.64         75.1853
801.06         75.2118
801.47        75.30998
801.88        75.42329
802.29        75.51588
802.70        75.58393
803.11        75.64629
803.52        75.72318
803.93         75.8376
804.34        76.00536
804.75        76.10419
805.17        76.07843
805.58        75.97804
805.99        75.38262
806.40        74.62214
806.81        75.27146
807.22         76.9139
807.63        77.00188
808.04        75.65582
808.45        75.29041
808.86        76.04874
809.27        76.50807
809.68        76.48387
810.09         76.4031
810.50        76.24804
810.91        75.89538
811.32        75.53901
811.73        75.49382
812.14        75.81853
812.55        76.45522
812.96        77.16409
813.37        77.47694
813.78        77.27397
814.19         76.7236
814.60         76.0799
815.01        75.70105
815.42        75.67599
815.83         75.8923
816.24         76.2473
816.65        76.53902
817.05        76.67397
817.46        76.68452
817.87        76.61684
818.28        76.47266
818.69        76.27717
819.10        76.02605
819.51        75.78608
819.92        75.69631
820.33        75.79352
820.74        76.03046
821.14        76.35808
821.55        76.70197
821.96        77.01807
822.37        77.33001
822.78        77.56184
823.19        77.58585
823.60        77.37885
824.00         76.9643
824.41        76.49529
824.82        76.25121
825.23        76.29096
825.64        76.56379
826.04          76.908
826.45        76.94083
826.86         76.6102
827.27        76.04558
827.68        75.47731
828.08        75.28793
828.49        75.52753
828.90        76.10917
829.31        76.87976
829.72        77.57404
830.12        78.10803
830.53        78.45255
830.94        78.68411
831.35         78.8932
831.75        79.12132
832.16        79.24531
832.57        79.22318
832.97        78.96251
833.38        78.48542
833.79        77.92465
834.20        77.38268
834.60        76.96539
835.01         76.7441
835.42        76.65327
835.82        76.79437
836.23        77.25512
836.64        78.02811
837.04        79.09782
837.45        80.06818
837.86        80.44565
838.26        80.11354
838.67        79.22659
839.08        78.16318
839.48        77.50328
839.89        77.44285
840.29        77.80579
840.70        78.39327
841.11        78.88904
841.51        79.19869
841.92        79.38296
842.33        79.48843
842.73        79.56894
843.14        79.59384
843.54        79.55585
843.95        79.46605
844.35        79.42953
844.76        79.43745
845.17        79.46052
845.57        79.47741
845.98        79.40353
846.38          79.246
846.79        79.04482
847.19        78.77614
847.60        78.34798
848.00        77.80621
848.41        77.19748
848.81        76.74694
849.22        76.78521
849.62        77.39566
850.03        78.43501
850.43        79.66566
850.84        80.43382
851.24            80.6
851.65        80.20589
852.05        79.55808
852.46        79.13084
852.86        79.04118
853.27        79.20914
853.67        79.33228
854.07        79.20565
854.48        78.73311
854.88        78.03535
855.29        77.23286
855.69        76.81261
856.10        76.83134
856.50        77.26154
856.90        77.78852
857.31         77.9804
857.71        77.78239
858.12        77.28558
858.52        76.74959
858.92        76.54264
859.33        76.74873
859.73        77.29036
860.13         77.9511
860.54        78.40522
860.94        78.58923
861.34        78.48866
861.75        78.18898
862.15        77.90262
862.55        77.66351
862.96        77.47505
863.36        77.13766
863.76        76.35806
864.17        75.18108
864.57        73.78669
864.97        72.60059
865.38        72.20788
865.78        72.75066
866.18        74.02766
866.58        75.70024
866.99         77.0172
867.39        77.69193
867.79        77.86111
868.19        77.59179
868.60        77.02047
869.00        76.26701
869.40        75.27065
869.80        74.39039
870.21         74.2508
870.61        75.00558
871.01        76.45852
871.41         78.0183
871.81        78.71183
872.22        78.30463
872.62        77.07004
873.02        75.53285
873.42        74.59146
873.82        74.52053
874.22        75.07578
874.63         75.8618
875.03        76.26955
875.43        76.14414
875.83        75.67921
876.23        75.22641
876.63        75.34454
877.03        76.13888
877.44        77.34579
877.84        78.57329
878.24        79.09907
878.64        78.77434
879.04         77.8922
879.44        76.83991
879.84        76.17889
880.24         76.0462
880.64        76.22399
881.04        76.63014
881.44         77.1265
881.84        77.62282
882.24        78.21198
882.65        78.61543
883.05        78.48878
883.45        77.75738
883.85        76.57973
884.25        75.47798
884.65        75.25304
885.05        76.02945
885.45        77.51203
885.85        79.24226
886.25        80.41508
886.65        80.73383
887.05        80.44635
887.45        79.63072
887.85         78.4645
888.25        77.17006
888.65        75.77759
889.04        74.60992
889.44        74.17039
889.84        74.45522
890.24        75.39668
890.64        76.65486
891.04        77.46772
891.44        77.55444
891.84        77.11566
892.24        76.52065
892.64        76.30698
893.04        76.58279
893.44        77.16241
893.83        77.86852
894.23        78.31643
894.63        78.41883
895.03        78.31815
895.43        78.13286
895.83        78.03101
896.23        78.05556
896.63        78.10292
897.02        78.15112
897.42        78.23949
897.82         78.3278
898.22        78.45766
898.62        78.47253
899.01        78.11204
899.41         77.3603
899.81        76.33595
900.21        75.38882
900.61        75.05198
901.00        75.42249
901.40        76.33915
901.80          77.424
902.20        78.04308
902.59        78.00909
902.99        77.49123
903.39         76.7923
903.79        76.37497
904.18        76.35999
904.58        76.63531
904.98        76.97083
905.38        77.03584
905.77        76.73314
906.17        76.17049
906.57        75.60394
906.96        75.45203
907.36        75.76461
907.76        76.45154
908.15        77.13659
908.55        77.06948
908.95        76.18327
909.34        74.72102
909.74        73.34897
910.14        72.94706
910.53        73.73093
910.93        75.36986
911.33        77.37335
911.72         78.9651
912.12        79.79221
912.52        80.06364
912.91        80.02187
913.31        80.07641
913.70        80.35991
914.10        80.66634
914.49        80.79509
914.89         80.4579
915.29        79.64972
915.68        78.56175
916.08        77.49242
916.47        76.73439
916.87        76.43413
917.26        76.45905
917.66        76.75543
918.05        77.25456
918.45        77.82558
918.84        78.52947
919.24        79.11615
919.64        79.31479
920.03        79.07921
920.42        78.45868
920.82        77.73911
921.21        77.27892
921.61        77.18848
922.00        77.38511
922.40        77.73302
922.79        78.07926
923.19         78.3097
923.58        78.49176
923.98        78.60028
924.37        78.60372
924.77        78.49795
925.16        78.28173
925.55        78.00081
925.95        77.74827
926.34        77.58369
926.74        77.49478
927.13        77.45499
927.52        77.37327
927.92        77.24028
928.31        77.06045
928.70        76.92512
929.10        76.96233
929.49        77.18941
929.89        77.52943
930.28        77.84978
930.67        77.84741
931.07        77.46645
931.46        76.83559
931.85        76.15639
932.24        75.72907
932.64        75.64991
933.03        75.86928
933.42         76.2926
933.82        76.72414
934.21        77.10394
934.60        77.40397
934.99        77.73559
935.39        78.26579
935.78        79.05197
936.17        79.98265
936.56        80.63773
936.96         80.3908
937.35        79.18868
937.74        77.33256
938.13        75.50596
938.53        74.55762
938.92        74.60744
939.31        75.49827
939.70        76.74796
940.09        77.42061
940.49        77.20029
940.88        76.34907
941.27        75.41415
941.66        75.22108
942.05        75.94143
942.44        77.36651
942.84        78.83826
943.23        79.27747
943.62        78.35117
944.01        76.42095
944.40        74.44276
944.79        73.80791
945.18        74.77915
945.57        76.96175
945.97        79.32109
946.36        80.29043
946.75        79.33295
947.14        77.00665
947.53        74.38381
947.92         73.0659
948.31        73.46371
948.70        75.12868
949.09        77.27341
949.48        78.47607
949.87        78.26726
950.26        77.09611
950.65        75.70702
951.04         75.1223
951.43        75.57935
951.82        76.78894
952.21         78.1337
952.60        78.53059
952.99        77.70755
953.38        76.06849
953.77        74.46384
954.16        74.00672
954.55        74.90845
954.94        76.93475
955.33        79.29903
955.72        80.28851
956.11        79.32539
956.50        77.00723
956.89        74.52538
957.28        73.43439
957.66        74.07973
958.05        75.92705
958.44        78.23454
958.83        79.48287
959.22        79.13709
959.61         77.7739
960.00        76.09888
960.39        74.97108
960.78        74.58044
961.16        74.65972
961.55        74.97768
961.94        75.23679
962.33        75.29255
962.72        75.32893
963.11        75.35455
963.49        75.33691
963.88        75.29558
964.27        75.18208
964.66         75.1231
965.04        75.42804
965.43        76.04143
965.82        76.88618
966.21        77.70384
966.60        78.01437
966.98        77.72769
967.37        77.09661
967.76        76.30363
968.15        75.57214
968.53         74.9669
968.92        74.32175
969.31         73.9293
969.69        74.36123
970.08        75.63247
970.47        77.72644
970.86        79.70174
971.24        79.93451
971.63        78.11306
972.02        74.84107
972.40        71.55663
972.79        70.46507
973.17        71.95327
973.56        75.23338
973.95        79.15381
974.33        81.53069
974.72        81.54641
975.11        79.92213
975.49        77.59116
975.88        76.29809
976.26        76.50059
976.65        77.56638
977.04        79.00858
977.42        79.97754
977.81        79.99487
978.19        79.52737
978.58        78.75509
978.96        77.79138
979.35        76.83381
979.74        75.84598
980.12        75.16997
980.51        75.37511
980.89        76.60553
981.28        78.49847
981.66        80.79558
982.05        82.72591
982.43        84.09986
982.82        85.02503
983.20        85.20235
983.59        84.07873
983.97        81.80095
984.35        78.62945
984.74        75.82705
985.12        75.12428
985.51        76.70126
985.89        80.15589
986.28        84.03292
986.66        86.20502
987.04        85.87061
987.43         83.6598
987.81         80.5751
988.20        78.70615
988.58        78.64674
988.96        79.80149
989.35        81.16106
989.73        81.34135
990.12        79.90348
990.50        77.51065
990.88        74.81154
991.27        72.78242
991.65        71.74659
992.03         71.4791
992.42        71.86108
992.80        73.03777
993.18        74.82877
993.56        77.21138
993.95        79.75436
994.33        81.74449
994.71        82.73388
995.10        82.86409
995.48        82.33624
995.86        81.62589
996.24         80.9393
996.63        80.07929
997.01        79.36682
997.39        79.15198
997.77        79.52473
998.15        80.51168
998.54        81.64115
998.92        82.14206
999.30        81.83176
999.68         80.8492
1000.06        79.82833
1000.45        79.91991
1000.83        81.47553
1001.21        84.09531
1001.59        86.84367
1001.97        88.23449
1002.35        87.86864
1002.73        86.15523
1003.12        83.92737
1003.50         82.4077
1003.88        82.00076
1004.26        82.42551
1004.64        83.09869
1005.02        83.04317
1005.40        82.07458
1005.78        80.58887
1006.16        79.29762
1006.54        79.15511
1006.92        80.32344
1007.30        82.53858
1007.69        85.03977
1008.07        86.38676
1008.45        85.90697
1008.83        83.98472
1009.21        81.50089
1009.59        79.98195
1009.97        79.93658
1010.35        80.92264
1010.73        82.45325
1011.11        83.73759
1011.49        84.41923
1011.86        84.72689
1012.24        84.61856
1012.62        84.21114
1013.00        83.53375
1013.38        82.52516
1013.76        81.01916
1014.14          78.883
1014.52        76.25967
1014.90        73.40613
1015.28        71.02039
1015.66        69.92664
1016.04        70.32487
1016.41        72.17907
1016.79        74.83861
1017.17        76.88355
1017.55         77.7664
1017.93        77.79937
1018.31        77.81923
1018.69        78.90215
1019.06        81.41783
1019.44        85.31606
1019.82         90.1825
1020.20        93.15903
1020.58        92.17372
1020.95        88.12287
1021.33        83.36514
1021.71         79.9455
1022.09         77.8842
1022.46          76.355
1022.84        75.29668
1023.22         74.1131
1023.60        72.96758
1023.97        72.59957
1024.35        72.69621
1024.73        72.64334
