SpectraSmart Spectrum 2.9.0.0
--------- Device Information -----------
Spectrum Name :  反射率_0
Saving Time :  2024/04/30 01:18:36
Spectro-Module Model Name : SE2030-DUVN
Spectro-Module Serial Number : OS361AC55029948
Wavelength Start : 200
Wavelength End : 1025
Wavelength Unit : Wavelength(nm)
Spectrum Unit : Reflectance(%)
-----------Spectrum Setting ------------
Integration Time : 20ms
Average : 10
Boxcar : 0
Background removal :  enabled
linearity correction :  enabled
SC :  disabled
Intensity correction :  disabled
DWT denoise :  enabled
savitzky-golay :  disabled
FFT :  disabled
Running average :  disabled
Kalman :  disabled
High pass :  disabled
---------------BEGIN--------------------
Wavelength(nm)             Reflectance(%)
200.29               0
200.75        59.44483
201.21        51.83054
201.67        42.94479
202.13        32.17866
202.58        19.88098
203.04        6.283086
203.50       -4.551801
203.96       -3.848496
204.42        10.93007
204.88        36.22487
205.34        61.91845
205.80        72.71522
206.26        68.36165
206.72        57.60334
207.18        45.81146
207.64        35.69257
208.10        26.84707
208.55        17.24961
209.01        8.862267
209.47        7.662666
209.93        13.98298
210.39        24.59076
210.85        33.80327
211.31        36.80822
211.77        33.39202
212.23        23.36692
212.69         8.89854
213.14        3.199589
213.60        12.27828
214.06        28.05366
214.52        41.53441
214.98        47.36838
215.44        46.85004
215.90        42.63683
216.36        37.04853
216.81        34.30939
217.27        36.77402
217.73        43.59691
218.19        55.21677
218.65        68.04789
219.11         76.3175
219.57        79.38239
220.02        78.19152
220.48        74.63041
220.94        68.67493
221.40        59.05499
221.86        46.29974
222.32        37.25244
222.77        36.30813
223.23        40.59091
223.69         45.2962
224.15        47.52364
224.61         47.5489
225.06        46.20907
225.52        44.86387
225.98        45.76475
226.44        48.78182
226.90        52.15476
227.36        54.50618
227.81         55.0146
228.27        53.97621
228.73        51.78078
229.19        49.14632
229.65        47.71385
230.10        47.92855
230.56        49.02974
231.02        50.16748
231.48        50.64653
231.93        50.35735
232.39        49.65956
232.85        48.68767
233.31        47.76485
233.77        47.04959
234.22         46.5202
234.68        46.03326
235.14        45.43829
235.60        44.78584
236.05        44.20209
236.51        44.02114
236.97         44.5894
237.43        46.00943
237.88        48.46802
238.34        51.57399
238.80        54.32001
239.26        55.71449
239.71        55.86606
240.17        55.06413
240.63         54.2029
241.08        53.59297
241.54        52.78925
242.00        52.38148
242.46        54.51384
242.91        60.76192
243.37        69.68478
243.83        77.57673
244.28        82.03079
244.74        83.19173
245.20        80.71083
245.66        76.25218
246.11        74.31079
246.57         76.9882
247.03        84.18793
247.48        91.10052
247.94        87.42295
248.40         75.2446
248.85        61.92614
249.31        53.10593
249.77        50.49801
250.22         53.4262
250.68        61.92365
251.14         76.8365
251.59        89.22937
252.05        89.09642
252.51        82.17829
252.96         75.0064
253.42        70.50893
253.88        67.50905
254.33        64.63341
254.79        61.91156
255.25        59.65707
255.70        58.14077
256.16        57.57356
256.62        57.55061
257.07        57.67857
257.53        58.11644
257.99        58.68023
258.44        58.71496
258.90        58.04559
259.35        56.55287
259.81        54.96634
260.27        53.65847
260.72        52.97833
261.18         52.9324
261.63        53.01491
262.09        53.01381
262.55        52.37104
263.00        51.08758
263.46        49.65646
263.91        48.16933
264.37        46.98035
264.83        46.03495
265.28        45.15089
265.74        44.47531
266.19        44.02629
266.65        43.83413
267.11        43.83608
267.56        43.79316
268.02         43.3512
268.47        42.44316
268.93        41.19126
269.38        39.84181
269.84        38.95005
270.30        38.63248
270.75        38.69394
271.21        38.87218
271.66        38.75896
272.12        38.25224
272.57        37.46161
273.03        36.50573
273.48         35.4875
273.94        34.54845
274.39         33.6363
274.85        32.84943
275.31        32.24854
275.76        31.80802
276.22         31.5273
276.67        31.31431
277.13        31.12037
277.58        30.86588
278.04        30.59524
278.49        30.23814
278.95        29.79457
279.40        29.23626
279.86        28.65045
280.31        28.05323
280.77        27.58972
281.22        27.25068
281.68        27.02912
282.13        26.89431
282.59        26.85143
283.04         26.8498
283.50        26.86734
283.95        26.81966
284.41        26.59468
284.86        26.17306
285.32        25.64851
285.77        25.05313
286.22        24.50129
286.68        24.04566
287.13         23.6314
287.59        23.33402
288.04        23.20968
288.50        23.26108
288.95        23.42899
289.41        23.60483
289.86        23.58598
290.32        23.36273
290.77          22.999
291.22        22.59724
291.68         22.3244
292.13        22.22411
292.59        22.25898
293.04        22.44152
293.50        22.81466
293.95        23.35283
294.40         24.0447
294.86        24.74282
295.31        25.22804
295.77        25.45296
296.22        25.46864
296.68         25.4416
297.13         25.6201
297.58         26.0697
298.04        26.68348
298.49         27.3327
298.95        27.80661
299.40        28.05155
299.85        28.14949
300.31        28.17548
300.76        28.18769
301.21        28.24397
301.67         28.3215
302.12        28.41786
302.58        28.67266
303.03         29.0768
303.48        29.45449
303.94        29.69972
304.39        30.38345
304.84        30.24939
305.30        30.32441
305.75        30.29066
306.20        30.29519
306.66        30.36815
307.11        30.47212
307.57        30.58915
308.02        30.62239
308.47        30.56804
308.93         30.4624
309.38        30.33328
309.83        30.26818
310.29        30.28051
310.74         30.3356
311.19        30.37217
311.65        30.29077
312.10        30.07384
312.55        29.76396
313.00        29.43654
313.46        29.20644
313.91         29.0902
314.36        29.05098
314.82        29.04043
315.27        29.00001
315.72        28.89538
316.18        28.75514
316.63         28.5629
317.08        28.30276
317.53        27.98994
317.99        27.64187
318.44        27.30672
318.89        27.06752
319.35        26.94014
319.80        26.89473
320.25         26.9069
320.70        26.93277
321.16        26.93791
321.61        26.94591
322.06        26.90283
322.51        26.73288
322.97        26.43068
323.42        26.02095
323.87        25.59933
324.32          25.325
324.78        25.22281
325.23        25.26283
325.68        25.33975
326.13        25.27112
326.59        25.00647
327.04        24.61946
327.49        24.19559
327.94         23.8848
328.39         23.7264
328.85        23.65329
329.30        23.64095
329.75        23.61161
330.20        23.53375
330.66        23.44027
331.11         23.3059
331.56        23.06421
332.01        22.71678
332.46        22.27264
332.92        21.83824
333.37        21.63044
333.82        21.69334
334.27        21.97113
334.72        22.31173
335.17        22.45197
335.63        22.31383
336.08        21.97551
336.53         21.5437
336.98        21.21951
337.43        21.07272
337.88        21.04046
338.34        21.06926
338.79        21.09734
339.24        21.09005
339.69        21.08279
340.14        21.06856
340.59        21.02752
341.05        20.96115
341.50        20.86029
341.95        20.75833
342.40        20.72089
342.85        20.75511
343.30        20.83872
343.75        20.91233
344.20        20.88033
344.66        20.73521
345.11         20.5073
345.56        20.25713
346.01        20.07851
346.46        20.00194
346.91        19.99581
347.36        20.04129
347.81        20.11102
348.26        20.18621
348.72        20.27155
349.17        20.33554
349.62        20.32677
350.07        20.23646
350.52        20.07884
350.97        19.89647
351.42        19.75556
351.87        19.67772
352.32        19.65576
352.77        19.66734
353.22        19.67212
353.67        19.65853
354.13        19.63315
354.58        19.62499
355.03        19.68202
355.48        19.80162
355.93        19.95447
356.38        20.07601
356.83        20.07349
357.28        19.93289
357.73         19.6904
358.18        19.40928
358.63        19.18851
359.08        19.05778
359.53        18.99092
359.98         18.9599
360.43        18.91731
360.88         18.8472
361.33        18.76748
361.78        18.68379
362.23        18.60167
362.68        18.52506
363.13        18.44892
363.58        18.37501
364.03        18.31007
364.48        18.25344
364.93        18.20067
365.38        18.15252
365.83        18.10927
366.28         18.0701
366.73        18.03757
367.18        17.99575
367.63        17.92064
368.08        17.80828
368.53        17.66107
368.98         17.5143
369.43        17.42462
369.88         17.4039
370.33        17.44234
370.78        17.48237
371.23        17.42871
371.68        17.26341
372.13        17.01282
372.58        16.76056
373.03        16.64218
373.48        16.68145
373.93        16.82919
374.38        16.98824
374.83        16.99862
375.28        16.82568
375.72        16.52911
376.17        16.20217
376.62        15.94353
377.07        15.78431
377.52        15.68779
377.97        15.65437
378.42        15.68579
378.87        15.76804
379.32         15.9006
379.77        16.02879
380.22        16.07029
380.67        16.00761
381.11         15.8499
381.56        15.66055
382.01        15.54787
382.46        15.54012
382.91        15.61431
383.36         15.6908
383.81        15.64597
384.26        15.46169
384.71         15.1791
385.15        14.89905
385.60        14.80167
386.05        14.90392
386.50        15.13964
386.95        15.38414
387.40        15.44377
387.85        15.28484
388.29        14.97836
388.74        14.64821
389.19        14.41022
389.64        14.29629
390.09        14.25932
390.54        14.28668
390.98        14.35722
391.43        14.45202
391.88        14.57248
392.33        14.66956
392.78        14.68696
393.23        14.62185
393.67        14.45527
394.12        14.25458
394.57         14.2135
395.02        14.14094
395.47        14.17838
395.91        14.22216
396.36        14.19087
396.81        14.07405
397.26        13.90727
397.71        13.73861
398.15        13.62814
398.60        13.60787
399.05        13.62304
399.50        13.64478
399.95         13.6936
400.39        13.68751
400.84        13.63293
401.29        13.53085
401.74        13.46795
402.18        13.45753
402.63        13.44572
403.08        13.43229
403.53        13.42832
403.97        13.42953
404.42        13.43815
404.87         13.4246
405.32        13.34002
405.76        13.17906
406.21        12.96529
406.66         12.7611
407.11        12.66549
407.55        12.70257
408.00        12.84496
408.45        13.01756
408.90        13.08223
409.34        13.00001
409.79        12.80933
410.24         12.6074
410.68         12.5424
411.13        12.64506
411.58        12.86868
412.03        13.10622
412.47        13.17802
412.92        13.03165
413.37        12.74026
413.81        12.41693
414.26        12.24733
414.71        12.25876
415.15        12.39799
415.60        12.57312
416.05        12.64831
416.49        12.58278
416.94        12.42726
417.39        12.23604
417.83        12.09003
418.28        12.02112
418.73        11.99573
419.17        12.00336
419.62        12.03071
420.07        12.06554
420.51        12.11314
420.96        12.15381
421.41        12.14753
421.85        12.08673
422.30         11.9958
422.74        11.89601
423.19        11.84142
423.64         11.8375
424.08        11.87558
424.53        11.93078
424.98        11.98295
425.42        12.02101
425.87        12.03756
426.31        12.02724
426.76        12.00292
427.21        11.92603
427.65        11.82012
428.10        11.69051
428.54        11.52909
428.99        11.36057
429.44        11.26932
429.88         11.2378
430.33        11.09603
430.77        10.91958
431.22        11.05578
431.66        11.44816
432.11        11.63804
432.56        11.55085
433.00        11.45232
433.45        11.36356
433.89        11.08139
434.34        10.75944
434.78        10.80118
435.23        11.11732
435.67        11.21598
436.12        11.06337
436.57        10.93186
437.01        10.87131
437.46         10.8513
437.90        10.88454
438.35        10.96713
438.79        11.06481
439.24        11.10447
439.68         11.0873
440.13        11.07873
440.57        11.06381
441.02        11.02547
441.46        10.96992
441.91        10.82668
442.35        10.65613
442.80        10.77069
443.24         11.0716
443.69        11.02611
444.13        10.67221
444.58        10.52057
445.02        10.57268
445.47        10.55472
445.91        10.46851
446.36        10.45484
446.80        10.51184
447.24          10.605
447.69         10.7002
448.13        10.74656
448.58        10.73346
449.02        10.67738
449.47        10.61668
449.91        10.60563
450.36         10.6566
450.80        10.74997
451.25        10.84811
451.69        10.89246
452.13         10.8671
452.58        10.79721
453.02        10.71025
453.47        10.64976
453.91        10.62585
454.36        10.65676
454.80        10.67232
455.24        10.68287
455.69        10.66832
456.13        10.63743
456.58        10.61122
457.02        10.60964
457.46        10.63867
457.91        10.68574
458.35        10.73185
458.79        10.75236
459.24        10.75074
459.68        10.74216
460.13        10.74073
460.57        10.71593
461.01        10.75605
461.46         10.7464
461.90        10.73569
462.34        10.85902
462.79        11.06593
463.23        11.11672
463.68        11.01104
464.12        10.95752
464.56         10.9635
465.01         10.9234
465.45        10.84286
465.89        10.77778
466.34        10.75304
466.78         10.8057
467.22        10.93486
467.67        10.96068
468.11         10.8782
468.55        10.75565
468.99        10.64982
469.44        10.61914
469.88        10.67931
470.32        10.81559
470.77        10.97484
471.21        11.08493
471.65          11.118
472.10        11.09984
472.54        11.06489
472.98        11.08174
473.42        11.16318
473.87        11.28212
474.31        11.39714
474.75        11.44659
475.20        11.42261
475.64        11.34687
476.08         11.2565
476.52        11.20446
476.97        11.20579
477.41        11.24061
477.85        11.29841
478.29        11.35987
478.74        11.41941
479.18        11.47917
479.62        11.52578
480.06        11.56678
480.50        11.60754
480.95        11.53815
481.39        11.56159
481.83        11.61309
482.27        11.76187
482.72        11.89342
483.16        12.11871
483.60        12.22695
484.04        12.24469
484.48        12.17906
484.93        12.11498
485.37        12.20366
485.81        12.33334
486.25        12.61242
486.69         12.0188
487.14        12.18835
487.58        12.80071
488.02        12.92262
488.46        13.06274
488.90        13.22444
489.34        12.62976
489.79        12.64593
490.23        12.94458
490.67        13.25708
491.11        13.46081
491.55        13.43253
491.99        13.25617
492.43        13.28495
492.88        13.54051
493.32        13.76722
493.76        13.91617
494.20        14.06441
494.64        14.20542
495.08         14.3083
495.52           14.38
495.96        14.47558
496.41        14.60736
496.85        14.67498
497.29        14.68958
497.73        14.93385
498.17        15.16864
498.61        15.17161
499.05        14.94205
499.49        14.87117
499.93        14.99936
500.37        15.17463
500.82        15.35259
501.26        15.49844
501.70         15.5927
502.14        15.66852
502.58        15.74745
503.02        15.84365
503.46        15.96414
503.90        16.10409
504.34        16.24603
504.78        16.36037
505.22        16.43878
505.66        16.48793
506.10        16.51747
506.54        16.56219
506.98        16.63192
507.42        16.68252
507.86         16.6949
508.30        16.82788
508.74        16.77175
509.18        16.78297
509.62        16.78304
510.06        16.79909
510.50        16.83544
510.94        16.89011
511.38        16.95794
511.82        17.02109
512.26        17.07352
512.70        17.11711
513.14        17.15623
513.58        17.19841
514.02        17.24503
514.46        17.29295
514.90        17.33241
515.34         17.3492
515.78        17.34097
516.22        17.31223
516.66         17.2794
517.10        17.26733
517.54        17.28099
517.98        17.31388
518.42        17.34633
518.86        17.34603
519.30        17.30677
519.74        17.23987
520.18        17.16856
520.62        17.12756
521.06        17.12616
521.50        17.15602
521.93        17.19861
522.37        17.21802
522.81        17.20669
523.25        17.17276
523.69        17.13732
524.13        17.13324
524.57        17.16442
525.01        17.21673
525.45        17.26185
525.89        17.25537
526.32        17.18663
526.76        17.07797
527.20        16.95581
527.64        16.86068
528.08        16.80453
528.52        16.77581
528.96        16.76458
529.40        16.75467
529.83        16.73828
530.27        16.72248
530.71        16.70425
531.15        16.68038
531.59        16.64953
532.03        16.60917
532.46        16.56162
532.90        16.51721
533.34        16.47919
533.78        16.45143
534.22        16.42817
534.66        16.39896
535.09        16.36218
535.53        16.32516
535.97        16.30415
536.41        16.33057
536.85        16.40421
537.28         16.5084
537.72         16.6078
538.16        16.65051
538.60        16.62575
539.04          16.557
539.47        16.46284
539.91         16.3883
540.35        16.34638
540.79        16.33368
541.22        16.36118
541.66        16.44832
542.10        16.59004
542.54        16.77646
542.97        16.98296
543.41        17.17026
543.85        17.32512
544.29        17.45823
544.72        17.56098
545.16        17.63706
545.60         17.6918
546.04        17.71967
546.47        17.75481
546.91        17.87981
547.35        18.08993
547.79        18.30679
548.22         18.4918
548.66        18.68347
549.10         18.8766
549.53        18.98343
549.97        18.98658
550.41        19.25016
550.84        19.20502
551.28        19.28071
551.72        19.31517
552.15        19.49352
552.59        19.57384
553.03        19.74614
553.46        19.91534
553.90        20.03979
554.34         20.1067
554.77        20.15027
555.21        20.19143
555.65        20.20978
556.08        20.23266
556.52        20.34688
556.96        20.52515
557.39        20.67696
557.83        20.78489
558.27        20.84624
558.70        20.88875
559.14        20.98207
559.57        21.11326
560.01         21.2408
560.45        21.33786
560.88        21.30513
561.32        21.27646
561.75        21.27169
562.19        21.32707
562.63         21.3478
563.06        21.33424
563.50        21.35289
563.93         21.4068
564.37        21.49019
564.80        21.59526
565.24        21.72711
565.68        21.86095
566.11        21.97244
566.55        22.05613
566.98        22.08752
567.42        22.12061
567.85        22.19161
568.29        22.29992
568.72        22.52545
569.16        22.88786
569.60        22.80423
570.03        22.94622
570.47        23.29443
570.90        23.26482
571.34        23.23343
571.77        23.41545
572.21        23.45813
572.64        23.48642
573.08        23.60465
573.51        23.84488
573.95        23.91113
574.38        24.08561
574.82        24.23738
575.25        24.32297
575.69        24.32512
576.12        24.14214
576.56        24.34174
576.99        24.49788
577.42        24.47071
577.86        24.34794
578.29        24.16983
578.73         24.0407
579.16        24.30698
579.60        24.29568
580.03        24.23039
580.47         24.2947
580.90        24.15401
581.33         23.9078
581.77        24.14616
582.20        23.83662
582.64        23.68646
583.07        23.46319
583.51        23.30415
583.94        23.32414
584.37        23.20106
584.81        22.98259
585.24        23.08227
585.68        23.29646
586.11        23.17583
586.54        22.72658
586.98        22.78224
587.41        23.26891
587.85         23.0975
588.28        22.75681
588.71        22.99195
589.15        22.81505
589.58        22.79049
590.01        22.80877
590.45        22.73747
590.88        22.69078
591.31        22.74532
591.75        22.85305
592.18        22.97789
592.61        23.02978
593.05        22.79819
593.48        22.81884
593.91        23.02651
594.35        22.82266
594.78        22.89056
595.21        23.02164
595.65        23.02049
596.08        22.90827
596.51        23.34279
596.94        23.57528
597.38         23.8759
597.81        23.98001
598.24        24.06756
598.68        24.23945
599.11        24.40265
599.54        24.67176
599.97        25.02918
600.41        25.03582
600.84        25.69202
601.27        25.74771
601.70        26.12205
602.14        26.44541
602.57        26.72372
603.00        26.96333
603.43        27.19842
603.87        27.35615
604.30        27.99457
604.73        28.09569
605.16        28.50934
605.60        28.92574
606.03        29.27819
606.46        29.48719
606.89        30.05234
607.32        30.26022
607.76        30.62797
608.19        30.92676
608.62        31.23989
609.05        31.60271
609.48        31.91712
609.92        32.12183
610.35        32.68542
610.78        32.78233
611.21        32.80391
611.64         33.2614
612.07         33.5211
612.50         33.8047
612.94        33.94722
613.37        34.60281
613.80        34.57201
614.23        35.16889
614.66        35.39625
615.09        35.59487
615.52        35.71872
615.96        35.81239
616.39        36.06389
616.82        36.12504
617.25        36.61899
617.68        36.72417
618.11        36.91801
618.54        37.02455
618.97        37.27913
619.40        37.66591
619.84        37.90436
620.27        37.98756
620.70        38.14565
621.13        38.40652
621.56        38.27448
621.99         38.4813
622.42        38.52057
622.85         38.6804
623.28         38.6843
623.71        39.11564
624.14        38.58937
624.57        39.01667
625.00        38.94743
625.43        38.91037
625.86        38.79954
626.29        38.74725
626.72        38.67508
627.15        38.60097
627.58        38.56187
628.01         38.5279
628.44        38.38475
628.87        38.15005
629.30         37.9898
629.73        37.90244
630.16        37.73152
630.59        37.46582
631.02        37.28075
631.45        37.00673
631.88        36.73012
632.31        36.39801
632.74        36.05686
633.17        35.66252
633.60        35.26135
634.03        34.84833
634.46        34.42281
634.89        34.00064
635.32        33.61073
635.75        33.25902
636.18        32.93561
636.61        32.62729
637.04        32.31609
637.47        32.00058
637.89        31.66365
638.32        31.29382
638.75        30.96893
639.18        30.71028
639.61        30.20425
640.04        30.00791
640.47        29.69433
640.90        29.42976
641.33        29.20522
641.76        29.01901
642.18        28.85939
642.61        28.71026
643.04        28.57941
643.47        28.48211
643.90        28.43261
644.33        28.42772
644.76        28.49773
645.18        28.59552
645.61        28.56788
646.04        28.38224
646.47        28.38677
646.90        28.56175
647.33        28.68074
647.75        28.73768
648.18         28.8885
648.61        29.12645
649.04        29.36854
649.47        29.61117
649.89        29.88093
650.32        30.17801
650.75        30.51854
651.18        30.88633
651.61        31.26436
652.03         31.6347
652.46        31.94755
652.89        32.20932
653.32        32.49881
653.74        32.81907
654.17        33.16222
654.60        33.17229
655.03        34.00636
655.46        33.86922
655.88        35.04536
656.31        36.34992
656.74        36.32468
657.16        35.47924
657.59        34.96014
658.02         35.6786
658.45        36.90332
658.87        37.05712
659.30        37.03999
659.73        37.59511
660.15        38.36875
660.58         38.3526
661.01        38.58409
661.44        38.76071
661.86        38.92064
662.29        39.09822
662.72        39.47165
663.14         39.9667
663.57         40.0533
664.00        39.83215
664.42        39.90283
664.85        40.31794
665.27        40.73674
665.70        41.08255
666.13        41.40371
666.55        41.67882
666.98        41.89584
667.41        42.06672
667.83        42.20509
668.26        42.31621
668.69        42.39915
669.11        42.48996
669.54          42.639
669.96        42.85357
670.39        43.15681
670.82        43.48116
671.24         43.6343
671.67        43.62557
672.09        43.67195
672.52         43.8203
672.94        44.02132
673.37        43.94868
673.80        44.46592
674.22        44.55314
674.65        44.84447
675.07        45.06202
675.50        45.24599
675.92        45.40884
676.35        45.56467
676.77        45.73241
677.20        45.88108
677.62        46.02127
678.05        46.18399
678.47         46.3611
678.90        46.52811
679.32        46.66175
679.75        46.75295
680.17        46.79553
680.60         46.7976
681.02        46.78459
681.45        46.80723
681.87        46.88237
682.30         46.9822
682.72        47.11447
683.15        47.26032
683.57        47.42683
684.00        47.62274
684.42        47.81129
684.85        47.95956
685.27        48.06157
685.70        48.03721
686.12        47.97417
686.54        48.26097
686.97          48.809
687.39        49.11251
687.82        49.08884
688.24        49.15882
688.66        49.18596
689.09        49.04674
689.51        48.80246
689.94         48.7464
690.36        48.91656
690.78          49.231
691.21        49.60122
691.63        49.88232
692.06        50.02936
692.48        50.09859
692.90        50.12855
693.33        50.17239
693.75        50.25145
694.17        50.33972
694.60        50.45353
695.02        50.56927
695.44        50.66987
695.87        50.92548
696.29        51.30524
696.71        51.14129
697.14        51.07064
697.56        51.22828
697.98         51.7464
698.41        51.97797
698.83        51.86306
699.25        52.30355
699.68        52.27032
700.10        52.40365
700.52        52.37228
700.94        52.51724
701.37        52.39639
701.79        52.45929
702.21        52.58578
702.64        52.76291
703.06        52.96437
703.48         53.1665
703.90        53.36297
704.33        53.56305
704.75        53.74356
705.17        53.92384
705.59        54.08574
706.01         54.2254
706.44        54.34141
706.86         54.4435
707.28        54.53507
707.70        54.61097
708.12        54.69119
708.55        54.82367
708.97        55.00091
709.39        55.14398
709.81         55.2685
710.23        55.47684
710.66        55.75986
711.08        56.06722
711.50         56.3367
711.92         56.5246
712.34        56.62068
712.76        56.64114
713.19        56.61115
713.61        56.61312
714.03        56.65685
714.45        56.72602
714.87        56.82721
715.29        56.96853
715.71        57.14209
716.13        57.34477
716.56        57.52011
716.98        57.63874
717.40        57.66261
717.82        57.61135
718.24        57.52278
718.66        57.46173
719.08        57.45208
719.50        57.47818
719.92        57.53923
720.34        57.63055
720.76        57.74375
721.19        57.87473
721.61        58.01137
722.03        58.10611
722.45        58.14441
722.87         58.1461
723.29         58.1405
723.71         58.1341
724.13        58.12632
724.55        58.29728
724.97        58.34258
725.39        58.41696
725.81        58.41353
726.23         58.5969
726.65        58.64173
727.07        58.66057
727.49        58.87559
727.91        59.01168
728.33        59.16605
728.75        59.34023
729.17        59.52797
729.59        59.72767
730.01        59.87267
730.43        59.84882
730.85        59.66145
731.27        59.39342
731.69        59.15667
732.10        59.09419
732.52        59.24425
732.94          59.582
733.36        60.01729
733.78        60.36228
734.20        60.54877
734.62        60.63996
735.04        60.69466
735.46         60.7557
735.88        60.87121
736.30        61.13398
736.72         61.4514
737.13        61.54377
737.55        61.34556
737.97        61.08803
738.39        60.86792
738.81        60.58534
739.23        60.37025
739.65        60.67184
740.06        61.29081
740.48        61.55402
740.90        61.38529
741.32        61.12169
741.74        60.89528
742.16        60.81981
742.57        60.96451
742.99        61.20101
743.41        61.46923
743.83        61.82868
744.25        62.16896
744.67        62.15375
745.08        61.87488
745.50        61.80517
745.92        62.00045
746.34        62.19912
746.75        62.36458
747.17        62.50261
747.59        62.58548
748.01        62.70869
748.42        62.89642
748.84         62.6892
749.26         62.8106
749.68        62.77063
750.09        62.77458
750.51        62.77676
750.93        62.77545
751.35        62.80134
751.76          62.846
752.18        62.88644
752.60        62.91742
753.01        62.95311
753.43        62.98445
753.85        63.02319
754.27        63.08192
754.68        63.18142
755.10        63.29451
755.52        63.38171
755.93        63.41979
756.35        63.38222
756.77        63.34645
757.18        63.48448
757.60        63.82492
758.02        64.33393
758.43        64.66636
758.85        64.98417
759.26        63.55405
759.68        63.23122
760.10        63.52964
760.51        63.81709
760.93        63.91709
761.34        63.97773
761.76         64.4126
762.18        64.42773
762.59        64.17574
763.01         63.6537
763.42        63.09257
763.84        62.87179
764.26        63.07748
764.67        63.48117
765.09        63.93968
765.50        64.51613
765.92        64.73886
766.33        64.82575
766.75        64.64621
767.16         64.5676
767.58        64.60062
768.00        64.44925
768.41        64.21728
768.83        64.41831
769.24        64.86269
769.66          64.926
770.07        64.61903
770.49        64.15115
770.90         63.6674
771.32        64.24813
771.73        64.58765
772.15        64.86004
772.56        64.65162
772.97         64.6963
773.39         64.6012
773.80        64.70692
774.22        64.87618
774.63        65.15491
775.05         65.4274
775.46        65.59966
775.88        65.61324
776.29        65.52381
776.70        65.37171
777.12        65.24762
777.53        65.19048
777.95        65.16753
778.36        65.18896
778.77        65.24689
779.19        65.33205
779.60        65.51031
780.02        65.72342
780.43         65.8667
780.84        65.96094
781.26        66.07587
781.67        66.22581
782.09        66.55788
782.50        66.91273
782.91        66.67097
783.33        65.95642
783.74        65.56212
784.15        65.55764
784.57         65.5995
784.98        65.67419
785.39        65.53615
785.81        65.80312
786.22        66.00412
786.63        66.19859
787.04        66.49459
787.46         66.8437
787.87        67.20885
788.28        67.52948
788.70        67.72844
789.11        67.78336
789.52        67.73656
789.93        67.63915
790.35        67.56552
790.76        67.55336
791.17        67.58864
791.58          67.674
792.00         67.7415
792.41         67.7826
792.82        67.93793
793.23         68.1631
793.65        68.03229
794.06        67.71201
794.47        67.99535
794.88        68.67761
795.29        68.81223
795.71         68.3242
796.12        67.74197
796.53        67.28654
796.94        67.15034
797.35        67.43463
797.76        68.07732
798.18         68.8334
798.59        69.34589
799.00        69.48509
799.41        69.35013
799.82         69.0639
800.23         68.8478
800.64        68.78143
801.06         68.7654
801.47        68.81396
801.88         68.8849
802.29        68.95202
802.70         69.0322
803.11        69.10447
803.52        69.11753
803.93        69.08002
804.34        69.01629
804.75        68.93157
805.17        68.92948
805.58        69.07124
805.99        69.03226
806.40        68.90659
806.81        69.51946
807.22        70.55794
807.63        70.44219
808.04        69.33565
808.45        68.93165
808.86        69.37386
809.27        69.71616
809.68        69.78216
810.09        69.74405
810.50        69.56068
810.91        69.18886
811.32        68.81392
811.73        68.72591
812.14        68.98415
812.55        69.52677
812.96        70.12903
813.37        70.36808
813.78        70.13895
814.19        69.59313
814.60        68.98856
815.01        68.69022
815.42        68.78283
815.83        69.15681
816.24         69.6664
816.65        70.02341
817.05        70.11007
817.46        69.98094
817.87        69.75418
818.28        69.54836
818.69        69.41229
819.10         69.3105
819.51        69.24155
819.92        69.21651
820.33        69.23707
820.74        69.30532
821.14        69.43453
821.55        69.64446
821.96        69.91782
822.37        70.24191
822.78        70.53057
823.19        70.63583
823.60        70.51679
824.00        70.21232
824.41        69.83025
824.82        69.57418
825.23        69.49738
825.64        69.56339
826.04        69.69878
826.45        69.69651
826.86        69.53403
827.27        69.27648
827.68        69.03857
828.08         69.0154
828.49        69.20824
828.90        69.59235
829.31        70.06398
829.72        70.44705
830.12        70.70747
830.53        70.80347
830.94        70.86301
831.35        71.06459
831.75        71.45739
832.16        71.90847
832.57         72.2702
832.97        72.26169
833.38        71.84411
833.79        71.18629
834.20         70.4706
834.60        69.93374
835.01        69.68298
835.42        69.62534
835.82        69.81316
836.23        70.26091
836.64        70.94102
837.04        71.85783
837.45        72.69656
837.86        73.08226
838.26        72.91554
838.67        72.30582
839.08        71.50371
839.48        70.89664
839.89        70.64887
840.29        70.65724
840.70        70.85212
841.11        71.12617
841.51        71.44361
841.92        71.80191
842.33        72.17916
842.73        72.50938
843.14        72.71033
843.54        72.80457
843.95        72.78761
844.35         72.7344
844.76         72.6468
845.17        72.50242
845.57        72.33658
845.98         72.1693
846.38        72.03151
846.79         71.9369
847.19        71.82668
847.60        71.54771
848.00        71.11017
848.41         70.5722
848.81        70.13203
849.22        70.08082
849.62        70.49445
850.03        71.23515
850.43        72.11436
850.84        72.60054
851.24         72.5928
851.65        72.13261
852.05        71.47192
852.46        70.99364
852.86        70.81252
853.27        70.84595
853.67        70.85143
854.07          70.769
854.48        70.53922
854.88        69.83741
855.29        69.46141
855.69        69.19621
856.10        69.27667
856.50        69.66882
856.90        70.11182
857.31        70.23936
857.71        70.01514
858.12         69.5294
858.52        69.01459
858.92        68.80363
859.33        68.97818
859.73        69.47532
860.13        70.12937
860.54        70.68922
860.94        71.10159
861.34         71.3357
861.75        71.39868
862.15        71.36073
862.55        71.21455
862.96        70.98325
863.36        70.55653
863.76        69.79023
864.17        68.75038
864.57        67.56474
864.97        66.55499
865.38        66.15048
865.78        66.45972
866.18        67.33887
866.58        68.53887
866.99        69.50008
867.39        70.01417
867.79        70.17571
868.19        70.02245
868.60        69.63609
869.00         69.1055
869.40        68.39623
869.80        67.78622
870.21        67.75791
870.61        68.43618
871.01        69.64735
871.41        70.95311
871.81        71.63681
872.22        71.51148
872.62        70.77386
873.02        69.75758
873.42        69.03919
873.82        68.82198
874.22        68.97585
874.63        69.29022
875.03        69.44296
875.43        69.35132
875.83        69.11278
876.23        68.97027
876.63        69.30331
877.03        70.14878
877.44        71.30108
877.84         72.3952
878.24         72.7541
878.64        72.26091
879.04        71.20053
879.44        69.98235
879.84        69.20144
880.24        69.00816
880.64        69.19351
881.04        69.67008
881.44        70.28378
881.84        70.93135
882.24        71.68805
882.65        72.28056
883.05        72.36549
883.45        71.84612
883.85        70.85786
884.25        69.85108
884.65        69.52731
885.05        70.01185
885.45        71.06142
885.85         72.3259
886.25        73.18601
886.65        73.40961
887.05        73.19479
887.45         72.5836
887.85        71.67402
888.25        70.63239
888.65        69.49745
889.04        68.53124
889.44        68.15018
889.84        68.35123
890.24        69.06786
890.64        70.05097
891.04        70.73332
891.44        70.89864
891.84        70.70273
892.24        70.37617
892.64        70.26384
893.04        70.44518
893.44        70.78565
893.83        71.24349
894.23         71.6738
894.63        72.03524
895.03        72.38279
895.43        72.64704
895.83        72.71724
896.23        72.57792
896.63        72.21151
897.02        71.77173
897.42        71.58771
897.82        71.70236
898.22        72.08141
898.62        72.42124
899.01        72.21478
899.41        71.38504
899.81         70.1353
900.21        68.95358
900.61        68.58164
901.00        69.15395
901.40         70.4188
901.80        71.87355
902.20        72.68628
902.59        72.61176
902.99        71.89413
903.39        70.90392
903.79        70.20284
904.18        69.95826
904.58        70.03315
904.98        70.23231
905.38        70.27515
905.77        70.07431
906.17        69.74338
906.57        69.46748
906.96        69.54552
907.36        69.99224
907.76        70.71266
908.15        71.42301
908.55        71.54201
908.95        71.01962
909.34        70.04436
909.74        69.07861
910.14        68.69794
910.53        69.07439
910.93        69.97322
911.33        71.18381
911.72        72.38095
912.12        73.32282
912.52         74.0964
912.91         74.6503
913.31        74.88618
913.70        74.80428
914.10        74.38175
914.49        73.70795
914.89        72.92424
915.29         72.1395
915.68        71.40255
916.08        70.83423
916.47        70.46679
916.87        70.35757
917.26         70.4419
917.66        70.75671
918.05        71.36839
918.45        72.18184
918.84        73.19769
919.24        74.04021
919.64        74.24326
920.03        73.71935
920.42        72.58442
920.82        71.32088
921.21        70.57274
921.61        70.51798
922.00        71.02578
922.40        71.74699
922.79        72.15405
923.19        72.06048
923.58        71.64915
923.98        71.21385
924.37        71.21776
924.77        71.73992
925.16        72.60548
925.55        73.48013
925.95        73.84265
926.34        73.58828
926.74        72.88447
927.13        72.03654
927.52        71.49397
927.92        71.39955
928.31        71.59444
928.70        71.92212
929.10        72.11825
929.49        72.08526
929.89        71.87661
930.28        71.56342
930.67        71.18257
931.07        70.78419
931.46        70.39938
931.85        70.02073
932.24        69.64355
932.64         69.3018
933.03        69.02892
933.42        68.95805
933.82        69.28076
934.21        70.01924
934.60        71.02267
934.99        72.09492
935.39        72.90526
935.78        73.38026
936.17         73.5618
936.56        73.33542
936.96        72.59943
937.35        71.45618
937.74        70.02855
938.13         68.7565
938.53        68.17245
938.92        68.32278
939.31        69.14067
939.70        70.25046
940.09        70.89701
940.49        70.81807
940.88        70.20403
941.27        69.48148
941.66        69.31995
942.05        69.86369
942.44        70.94949
942.84        72.07364
943.23        72.41269
943.62        71.71186
944.01        70.25643
944.40        68.78513
944.79        68.37021
945.18        69.21148
945.57        70.99612
945.97         72.9051
946.36        73.74668
946.75        73.07381
947.14        71.30047
947.53        69.25077
947.92        68.15449
948.31        68.33872
948.70        69.48934
949.09        70.98192
949.48         71.6957
949.87        71.29253
950.26         70.1321
950.65        68.91782
951.04        68.61759
951.43        69.42825
951.82        71.08106
952.21        72.86263
952.60        73.49397
952.99        72.62989
953.38        70.69491
953.77        68.66805
954.16        67.84178
954.55        68.46484
954.94        70.28555
955.33        72.41119
955.72        72.94707
956.11        71.32626
956.50        68.26177
956.89        65.20633
957.28        64.01971
957.66         65.0697
958.05        67.76243
958.44         71.0581
958.83        72.82283
959.22        72.32264
959.61        70.31694
960.00        67.91577
960.39        66.52905
960.78        66.44449
961.16        67.23405
961.55        68.39227
961.94         69.0179
962.33           68.77
962.72        68.07558
963.11         67.2696
963.49        66.74821
963.88        66.63657
964.27        66.76071
964.66        67.14119
965.04        67.90069
965.43        68.90536
965.82        70.12718
966.21        71.30625
966.60        71.93925
966.98        71.91631
967.37        71.44715
967.76        70.71529
968.15        69.97605
968.53        69.30759
968.92         68.5456
969.31        68.00866
969.69        68.30674
970.08        69.48464
970.47        71.53155
970.86        73.47488
971.24        73.62141
971.63        71.65975
972.02        68.22809
972.40        64.82391
972.79        63.72623
973.17        65.32651
973.56        68.78777
973.95        72.91859
974.33        75.46381
974.72         75.5728
975.11         73.9921
975.49         71.6138
975.88        70.11744
976.26        69.97075
976.65        70.58344
977.04        71.61486
977.42        72.48277
977.81        72.78717
978.19        72.89302
978.58        72.82731
978.96        72.45791
979.35        71.88558
979.74        71.11317
980.12        70.46204
980.51        70.48806
980.89        71.35458
981.28        72.71542
981.66        74.39611
982.05        75.79307
982.43        76.77395
982.82         77.4427
983.20        77.50492
983.59        76.40025
983.97        74.23692
984.35        71.27076
984.74        68.64986
985.12        67.95099
985.51        69.32912
985.89        72.42184
986.28        75.87922
986.66        77.76492
987.04        77.33261
987.43        75.15615
987.81        72.17812
988.20        70.39484
988.58        70.35661
988.96         71.5424
989.35        72.91354
989.73        73.01741
990.12        71.43832
990.50        68.84727
990.88        66.06357
991.27        64.34985
991.65        64.03918
992.03        64.75867
992.42        66.13671
992.80        67.93964
993.18        69.87933
993.56         72.0458
993.95         74.0809
994.33        75.42377
994.71        75.78319
995.10        75.32025
995.48        74.38776
995.86        73.65788
996.24          73.349
996.63        73.20509
997.01        73.39014
997.39        73.95127
997.77        74.78368
998.15        75.89467
998.54         76.7866
998.92         76.6679
999.30        75.40335
999.68        73.22742
1000.06        70.81805
1000.45        69.46623
1000.83        69.69531
1001.21        71.15137
1001.59        73.37859
1001.97        75.57002
1002.35        77.33443
1002.73        78.80456
1003.12        79.80898
1003.50        80.03275
1003.88        79.51927
1004.26        78.35065
1004.64        76.86102
1005.02        75.70435
1005.40        75.14331
1005.78        75.07494
1006.16        75.41184
1006.54        75.98434
1006.92        76.71183
1007.30         77.6568
1007.69        78.65416
1008.07        79.43262
1008.45        79.77394
1008.83        79.66831
1009.21        79.19161
1009.59        78.59629
1009.97        77.96728
1010.35        77.18755
1010.73        76.40277
1011.11        75.82244
1011.49        75.50624
1011.86        75.61131
1012.24        75.58328
1012.62         74.7284
1013.00        72.91877
1013.38        70.20377
1013.76        67.53436
1014.14        66.91418
1014.52        68.92422
1014.90        72.93633
1015.28        77.14562
1015.66        78.77677
1016.04        77.18773
1016.41        73.26095
1016.79        68.29642
1017.17        65.17211
1017.55        64.90462
1017.93        66.29462
1018.31        68.49125
1018.69        70.97147
1019.06        73.89883
1019.44         77.8271
1019.82        82.74539
1020.20        86.63015
1020.58        87.58192
1020.95        85.57489
1021.33        82.42512
1021.71        80.15832
1022.09        78.94285
1022.46        78.15658
1022.84         77.4456
1023.22        75.47768
1023.60        72.46646
1023.97        69.74966
1024.35        68.01601
1024.73        67.49443
