SpectraSmart Spectrum 2.9.0.0
--------- Device Information -----------
Spectrum Name :  反射率_0
Saving Time :  2024/04/30 00:55:27
Spectro-Module Model Name : SE2030-DUVN
Spectro-Module Serial Number : OS361AC55029948
Wavelength Start : 200
Wavelength End : 1025
Wavelength Unit : Wavelength(nm)
Spectrum Unit : Reflectance(%)
-----------Spectrum Setting ------------
Integration Time : 20ms
Average : 10
Boxcar : 0
Background removal :  enabled
linearity correction :  enabled
SC :  disabled
Intensity correction :  disabled
DWT denoise :  enabled
savitzky-golay :  disabled
FFT :  disabled
Running average :  disabled
Kalman :  disabled
High pass :  disabled
---------------BEGIN--------------------
Wavelength(nm)             Reflectance(%)
200.29               0
200.75        44.00378
201.21        32.02233
201.67        19.94881
202.13        11.09458
202.58        7.265825
203.04        8.658107
203.50        16.25395
203.96        30.92114
204.42        50.80671
204.88        72.97419
205.34        89.41277
205.80         90.5666
206.26        79.34206
206.72        63.66522
207.18        48.97197
207.64        37.66451
208.10        28.76608
208.55        20.34047
209.01        13.49632
209.47        12.28944
209.93         16.8584
210.39        24.88145
210.85        31.91811
211.31        34.22198
211.77        31.56318
212.23         23.5899
212.69         12.0172
213.14        7.488758
213.60        14.70239
214.06        27.41234
214.52        38.00146
214.98         41.7415
215.44        39.64875
215.90        33.77591
216.36        26.72671
216.81        23.38666
217.27        26.43958
217.73        35.58237
218.19        49.96023
218.65        61.68559
219.11        64.31033
219.57        60.27805
220.02        54.66904
220.48        51.64461
220.94        50.97728
221.40        51.26439
221.86        51.34635
222.32        49.09202
222.77         44.7543
223.23        41.00637
223.69        38.20734
224.15        35.81583
224.61        33.43961
225.06        30.82888
225.52        28.64545
225.98        28.27767
226.44        29.82558
226.90        32.16252
227.36        34.37758
227.81        36.05249
228.27        37.30855
228.73        38.35862
229.19        39.12748
229.65          39.349
230.10        38.99953
230.56        38.29997
231.02        37.45267
231.48        36.60675
231.93        35.66805
232.39        34.65757
232.85         33.5474
233.31        32.40416
233.77        31.31227
234.22        30.39481
234.68        29.61599
235.14        28.91678
235.60        28.38731
236.05        28.09174
236.51        28.29456
236.97        29.32507
237.43        31.31142
237.88        34.46323
238.34        38.47508
238.80        42.16531
239.26         44.2696
239.71        44.70777
240.17        43.86538
240.63        42.87487
241.08        42.05799
241.54        40.98989
242.00        39.64191
242.46        38.68134
242.91        39.28884
243.37        41.70175
243.83        44.90388
244.28        47.69019
244.74        49.86301
245.20        51.53996
245.66        52.97651
246.11        54.67317
246.57        56.84224
247.03        59.57762
247.48        61.23692
247.94        58.53831
248.40        53.04179
248.85        47.30758
249.31        43.95389
249.77        43.77594
250.22        46.71796
250.68        53.61703
251.14        64.87924
251.59        73.05458
252.05         71.2169
252.51        64.33272
252.96        58.42447
253.42        56.19862
253.88        56.42422
254.33        57.84367
254.79        59.09111
255.25        57.36626
255.70        53.22728
256.16        49.16794
256.62        46.42083
257.07        45.54239
257.53         46.3236
257.99        47.98121
258.44        49.53313
258.90        50.22842
259.35        49.69777
259.81        48.77572
260.27        47.83031
260.72         47.1973
261.18        46.96425
261.63        46.72897
262.09        46.42784
262.55        45.74347
263.00        44.67877
263.46        43.58002
263.91         42.4517
264.37        41.50734
264.83        40.68993
265.28        39.87975
265.74         39.2212
266.19        38.74092
266.65         38.4804
267.11        38.37766
267.56         38.2537
268.02        37.83675
268.47        37.06672
268.93        36.03209
269.38        34.90491
269.84        34.10503
270.30        33.71943
270.75         33.6199
271.21        33.59506
271.66        33.31367
272.12        32.70361
272.57        31.85716
273.03        30.93159
273.48        30.09762
273.94        29.46903
274.39        28.94428
274.85         28.5132
275.31        28.10051
275.76        27.66261
276.22        27.24993
276.67         26.8244
277.13         26.4038
277.58        25.95368
278.04        25.50454
278.49        25.02959
278.95        24.57362
279.40        24.11156
279.86        23.70447
280.31        23.31824
280.77        23.00499
281.22        22.73896
281.68        22.53289
282.13        22.39207
282.59        22.36152
283.04        22.41332
283.50          22.514
283.95        22.57919
284.41        22.48654
284.86        22.21732
285.32        21.86175
285.77        21.46282
286.22        21.14539
286.68        20.95173
287.13        20.80766
287.59        20.75751
288.04        20.81529
288.50        20.97187
288.95        21.19141
289.41        21.37106
289.86        21.32183
290.32        21.04965
290.77        20.62319
291.22        20.19067
291.68         19.9883
292.13        20.06747
292.59        20.36634
293.04        20.83454
293.50        21.41594
293.95        22.07156
294.40         22.8257
294.86        23.58089
295.31        24.19966
295.77        24.65299
296.22        24.95411
296.68        25.24917
297.13        25.75611
297.58        26.52067
298.04         27.4458
298.49        28.36529
298.95        29.01222
299.40        29.33204
299.85        29.42487
300.31        29.44258
300.76        29.56086
301.21        29.85906
301.67        30.28188
302.12        30.74664
302.58        31.26796
303.03        31.81217
303.48        32.25457
303.94        32.56254
304.39        33.38436
304.84        33.53391
305.30        33.94569
305.75        34.25708
306.20        34.52618
306.66        34.75934
307.11        34.94874
307.57        35.09791
308.02        35.13385
308.47        35.07263
308.93        34.94515
309.38        34.80403
309.83        34.77979
310.29        34.89176
310.74        35.09447
311.19        35.28669
311.65        35.30346
312.10        35.10963
312.55        34.76341
313.00        34.37921
313.46        34.13514
313.91        34.06218
314.36        34.10734
314.82        34.17948
315.27        34.15266
315.72        33.97969
316.18         33.7132
316.63        33.39335
317.08        33.09181
317.53         32.8415
317.99        32.63077
318.44        32.44743
318.89        32.27956
319.35        32.12077
319.80        31.97309
320.25         31.8617
320.70         31.8236
321.16        31.84481
321.61        31.92076
322.06        31.96651
322.51        31.85643
322.97        31.56568
323.42        31.13901
323.87        30.67445
324.32        30.33232
324.78        30.14536
325.23         30.0878
325.68        30.07577
326.13        29.96829
326.59        29.72147
327.04        29.39234
327.49        29.04802
327.94         28.8084
328.39        28.69633
328.85        28.65063
329.30        28.62128
329.75        28.48098
330.20        28.19953
330.66        27.82863
331.11        27.41908
331.56         27.0224
332.01        26.66731
332.46        26.33313
332.92         26.0574
333.37        25.93636
333.82        25.97061
334.27        26.13889
334.72        26.32872
335.17        26.34629
335.63        26.14092
336.08        25.77184
336.53        25.33944
336.98        25.04005
337.43        24.93406
337.88        24.95743
338.34        25.04786
338.79        25.12589
339.24        25.14908
339.69        25.15621
340.14        25.12498
340.59        25.01415
341.05        24.83208
341.50        24.58474
341.95        24.35085
342.40        24.26696
342.85         24.3507
343.30        24.55046
343.75        24.76669
344.20        24.83664
344.66        24.72815
345.11        24.49272
345.56        24.18485
346.01        23.89156
346.46        23.65817
346.91         23.4617
347.36         23.3366
347.81        23.33539
348.26        23.45102
348.72        23.66464
349.17         23.8912
349.62        23.98133
350.07        23.89567
350.52        23.67568
350.97        23.39718
351.42        23.17951
351.87        23.06112
352.32        23.01638
352.77        23.01547
353.22         23.0092
353.67        22.98067
354.13        22.94168
354.58        22.91983
355.03        22.95659
355.48        23.04861
355.93        23.16935
356.38        23.25352
356.83        23.20748
357.28        23.02119
357.73        22.73453
358.18        22.42147
358.63        22.19824
359.08          22.094
359.53        22.06976
359.98        22.08624
360.43        22.07883
360.88        22.02245
361.33        21.93946
361.78        21.82235
362.23         21.6572
362.68        21.45198
363.13        21.21293
363.58        20.97859
364.03        20.81313
364.48        20.72932
364.93        20.70731
365.38        20.71665
365.83        20.70491
366.28        20.65373
366.73        20.57832
367.18        20.47915
367.63        20.35798
368.08        20.22055
368.53        20.06479
368.98        19.91434
369.43         19.8084
369.88        19.75776
370.33        19.75873
370.78        19.77994
371.23        19.76844
371.68        19.70623
372.13        19.59422
372.58        19.47066
373.03        19.40057
373.48        19.39006
373.93        19.41695
374.38        19.40539
374.83        19.23475
375.28        18.89746
375.72        18.44931
376.17        18.01619
376.62         17.7372
377.07        17.64254
377.52        17.68362
377.97        17.80601
378.42        17.91729
378.87         17.9775
379.32        18.00747
379.77        18.00518
380.22        17.97029
380.67        17.90452
381.11        17.79589
381.56        17.66291
382.01        17.54175
382.46        17.44719
382.91        17.38415
383.36        17.33133
383.81        17.24901
384.26        17.13403
384.71        16.99934
385.15        16.88167
385.60        16.86356
386.05         16.9397
386.50        17.07349
386.95        17.20097
387.40         17.2243
387.85        17.12652
388.29        16.93799
388.74         16.7268
389.19        16.52946
389.64        16.36283
390.09        16.20773
390.54        16.09259
390.98        16.06275
391.43        16.12345
391.88        16.25808
392.33        16.38755
392.78        16.41541
393.23        16.33076
393.67        16.12306
394.12        15.88766
394.57        15.86926
395.02        15.85567
395.47        15.99089
395.91        16.12391
396.36        16.10725
396.81        15.91788
397.26        15.61893
397.71        15.30409
398.15        15.09883
398.60        15.05152
399.05        15.08232
399.50         15.1395
399.95        15.21709
400.39        15.21576
400.84        15.15403
401.29        15.03433
401.74        14.95395
402.18         14.9307
402.63        14.90198
403.08        14.87809
403.53        14.88966
403.97        14.93358
404.42        15.00715
404.87        15.06048
405.32        15.01065
405.76        14.84471
406.21         14.5963
406.66        14.34932
407.11        14.23754
407.55        14.29251
408.00        14.47435
408.45        14.68983
408.90        14.76866
409.34        14.66331
409.79        14.42672
410.24        14.16877
410.68        14.05449
411.13        14.12187
411.58        14.31921
412.03        14.54647
412.47         14.6361
412.92        14.53373
413.37        14.30676
413.81        14.04976
414.26        13.92324
414.71        13.94908
415.15        14.08113
415.60        14.23758
416.05        14.30249
416.49        14.24175
416.94        14.09884
417.39        13.92575
417.83        13.79951
418.28        13.74891
418.73        13.74243
419.17        13.76348
419.62        13.78848
420.07         13.8047
420.51        13.82124
420.96        13.82863
421.41        13.80265
421.85         13.7387
422.30         13.6565
422.74        13.57047
423.19        13.52725
423.64        13.52842
424.08        13.56848
424.53        13.61969
424.98        13.65861
425.42        13.67628
425.87        13.66744
426.31        13.63347
426.76         13.6001
427.21        13.52632
427.65        13.43395
428.10        13.32835
428.54        13.19765
428.99        13.06408
429.44        13.02492
429.88        13.04457
430.33        12.90131
430.77        12.68168
431.22        12.79555
431.66        13.20195
432.11        13.41936
432.56        13.37248
433.00        13.35792
433.45         13.3608
433.89        13.06738
434.34        12.64146
434.78        12.58898
435.23          12.847
435.67          12.913
436.12        12.76511
436.57        12.68985
437.01        12.71942
437.46        12.77451
437.90        12.85193
438.35        12.96346
438.79        13.06755
439.24        13.07694
439.68        12.99915
440.13        12.91027
440.57        12.81916
441.02        12.75106
441.46         12.7213
441.91        12.63329
442.35        12.52164
442.80        12.70689
443.24        13.06562
443.69        12.98132
444.13        12.52588
444.58        12.33954
445.02        12.43218
445.47        12.46789
445.91        12.42608
446.36        12.43922
446.80        12.49782
447.24        12.57323
447.69         12.6438
448.13        12.67583
448.58        12.66474
449.02        12.62111
449.47        12.57823
449.91        12.58176
450.36        12.64114
450.80        12.73835
451.25        12.83855
451.69        12.88569
452.13        12.86441
452.58        12.79972
453.02        12.71316
453.47        12.63909
453.91        12.58648
454.36        12.58166
454.80        12.55702
455.24        12.54925
455.69        12.53894
456.13        12.52893
456.58         12.5246
457.02        12.51968
457.46        12.51685
457.91        12.51428
458.35        12.50924
458.79        12.50322
459.24        12.50541
459.68        12.52128
460.13        12.55447
460.57        12.55105
461.01        12.60715
461.46        12.59636
461.90        12.57394
462.34         12.6965
462.79        12.90741
463.23         12.9274
463.68        12.77124
464.12         12.7029
464.56        12.73302
465.01        12.73054
465.45        12.68546
465.89        12.63939
466.34        12.61532
466.78        12.66132
467.22        12.78345
467.67        12.78487
468.11        12.66554
468.55        12.50244
468.99        12.35447
469.44        12.27839
469.88        12.29259
470.32        12.38632
470.77        12.51351
471.21        12.61189
471.65        12.65473
472.10        12.66376
472.54        12.66354
472.98        12.70852
473.42        12.80612
473.87        12.93081
474.31        13.04452
474.75        13.09282
475.20        13.07066
475.64        12.99852
476.08        12.90972
476.52         12.8511
476.97        12.83814
477.41        12.85356
477.85        12.89773
478.29        12.96839
478.74        13.06125
479.18        13.16822
479.62        13.25951
480.06        13.32166
480.50        13.35604
480.95         13.2464
481.39        13.23107
481.83        13.24105
482.27        13.36084
482.72        13.45949
483.16        13.67599
483.60        13.79597
484.04        13.85797
484.48        13.83916
484.93        13.80211
485.37        13.94517
485.81        14.15139
486.25        14.26479
486.69        13.71217
487.14        13.89213
487.58        14.40981
488.02        14.79896
488.46        14.75333
488.90        15.37686
489.34        14.61822
489.79        14.67171
490.23        14.73572
490.67        15.01455
491.11         15.3302
491.55        15.38122
491.99        15.23778
492.43        15.31792
492.88        15.63736
493.32        15.89477
493.76        16.05309
494.20        16.23149
494.64        16.42918
495.08        16.60297
495.52        16.73899
495.96        16.86505
496.41        16.99048
496.85        17.01418
497.29         16.9791
497.73        17.25543
498.17        17.57638
498.61        17.66816
499.05        17.50088
499.49         17.4882
499.93        17.66468
500.37        17.86348
500.82        18.04091
501.26        18.16994
501.70        18.23661
502.14        18.27785
502.58        18.32487
503.02        18.40456
503.46        18.52792
503.90        18.68852
504.34        18.86444
504.78        19.01583
505.22        19.12864
505.66        19.21004
506.10        19.26366
506.54        19.31869
506.98        19.38573
507.42        19.41771
507.86        19.40177
508.30        19.53891
508.74        19.47388
509.18        19.49814
509.62         19.5193
510.06        19.56615
510.50        19.64026
510.94        19.74105
511.38        19.84948
511.82        19.92308
512.26        19.95266
512.70        19.94736
513.14         19.9362
513.58        19.96568
514.02        20.04514
514.46        20.15999
514.90        20.27595
515.34        20.33741
515.78        20.33054
516.22        20.27212
516.66        20.19777
517.10        20.16308
517.54        20.18051
517.98        20.23157
518.42        20.28378
518.86        20.28526
519.30        20.22441
519.74         20.1218
520.18        20.00691
520.62        19.92192
521.06        19.88113
521.50        19.87584
521.93        19.89152
522.37        19.89849
522.81        19.88976
523.25        19.86935
523.69        19.85446
524.13        19.87197
524.57        19.92073
525.01        19.98473
525.45        20.02657
525.89        19.98923
526.32        19.86086
526.76         19.6703
527.20        19.45782
527.64        19.28432
528.08        19.16918
528.52        19.10013
528.96        19.06082
529.40        19.02324
529.83        18.97669
530.27         18.9307
530.71        18.89276
531.15        18.87599
531.59        18.87883
532.03        18.89025
532.46         18.8892
532.90        18.85186
533.34        18.77539
533.78        18.67571
534.22        18.57248
534.66        18.49409
535.09        18.44821
535.53        18.43132
535.97         18.4417
536.41        18.48169
536.85        18.54306
537.28        18.61888
537.72        18.68631
538.16        18.71196
538.60        18.68993
539.04        18.63632
539.47        18.56018
539.91        18.49517
540.35        18.45047
540.79        18.42693
541.22        18.44257
541.66        18.52752
542.10        18.67985
542.54        18.88824
542.97        19.12048
543.41        19.32602
543.85        19.49078
544.29        19.63105
544.72        19.74931
545.16        19.86789
545.60        19.99343
546.04        20.10898
546.47        20.23657
546.91        20.44339
547.35        20.71643
547.79        20.97594
548.22         21.1821
548.66        21.38743
549.10         21.5924
549.53        21.69492
549.97        21.69191
550.41        22.02616
550.84        22.05016
551.28        22.24866
551.72         22.4057
552.15        22.68853
552.59        22.80583
553.03        22.98903
553.46        23.15906
553.90        23.31871
554.34        23.46245
554.77        23.61372
555.21        23.76061
555.65         23.8212
556.08        23.81652
556.52        23.87076
556.96         23.9897
557.39        24.12423
557.83        24.26764
558.27         24.3982
558.70        24.52144
559.14        24.67534
559.57        24.83337
560.01        24.96524
560.45        25.05432
560.88        25.00567
561.32        24.98275
561.75        24.99683
562.19        25.09155
562.63        25.16059
563.06        25.20217
563.50        25.28637
563.93        25.39507
564.37        25.50987
564.80        25.62331
565.24        25.66106
565.68        25.78238
566.11        25.87615
566.55        25.99382
566.98        26.08815
567.42        26.20166
567.85        26.34724
568.29        26.52731
568.72        26.80959
569.16        27.21282
569.60        27.16583
570.03        27.49161
570.47        27.62532
570.90        27.81936
571.34        27.72594
571.77        28.02616
572.21        28.12724
572.64        28.17128
573.08        28.42253
573.51         28.4366
573.95         28.4572
574.38        28.64166
574.82        28.80963
575.25        29.03275
575.69        28.89815
576.12        28.50838
576.56        28.66304
576.99        28.91021
577.42        28.99186
577.86        28.82258
578.29        28.70903
578.73        28.75555
579.16        28.51922
579.60        28.68467
580.03        28.53429
580.47        28.57568
580.90        28.45288
581.33        28.24306
581.77        28.29129
582.20        28.00326
582.64        27.81773
583.07        27.47196
583.51        27.31158
583.94        27.41043
584.37        27.32738
584.81         27.0843
585.24        27.11283
585.68        27.20222
586.11        27.12542
586.54        26.65743
586.98        26.65593
587.41        26.95908
587.85          26.972
588.28        26.51447
588.71        27.02607
589.15         26.4295
589.58        26.62235
590.01        26.31764
590.45        26.31513
590.88        26.40858
591.31        26.54149
591.75        26.66467
592.18        26.73191
592.61        26.76546
593.05        26.67216
593.48        26.84153
593.91        26.92661
594.35        26.62093
594.78        26.68685
595.21        26.99851
595.65        27.10309
596.08        27.00353
596.51        27.48447
596.94         27.8262
597.38        28.21236
597.81        28.37666
598.24        28.50805
598.68        28.77168
599.11        28.94628
599.54        29.34921
599.97        29.70155
600.41        29.87637
600.84        30.31605
601.27        30.63744
601.70        31.12596
602.14        31.60854
602.57        31.89426
603.00        32.04449
603.43        32.38899
603.87        32.79697
604.30        33.67119
604.73        33.78294
605.16        34.27119
605.60        34.77309
606.03        35.24936
606.46        35.64254
606.89        36.04771
607.32        36.47804
607.76        36.90122
608.19        37.27474
608.62        37.45938
609.05        37.86341
609.48        38.27019
609.92        38.72742
610.35        39.12374
610.78        39.48073
611.21        39.39057
611.64        39.81702
612.07         40.0561
612.50        40.34505
612.94        40.70649
613.37        41.20282
613.80        41.07842
614.23        41.73002
614.66        41.95941
615.09        42.16849
615.52        42.42533
615.96        42.71622
616.39        42.80862
616.82        42.66112
617.25        43.08679
617.68        43.49404
618.11        43.85218
618.54        43.96185
618.97        43.99826
619.40         44.0379
619.84        44.22166
620.27        44.56542
620.70        44.81184
621.13        44.89792
621.56        44.93447
621.99        45.21896
622.42        44.81152
622.85        45.15376
623.28        45.21545
623.71        45.55097
624.14        44.89351
624.57        45.43699
625.00        45.35717
625.43        45.28671
625.86         45.1317
626.29        44.89867
626.72        44.96086
627.15        44.68718
627.58        44.59113
628.01        44.43993
628.44         44.3383
628.87         43.8832
629.30        43.72392
629.73        43.71135
630.16        43.55003
630.59        43.18826
631.02        42.93662
631.45        42.61185
631.88        42.24168
632.31        41.75754
632.74        41.46484
633.17        40.89318
633.60        40.46392
634.03        40.04281
634.46        39.63205
634.89        39.21684
635.32        38.78624
635.75        38.34125
636.18        37.87994
636.61        37.42126
637.04        36.99945
637.47        36.62952
637.89        36.28031
638.32        35.91517
638.75        35.58384
639.18        35.29948
639.61        34.71226
640.04        34.48542
640.47        34.16423
640.90        33.94509
641.33        33.80312
641.76        33.70401
642.18        33.58178
642.61        33.40673
643.04        33.20873
643.47        33.03973
643.90        32.97065
644.33        33.01309
644.76         33.1838
645.18        33.41391
645.61        33.49957
646.04        33.38945
646.47        33.50189
646.90        33.80224
647.33        34.00175
647.75         34.0903
648.18        34.25317
648.61        34.51738
649.04        34.84409
649.47        35.24546
649.89        35.73828
650.32        36.27479
650.75        36.82259
651.18        37.33568
651.61        37.73241
652.03        38.08736
652.46        38.59417
652.89        39.17356
653.32        39.79273
653.74        40.12616
654.17        40.31826
654.60        40.59926
655.03        41.91494
655.46        41.64358
655.88        42.83348
656.31         45.0545
656.74        45.25205
657.16        44.52531
657.59        43.69399
658.02        44.28067
658.45        45.79866
658.87        46.29716
659.30         46.3572
659.73         46.8386
660.15        46.93246
660.58        47.62334
661.01        47.88283
661.44        47.93943
661.86        47.82579
662.29        47.69665
662.72         47.9992
663.14        48.66356
663.57        48.94641
664.00        48.86018
664.42        49.01218
664.85        49.43224
665.27        49.75016
665.70        49.92408
666.13        50.09153
666.55         50.2569
666.98        50.37783
667.41        50.47429
667.83        50.57336
668.26        50.67775
668.69        50.79222
669.11        50.91251
669.54        51.03026
669.96        51.14128
670.39        51.25028
670.82         51.3491
671.24        51.41767
671.67        51.45324
672.09         51.4929
672.52         51.5541
672.94        51.67889
673.37        51.47513
673.80        51.87617
674.22        51.74463
674.65        51.96272
675.07         52.2278
675.50        52.53984
675.92        52.85363
676.35        53.06629
676.77        53.15972
677.20        53.19613
677.62        53.24121
678.05        53.13211
678.47        53.21429
678.90        53.43689
679.32        53.45933
679.75        53.51904
680.17        53.48094
680.60         53.4346
681.02        53.37754
681.45        53.34721
681.87         53.4921
682.30        53.68193
682.72        53.92842
683.15        54.07372
683.57        54.14685
684.00        54.33098
684.42        54.58518
684.85         54.7418
685.27        54.79689
685.70        54.72833
686.12         54.6257
686.54        54.92935
686.97        55.51392
687.39        55.69065
687.82        55.41902
688.24         55.4549
688.66         55.5112
689.09        55.47843
689.51        55.30661
689.94         55.2469
690.36        55.31694
690.78        55.45382
691.21        55.62432
691.63        55.76836
692.06        55.86581
692.48        55.95062
692.90        56.02378
693.33        56.07615
693.75        56.11394
694.17        56.12939
694.60         56.1585
695.02        56.24402
695.44        56.38245
695.87        56.65369
696.29        56.98418
696.71        56.98585
697.14        56.74878
697.56        56.84661
697.98        57.24134
698.41        57.38549
698.83        57.27866
699.25        57.31876
699.68        57.49086
700.10        57.58281
700.52        57.57468
700.94        57.56905
701.37        57.57423
701.79        57.59133
702.21        57.61928
702.64        57.66281
703.06        57.72742
703.48        57.83122
703.90        57.97935
704.33        58.18139
704.75        58.37978
705.17        58.54456
705.59        58.63955
706.01        58.65582
706.44         58.6498
706.86        58.72524
707.28        58.87145
707.70         59.0747
708.12        59.27311
708.55        59.23077
708.97         59.0262
709.39        59.09066
709.81        59.41692
710.23        59.61411
710.66        59.65506
711.08        59.79525
711.50        60.01658
711.92        60.19828
712.34        60.33213
712.76        60.44762
713.19        60.52964
713.61        60.59257
714.03        60.62499
714.45         60.6299
714.87        60.62585
715.29        60.64396
715.71        60.68967
716.13        60.75183
716.56        60.81112
716.98        60.89963
717.40        60.98692
717.82        61.09198
718.24        61.19122
718.66        61.16477
719.08        61.14199
719.50         61.0256
719.92        60.91211
720.34        60.89016
720.76          60.979
721.19         61.1468
721.61        61.33198
722.03        61.41141
722.45        61.35675
722.87        61.20388
723.29        61.03153
723.71        60.96751
724.13        61.04478
724.55        61.22501
724.97         61.4386
725.39        61.57109
725.81        61.59397
726.23        61.54794
726.65         61.4893
727.07        61.50691
727.49        61.62168
727.91        61.79367
728.33        61.98848
728.75        62.15176
729.17        62.25973
729.59        62.33525
730.01        62.36795
730.43        62.33653
730.85        62.25625
731.27        62.14521
731.69        62.05715
732.10        62.09806
732.52        62.28434
732.94        62.55125
733.36        62.84566
733.78         63.2151
734.20        63.32973
734.62         63.5206
735.04        63.68296
735.46        63.60934
735.88        63.38635
736.30        63.45169
736.72        63.76609
737.13        63.81548
737.55        63.52164
737.97        63.35175
738.39        63.32696
738.81        62.90834
739.23        62.32615
739.65        62.69263
740.06         63.7452
740.48        64.16995
740.90        63.85791
741.32        63.49673
741.74        63.25504
742.16        63.11274
742.57        63.14558
742.99        63.33379
743.41        63.59546
743.83        63.79357
744.25        63.88697
744.67        63.90466
745.08        63.89987
745.50        63.94839
745.92        64.07207
746.34        64.23948
746.75        64.42307
747.17        64.51254
747.59        64.47218
748.01        64.56826
748.42        64.60637
748.84         64.3624
749.26        64.46926
749.68        64.58762
750.09        64.51359
750.51        64.53117
750.93        64.51789
751.35        64.48109
751.76         64.4409
752.18         64.4453
752.60        64.50452
753.01        64.61357
753.43         64.7168
753.85        64.74935
754.27        64.71156
754.68        64.65171
755.10        64.61308
755.52        64.66366
755.93        64.79091
756.35        64.93713
756.77        65.13433
757.18        65.33347
757.60        65.51224
758.02        65.99382
758.43        66.52541
758.85        66.04415
759.26         64.8494
759.68        64.52219
760.10        65.12347
760.51        65.53395
760.93        65.62297
761.34        65.85123
761.76        66.13371
762.18        65.91324
762.59        65.42908
763.01        64.69946
763.42        65.20416
763.84        65.16564
764.26        65.02664
764.67        65.02867
765.09        65.22851
765.50        65.70485
765.92        66.28578
766.33         66.3877
766.75        65.96161
767.16        65.74621
767.58        65.80516
768.00        65.71171
768.41        65.50802
768.83        65.68471
769.24        66.08713
769.66        65.98038
770.07        65.46886
770.49        65.35495
770.90        65.67027
771.32        65.95889
771.73        66.11942
772.15        66.16945
772.56        66.09962
772.97        65.98289
773.39         65.5151
773.80        65.78305
774.22        66.51055
774.63        66.86041
775.05        66.71543
775.46        66.71129
775.88        66.82234
776.29        66.67186
776.70        66.32568
777.12        66.13725
777.53        66.15535
777.95          66.257
778.36        66.42493
778.77        66.58172
779.19        66.69685
779.60        66.94714
780.02        67.21241
780.43        67.16959
780.84        66.95135
781.26        66.86456
781.67        66.95778
782.09         67.7096
782.50         68.4021
782.91        68.00845
783.33        67.46974
783.74        66.97231
784.15        66.85976
784.57        66.93542
784.98        66.46008
785.39        66.41154
785.81        66.56764
786.22        66.87388
786.63        67.26844
787.04        67.60527
787.46        67.87972
787.87        68.22121
788.28        68.58179
788.70        68.75243
789.11        68.71498
789.52        68.59653
789.93        68.43747
790.35        68.26299
790.76        68.11623
791.17        67.99862
791.58        67.97128
792.00        68.06599
792.41        68.29391
792.82        68.74326
793.23        69.27819
793.65        69.38403
794.06        69.13906
794.47          69.213
794.88        69.56014
795.29         69.5608
795.71        69.17431
796.12        68.91384
796.53        68.83672
796.94        68.56306
797.35        68.25134
797.76        68.64471
798.18        69.54719
798.59        70.00896
799.00        69.90434
799.41        69.72303
799.82        69.57104
800.23        69.43065
800.64        69.35944
801.06        69.32825
801.47        69.37546
801.88        69.49918
802.29        69.67415
802.70        69.86952
803.11        70.04113
803.52        70.11421
803.93        70.08952
804.34        70.01362
804.75        69.84996
805.17        69.66842
805.58        69.54949
805.99        69.09178
806.40        68.54636
806.81        69.21619
807.22        70.71753
807.63        70.87201
808.04        69.76164
808.45        69.43192
808.86        70.00301
809.27        70.24786
809.68         70.0653
810.09        69.93111
810.50        69.85566
810.91        69.70708
811.32        69.57761
811.73        69.61189
812.14        69.82938
812.55        70.22001
812.96        70.64189
813.37        70.80449
813.78        70.64463
814.19        70.27754
814.60        69.86751
815.01        69.63411
815.42        69.63107
815.83         69.7961
816.24         70.0449
816.65        70.20599
817.05        70.21612
817.46        70.10593
817.87        69.94492
818.28        69.77445
818.69        69.62428
819.10        69.48375
819.51        69.39581
819.92         69.4453
820.33        69.64189
820.74        69.94306
821.14        70.29701
821.55        70.63387
821.96        70.91361
822.37        71.15292
822.78        71.29269
823.19        71.24014
823.60        70.98869
824.00         70.5687
824.41        70.11335
824.82        69.86068
825.23        69.86362
825.64        70.08094
826.04        70.39008
826.45        70.48762
826.86        70.32299
827.27        69.98424
827.68        69.62783
828.08        69.52431
828.49        69.69469
828.90        70.08325
829.31        70.57468
829.72        70.97406
830.12        71.23485
830.53        71.33062
830.94        71.35894
831.35        71.44031
831.75        71.62519
832.16         71.8065
832.57        71.91965
832.97        71.82523
833.38        71.51523
833.79        71.10285
834.20         70.6955
834.60        70.42023
835.01        70.34653
835.42         70.4082
835.82        70.65286
836.23         71.0883
836.64        71.69657
837.04        72.48136
837.45        73.17087
837.86         73.4735
838.26        73.31339
838.67        72.78091
839.08        72.09026
839.48        71.56473
839.89        71.34521
840.29        71.34287
840.70        71.48788
841.11         71.6749
841.51        71.87331
841.92        72.07868
842.33        72.28862
842.73          72.471
843.14        72.56544
843.54        72.60868
843.95        72.58526
844.35        72.54628
844.76        72.48232
845.17         72.3551
845.57        72.24045
845.98        72.22657
846.38        72.34021
846.79        72.57188
847.19        72.72447
847.60        72.41637
848.00        71.63058
848.41        70.51677
848.81        69.48619
849.22        69.15132
849.62        69.66618
850.03          70.813
850.43         72.2501
850.84        73.15222
851.24         73.3032
851.65        72.81864
852.05        72.03458
852.46        71.47421
852.86        71.29346
853.27        71.38625
853.67        71.48384
854.07        71.41284
854.48        71.08244
854.88        70.59087
855.29        70.04408
855.69        69.84229
856.10        70.00578
856.50        70.51147
856.90        71.02214
857.31        71.07463
857.71        70.62882
858.12        69.79488
858.52         68.9259
858.92        68.56178
859.33        68.83125
859.73        69.60784
860.13        70.58726
860.54        71.28138
860.94        71.57427
861.34        71.51525
861.75        71.21188
862.15         70.9132
862.55        70.67931
862.96        70.46595
863.36        70.15482
863.76        69.59174
864.17        68.80677
864.57        67.92564
864.97        67.17275
865.38        66.82381
865.78        66.95982
866.18        67.46503
866.58        68.20354
866.99        68.86317
867.39        69.33753
867.79        69.67146
868.19        69.79325
868.60        69.61045
869.00        69.15636
869.40        68.43165
869.80        67.77506
870.21        67.76796
870.61        68.55513
871.01        69.92767
871.41        71.34364
871.81         71.9329
872.22        71.49336
872.62        70.28441
873.02         68.8099
873.42        67.91972
873.82        67.87539
874.22        68.45406
874.63        69.26917
875.03        69.72456
875.43        69.66528
875.83        69.26848
876.23        68.87726
876.63        69.04655
877.03        69.86614
877.44        71.05698
877.84        72.21352
878.24        72.59953
878.64        72.07515
879.04        70.97048
879.44        69.67091
879.84        68.71871
880.24        68.27745
880.64        68.16186
881.04        68.37978
881.44        68.94019
881.84        69.77218
882.24         70.8923
882.65        71.92767
883.05        72.34967
883.45        71.98084
883.85        70.99502
884.25         69.8614
884.65        69.31745
885.05        69.51829
885.45        70.21929
885.85        71.12988
886.25        71.73459
886.65        71.84615
887.05        71.66585
887.45        71.20473
887.85        70.48689
888.25        69.63558
888.65        68.67342
889.04         67.8786
889.44        67.70936
889.84        68.16267
890.24        69.15274
890.64        70.33332
891.04        70.95658
891.44        70.78241
891.84        70.06693
892.24        69.20786
892.64        68.75328
893.04        68.81792
893.44        69.20708
893.83        69.82462
894.23        70.42283
894.63        70.91037
895.03        71.37399
895.43        71.72235
895.83        71.80831
896.23        71.62586
896.63        71.16815
897.02        70.65008
897.42        70.51301
897.82        70.82219
898.22         71.4974
898.62        72.18898
899.01        72.31085
899.41        71.73493
899.81        70.66694
900.21        69.55709
900.61         69.0923
901.00        69.41915
901.40        70.32827
901.80        71.38361
902.20        71.87027
902.59        71.59472
902.99        70.77371
903.39        69.80638
903.79        69.28672
904.18        69.35278
904.58        69.83937
904.98         70.4101
905.38        70.56217
905.77        70.16368
906.17        69.38998
906.57         68.5795
906.96        68.28027
907.36        68.58855
907.76        69.36712
908.15        70.23431
908.55        70.43556
908.95        69.86636
909.34        68.75385
909.74        67.68061
910.14        67.40233
910.53        68.11216
910.93        69.51242
911.33        71.18291
911.72        72.47148
912.12        73.07078
912.52        73.16006
912.91        72.97565
913.31        72.91391
913.70        73.10528
914.10        73.38404
914.49        73.51875
914.89        73.15482
915.29        72.28642
915.68        71.11076
916.08         70.0143
916.47        69.44465
916.87        69.55203
917.26        70.12904
917.66        70.97205
918.05        71.76033
918.45        72.30305
918.84         72.7448
919.24         72.9329
919.64        72.77114
920.03        72.29198
920.42        71.48925
920.82        70.70291
921.21        70.37127
921.61        70.59386
922.00        71.28986
922.40        72.12978
922.79        72.60966
923.19        72.55643
923.58        72.14093
923.98        71.63294
924.37         71.4768
924.77        71.75851
925.16        72.30969
925.55        72.90143
925.95        73.17346
926.34        73.04623
926.74        72.65301
927.13        72.11157
927.52        71.56438
927.92          71.101
928.31         70.6601
928.70        70.33711
929.10        70.27364
929.49        70.47598
929.89        70.88976
930.28        71.34623
930.67        71.46304
931.07        71.15414
931.46        70.55824
931.85        69.87758
932.24        69.42741
932.64        69.31218
933.03        69.46339
933.42        69.81885
933.82        70.24525
934.21        70.68704
934.60         71.1104
934.99        71.55225
935.39         72.0547
935.78        72.64504
936.17         73.2485
936.56         73.5564
936.96        73.12993
937.35        71.96661
937.74        70.30892
938.13        68.71458
938.53        67.86507
938.92        67.84821
939.31        68.53926
939.70        69.55496
940.09        70.14547
940.49        70.04468
940.88        69.45689
941.27        68.78557
941.66         68.6511
942.05        69.19125
942.44        70.25876
942.84         71.3636
943.23        71.71165
943.62        71.06015
944.01        69.67492
944.40        68.31345
944.79         68.0822
945.18        69.17915
945.57        71.28361
945.97        73.50121
946.36        74.50385
946.75        73.80986
947.14        71.86826
947.53        69.60345
947.92        68.40736
948.31        68.63601
948.70        69.91534
949.09        71.54077
949.48        72.24298
949.87        71.65069
950.26         70.2137
950.65        68.66473
951.04        67.99423
951.43        68.41875
951.82        69.63834
952.21        71.07868
952.60        71.71973
952.99        71.24438
953.38         69.9795
953.77          68.603
954.16         67.9997
954.55        68.34612
954.94        69.46673
955.33        70.73114
955.72        70.84173
956.11        69.45582
956.50         67.0974
956.89        64.85799
957.28        64.12778
957.66        65.17567
958.05        67.52613
958.44        70.34816
958.83        71.90912
959.22        71.60557
959.61        70.05877
960.00        68.10576
960.39        66.81242
960.78        66.40514
961.16        66.52907
961.55        66.95992
961.94          67.357
962.33        67.54079
962.72        67.74776
963.11        67.84478
963.49        67.58157
963.88        66.96909
964.27        66.00783
964.66        65.14687
965.04        65.26801
965.43        66.47698
965.82        68.54507
966.21        70.76318
966.60        71.82327
966.98        71.40169
967.37        70.00882
967.76        68.28087
968.15        67.06137
968.53         66.5565
968.92        66.43976
969.31        66.75697
969.69        67.61559
970.08        68.87815
970.47        70.65935
970.86        72.28924
971.24        72.59184
971.63        71.34756
972.02        68.94923
972.40        66.50188
972.79        65.77284
973.17        67.06498
973.56        69.72478
973.95        72.83869
974.33        74.63919
974.72        74.46746
975.11        72.95646
975.49        70.83507
975.88        69.50735
976.26        69.35007
976.65        69.85741
977.04        70.78687
977.42        71.72171
977.81        72.27735
978.19         72.6931
978.58        72.85067
978.96         72.4169
979.35        71.45628
979.74        70.09122
980.12        68.70711
980.51        67.96478
980.89        68.13142
981.28         68.8706
981.66        70.21625
982.05        71.90511
982.43        73.84583
982.82         76.0416
983.20        77.81902
983.59         77.9173
983.97        76.20024
984.35        73.08863
984.74        69.98574
985.12        68.88573
985.51        70.07686
985.89        73.05699
986.28        76.47922
986.66        78.42345
987.04         78.1103
987.43        76.14462
987.81         73.3209
988.20        71.33182
988.58        70.67896
988.96        70.95589
989.35        71.33884
989.73        70.74112
990.12        68.87411
990.50        66.29832
990.88        63.80176
991.27        62.57977
991.65        62.86646
992.03        64.26485
992.42         66.1974
992.80        68.11985
993.18        69.67268
993.56        70.98801
993.95        71.90953
994.33        72.31899
994.71        72.13689
995.10        71.48253
995.48        70.56618
995.86        69.79043
996.24        69.30704
996.63        68.95345
997.01        69.04479
997.39        69.88465
997.77        71.40009
998.15        73.44882
998.54        75.28493
998.92        75.78364
999.30        74.71619
999.68        72.37688
1000.06        69.57578
1000.45        67.88693
1000.83        67.93623
1001.21        69.29303
1001.59        71.41662
1001.97        73.34433
1002.35        74.67162
1002.73        75.67593
1003.12        76.25584
1003.50        76.15589
1003.88        75.48548
1004.26         74.3195
1004.64        73.10246
1005.02        72.67491
1005.40        73.20889
1005.78        74.36216
1006.16        75.83491
1006.54        77.22914
1006.92        78.38103
1007.30        79.41416
1007.69        79.96336
1008.07        79.42226
1008.45        77.64393
1008.83        74.92025
1009.21        71.99315
1009.59        70.12159
1009.97        69.67934
1010.35        70.24581
1010.73        71.71581
1011.11        73.80449
1011.49        76.13838
1011.86        78.81056
1012.24        80.67601
1012.62        80.17529
1013.00        77.05582
1013.38        71.52863
1013.76        65.19792
1014.14        61.65368
1014.52        62.26868
1014.90        66.21542
1015.28        71.39417
1015.66        74.33456
1016.04        74.09044
1016.41        71.80739
1016.79        68.37107
1017.17        65.78707
1017.55        64.97701
1017.93        65.05834
1018.31        65.95318
1018.69        67.91743
1019.06        71.14958
1019.44        76.12868
1019.82        82.50719
1020.20        86.86438
1020.58        86.57965
1020.95        82.37634
1021.33        77.16476
1021.71        73.86739
1022.09        72.74974
1022.46        73.01964
1022.84        74.35049
1023.22        74.84252
1023.60        73.79895
1023.97        72.24858
1024.35        71.10351
1024.73        71.04483
