SpectraSmart Spectrum 2.9.0.0
--------- Device Information -----------
Spectrum Name :  反射率_0
Saving Time :  2024/04/30 01:05:39
Spectro-Module Model Name : SE2030-DUVN
Spectro-Module Serial Number : OS361AC55029948
Wavelength Start : 200
Wavelength End : 1025
Wavelength Unit : Wavelength(nm)
Spectrum Unit : Reflectance(%)
-----------Spectrum Setting ------------
Integration Time : 20ms
Average : 10
Boxcar : 0
Background removal :  enabled
linearity correction :  enabled
SC :  disabled
Intensity correction :  disabled
DWT denoise :  enabled
savitzky-golay :  disabled
FFT :  disabled
Running average :  disabled
Kalman :  disabled
High pass :  disabled
---------------BEGIN--------------------
Wavelength(nm)             Reflectance(%)
200.29               0
200.75        38.20466
201.21        22.18834
201.67        3.714702
202.13       -9.388846
202.58       -13.49816
203.04       -9.332971
203.50        1.617579
203.96        14.96131
204.42        27.30527
204.88        38.52521
205.34        46.45184
205.80        48.74023
206.26        46.46575
206.72        41.76538
207.18         36.4332
207.64        31.30508
208.10        26.16405
208.55        20.47967
209.01        15.23553
209.47        13.71578
209.93         16.3582
210.39        21.45437
210.85        25.98428
211.31        27.38194
211.77        25.43828
212.23        19.94923
212.69        12.10262
213.14        9.210857
213.60         14.2466
214.06         23.0125
214.52        30.31742
214.98        32.92231
215.44        31.64217
215.90        28.05618
216.36        24.01091
216.81        22.98659
217.27        27.01869
217.73          35.774
218.19        49.24483
218.65        62.10006
219.11        68.15551
219.57        67.80328
220.02        63.82396
220.48        59.00147
220.94         53.0091
221.40        44.18672
221.86        32.66319
222.32        23.83994
222.77        21.82204
223.23        24.78554
223.69        28.24113
224.15        29.17552
224.61        27.73847
225.06         24.4999
225.52        21.56916
225.98        22.81964
226.44        28.02187
226.90        34.27627
227.36        38.84777
227.81        40.05309
228.27        38.33635
228.73        34.43041
229.19        29.88892
229.65        28.07311
230.10         29.6942
230.56         32.9658
231.02        35.98553
231.48        37.16205
231.93        36.46049
232.39        34.55381
232.85         32.1889
233.31        30.76212
233.77        30.74081
234.22        31.78987
234.68        33.04325
235.14        32.95668
235.60        31.26414
236.05        28.70008
236.51        26.42452
236.97        25.84388
237.43        27.30119
237.88        30.61864
238.34        35.47836
238.80        40.37503
239.26        43.61472
239.71        45.29543
240.17        45.14355
240.63        43.34575
241.08        39.85011
241.54        33.23279
242.00        23.52631
242.46         17.2848
242.91        22.59115
243.37        38.80807
243.83        57.22827
244.28        69.40228
244.74        74.90839
245.20        75.28069
245.66        71.10965
246.11        64.71191
246.57        57.92815
247.03        49.91197
247.48        42.44907
247.94        39.50654
248.40        41.52179
248.85        46.28063
249.31        50.87458
249.77        53.23008
250.22         53.7104
250.68        52.46988
251.14        50.26245
251.59        51.05919
252.05        55.49877
252.51        59.85558
252.96        61.67577
253.42        60.86528
253.88        57.81789
254.33        52.91578
254.79        47.87659
255.25        45.78964
255.70        46.88979
256.16        49.41958
256.62         51.6207
257.07        52.39429
257.53        52.22831
257.99        51.47672
258.44        50.34874
258.90        49.74604
259.35        49.40302
259.81        49.27765
260.27        49.05355
260.72        48.50891
261.18        47.80203
261.63        46.85477
262.09        45.86085
262.55        44.79675
263.00        43.69371
263.46        42.73238
263.91        41.79483
264.37        40.96828
264.83        40.17468
265.28        39.34101
265.74        38.64568
266.19        38.16078
266.65        37.93114
267.11        37.86477
267.56        37.75221
268.02        37.28415
268.47        36.39337
268.93        35.18426
269.38        33.85282
269.84        32.86229
270.30        32.32452
270.75        32.11255
271.21        32.00872
271.66        31.66734
272.12        31.01267
272.57        30.14831
273.03        29.24239
273.48        28.47971
273.94        27.97022
274.39        27.59942
274.85        27.33355
275.31         27.0758
275.76        26.77085
276.22        26.46002
276.67        26.11579
277.13        25.77077
277.58        25.39152
278.04        25.00824
278.49        24.56606
278.95        24.06578
279.40        23.49156
279.86        22.93237
280.31        22.41525
280.77        22.08096
281.22         21.9103
281.68        21.86657
282.13        21.90324
282.59        21.99157
283.04        22.08399
283.50        22.17469
283.95        22.17269
284.41        21.94696
284.86        21.49497
285.32        20.91447
285.77        20.31173
286.22         19.8998
286.68        19.72962
287.13         19.7029
287.59        19.78898
288.04        19.88421
288.50        19.95726
288.95        20.01245
289.41        20.01863
289.86        19.89514
290.32         19.6673
290.77        19.36549
291.22        19.07654
291.68        18.94166
292.13        18.98719
292.59        19.18111
293.04         19.5211
293.50          20.018
293.95        20.64843
294.40        21.41381
294.86        22.17814
295.31        22.74557
295.77        23.07608
296.22        23.20605
296.68        23.32453
297.13        23.71564
297.58        24.43768
298.04         25.3674
298.49        26.29894
298.95        26.90288
299.40        27.11107
299.85        27.04806
300.31        26.88882
300.76        26.84561
301.21        27.01143
301.67        27.31948
302.12        27.69057
302.58        28.14401
303.03        28.64531
303.48        29.05992
303.94        29.33951
304.39        30.14458
304.84        30.22716
305.30        30.57413
305.75         30.8163
306.20        31.02849
306.66        31.21961
307.11        31.37707
307.57        31.50545
308.02         31.5387
308.47        31.48907
308.93        31.38805
309.38        31.27031
309.83        31.23426
310.29         31.2967
310.74        31.42468
311.19         31.5507
311.65        31.56264
312.10        31.43558
312.55        31.20836
313.00        30.95835
313.46        30.80553
313.91        30.76555
314.36        30.80087
314.82        30.84606
315.27        30.81702
315.72        30.67811
316.18        30.46703
316.63        30.20407
317.08        29.93126
317.53        29.67358
317.99        29.42977
318.44        29.20408
318.89        29.00845
319.35        28.84266
319.80        28.70103
320.25         28.5937
320.70        28.53395
321.16        28.50345
321.61        28.50492
322.06        28.47156
322.51        28.30655
322.97        27.99445
323.42        27.57257
323.87        27.12312
324.32        26.78066
324.78        26.57055
325.23        26.46962
325.68        26.40989
326.13        26.27697
326.59         26.0342
327.04        25.73135
327.49        25.41053
327.94        25.14938
328.39        24.96387
328.85        24.80799
329.30        24.67027
329.75        24.49771
330.20        24.27838
330.66        24.04018
331.11        23.78418
331.56        23.48519
332.01         23.1479
332.46         22.7701
332.92        22.41822
333.37        22.23553
333.82        22.24232
334.27        22.40206
334.72        22.58624
335.17        22.57565
335.63        22.31352
336.08        21.86888
336.53        21.35931
336.98        21.00343
337.43        20.86951
337.88        20.88883
338.34         20.9834
338.79        21.04907
339.24        21.03762
339.69        20.99269
340.14        20.91183
340.59        20.78857
341.05        20.63318
341.50        20.43257
341.95        20.23637
342.40        20.13504
342.85        20.13901
343.30        20.22228
343.75        20.29875
344.20        20.22822
344.66          19.992
345.11        19.62926
345.56        19.23326
346.01        18.95128
346.46        18.82738
346.91        18.81957
347.36        18.86842
347.81        18.88253
348.26        18.83499
348.72        18.75298
349.17        18.66296
349.62        18.61246
350.07        18.60911
350.52        18.62248
350.97        18.62838
351.42         18.5935
351.87        18.51481
352.32        18.42226
352.77        18.31613
353.22        18.19412
353.67        18.06712
354.13        17.92892
354.58        17.84513
355.03        17.92196
355.48         18.1599
355.93        18.51425
356.38        18.84549
356.83        18.94355
357.28        18.77156
357.73        18.39552
358.18        17.95434
358.63        17.67042
359.08        17.59742
359.53        17.66574
359.98        17.77412
360.43        17.75971
360.88        17.58207
361.33        17.30625
361.78        16.99702
362.23        16.74981
362.68        16.59686
363.13        16.50385
363.58        16.45285
364.03        16.41932
364.48        16.38837
364.93         16.3688
365.38        16.34966
365.83        16.31015
366.28        16.24625
366.73        16.15894
367.18        16.05816
367.63        15.96477
368.08        15.88345
368.53        15.80717
368.98        15.73477
369.43        15.66211
369.88        15.58915
370.33        15.52467
370.78        15.45834
371.23        15.37228
371.68        15.26511
372.13        15.13627
372.58        15.01802
373.03        14.96442
373.48        14.97711
373.93         15.0324
374.38        15.07085
374.83        14.99497
375.28        14.79237
375.72        14.50646
376.17        14.20782
376.62        13.96599
377.07        13.80259
377.52          13.688
377.97        13.63893
378.42        13.68112
378.87        13.80307
379.32        13.99535
379.77          14.172
380.22        14.20545
380.67        14.07572
381.11        13.81117
381.56        13.52194
382.01        13.39225
382.46        13.46593
382.91        13.69033
383.36        13.94267
383.81        14.03446
384.26        13.92798
384.71        13.68307
385.15        13.41189
385.60        13.31238
386.05        13.41151
386.50        13.63632
386.95         13.8704
387.40        13.93614
387.85        13.79947
388.29        13.52558
388.74        13.22606
389.19        13.00069
389.64        12.87815
390.09        12.82018
390.54        12.81124
390.98        12.82742
391.43        12.85659
391.88        12.90541
392.33         12.9505
392.78        12.96866
393.23        12.95698
393.67        12.88619
394.12         12.7894
394.57        12.80133
395.02        12.74145
395.47        12.74715
395.91        12.74406
396.36        12.69239
396.81        12.59184
397.26        12.46138
397.71        12.32872
398.15        12.22579
398.60        12.17772
399.05         12.1459
399.50        12.11355
399.95        12.10857
400.39        12.06161
400.84         11.9764
401.29        11.85511
401.74        11.77672
402.18        11.75548
402.63        11.74652
403.08        11.74978
403.53        11.77362
403.97        11.81241
404.42        11.86467
404.87        11.90165
405.32        11.87694
405.76        11.78102
406.21        11.63168
406.66        11.47888
407.11        11.40417
407.55        11.42855
408.00        11.53041
408.45        11.64693
408.90        11.66315
409.34        11.55004
409.79        11.34357
410.24         11.1355
410.68        11.06294
411.13        11.15426
411.58        11.36825
412.03        11.60271
412.47        11.68464
412.92        11.56228
413.37        11.30213
413.81        11.01322
414.26        10.87605
414.71         10.9166
415.15        11.08319
415.60        11.28011
416.05        11.36449
416.49        11.29494
416.94        11.12389
417.39        10.91654
417.83        10.77197
418.28        10.72486
418.73        10.73554
419.17        10.77942
419.62        10.81986
420.07        10.84048
420.51        10.85675
420.96        10.85962
421.41        10.82652
421.85        10.75605
422.30        10.66466
422.74        10.57458
423.19        10.53996
423.64        10.56407
424.08        10.63779
424.53        10.72468
424.98        10.78229
425.42        10.79424
425.87        10.75996
426.31          10.692
426.76         10.6303
427.21        10.54929
427.65        10.46534
428.10        10.37145
428.54        10.23897
428.99        10.08692
429.44        9.998324
429.88        9.970844
430.33        9.874566
430.77         9.77485
431.22        9.968061
431.66         10.3957
432.11        10.62321
432.56        10.57301
433.00        10.49495
433.45        10.40228
433.89         10.0989
434.34        9.736072
434.78        9.687767
435.23        9.897938
435.67        9.970181
436.12        9.880128
436.57        9.854029
437.01        9.907471
437.46        9.960182
437.90        10.00659
438.35        10.05969
438.79        10.10167
439.24        10.08822
439.68        10.03108
440.13         9.98154
440.57        9.937574
441.02        9.904431
441.46        9.887888
441.91        9.818155
442.35         9.72323
442.80        9.852336
443.24        10.10992
443.69        10.01766
444.13        9.638646
444.58         9.47627
445.02        9.539395
445.47        9.570775
445.91        9.546784
446.36        9.557212
446.80        9.592214
447.24        9.631968
447.69         9.67165
448.13        9.705639
448.58        9.731524
449.02        9.750306
449.47        9.765874
449.91        9.780363
450.36         9.79479
450.80        9.806448
451.25        9.812566
451.69        9.809657
452.13        9.794369
452.58         9.77433
453.02        9.744773
453.47        9.698723
453.91         9.63526
454.36        9.587953
454.80        9.521165
455.24        9.486742
455.69        9.476815
456.13        9.483415
456.58        9.504608
457.02        9.526988
457.46        9.547544
457.91        9.566078
458.35         9.57573
458.79        9.568356
459.24        9.551805
459.68        9.533379
460.13        9.524985
460.57        9.498507
461.01        9.532147
461.46        9.526554
461.90        9.522375
462.34        9.632734
462.79        9.812388
463.23        9.850462
463.68        9.753959
464.12        9.719807
464.56        9.754202
465.01        9.755716
465.45        9.718373
465.89        9.678192
466.34        9.653602
466.78        9.681055
467.22        9.761627
467.67        9.739421
468.11        9.614893
468.55        9.450667
468.99        9.300587
469.44         9.22056
469.88        9.226521
470.32        9.307071
470.77        9.418714
471.21        9.502398
471.65        9.533338
472.10        9.533543
472.54        9.524597
472.98        9.554659
473.42        9.631633
473.87        9.732062
474.31         9.82938
474.75        9.884834
475.20        9.893466
475.64        9.869056
476.08        9.829357
476.52        9.798027
476.97        9.785433
477.41        9.782916
477.85        9.798982
478.29         9.84552
478.74        9.922264
479.18        10.01816
479.62        10.10785
480.06        10.17594
480.50        10.22165
480.95        10.16128
481.39        10.16823
481.83        10.17582
482.27        10.24688
482.72        10.28552
483.16        10.42062
483.60        10.50409
484.04        10.56347
484.48        10.62685
484.93        10.72492
485.37        10.79874
485.81        10.81267
486.25        11.01025
486.69        10.81185
487.14        10.78919
487.58         11.4316
488.02        11.28677
488.46        11.36187
488.90        11.80683
489.34        11.27153
489.79        11.31165
490.23        11.43249
490.67        11.67962
491.11        11.94521
491.55        11.97034
491.99        11.82701
492.43        11.88678
492.88        12.16859
493.32        12.42258
493.76         12.6038
494.20        12.78369
494.64        12.95454
495.08        13.08899
495.52        13.18594
495.96        13.28189
496.41        13.38883
496.85        13.42399
497.29          13.411
497.73        13.62749
498.17         13.8598
498.61        13.89608
499.05        13.73214
499.49        13.72067
499.93        13.89448
500.37        14.11743
500.82        14.32803
501.26         14.4623
501.70        14.50065
502.14        14.48322
502.58        14.47148
503.02         14.5463
503.46        14.72604
503.90        14.98415
504.34        15.25672
504.78        15.43491
505.22        15.48917
505.66        15.45307
506.10        15.37066
506.54        15.33056
506.98        15.36188
507.42        15.40703
507.86        15.44205
508.30         15.6044
508.74        15.59854
509.18        15.66447
509.62        15.71871
510.06        15.76745
510.50        15.81046
510.94         15.8499
511.38        15.88588
511.82        15.91338
512.26        15.93374
512.70        15.94737
513.14        15.96787
513.58        16.01596
514.02        16.09352
514.46        16.19395
514.90        16.29186
515.34        16.34519
515.78        16.34459
516.22        16.30251
516.66        16.24698
517.10        16.22325
517.54        16.24125
517.98        16.28465
518.42         16.3314
518.86        16.34587
519.30          16.318
519.74        16.26187
520.18        16.18816
520.62        16.11123
521.06        16.03923
521.50        15.97037
521.93        15.91204
522.37        15.87169
522.81        15.85345
523.25        15.85597
523.69        15.87162
524.13        15.88795
524.57        15.89694
525.01        15.89328
525.45        15.87718
525.89         15.8516
526.32        15.81413
526.76        15.76984
527.20        15.70396
527.64        15.59515
528.08        15.44677
528.52        15.27165
528.96        15.10803
529.40        15.01502
529.83        15.00326
530.27        15.05513
530.71         15.1293
531.15        15.16123
531.59        15.13138
532.03        15.05576
532.46        14.95675
532.90        14.87589
533.34        14.82533
533.78         14.7949
534.22        14.76964
534.66        14.72735
535.09        14.66332
535.53        14.59243
535.97        14.53382
536.41        14.52054
536.85        14.55647
537.28        14.62689
537.72        14.70303
538.16        14.74369
538.60        14.73898
539.04        14.70679
539.47        14.65946
539.91        14.63138
540.35        14.63079
540.79        14.65476
541.22        14.70924
541.66        14.80656
542.10        14.94173
542.54        15.10726
542.97        15.28846
543.41        15.46149
543.85        15.61765
544.29        15.76435
544.72        15.88768
545.16        15.98085
545.60        16.04684
546.04        16.08526
546.47        16.13296
546.91        16.27353
547.35        16.50488
547.79        16.75185
548.22        16.97557
548.66        17.20767
549.10         17.4419
549.53        17.59662
549.97        17.65518
550.41        17.95501
550.84         17.9653
551.28        18.08855
551.72        18.16839
552.15        18.37219
552.59         18.4729
553.03          18.651
553.46        18.83254
553.90        19.00283
554.34        19.15143
554.77        19.30087
555.21        19.44527
555.65        19.52213
556.08        19.54796
556.52        19.62109
556.96        19.73936
557.39        19.85311
557.83         19.9573
558.27        20.04051
558.70        20.11819
559.14        20.23777
559.57        20.38222
560.01        20.52022
560.45        20.63338
560.88         20.6362
561.32        20.65817
561.75        20.70884
562.19        20.81882
562.63         20.8892
563.06        20.91608
563.50        20.96829
563.93        21.03968
564.37        21.11028
564.80        21.17466
565.24        21.24461
565.68        21.32225
566.11        21.42422
566.55        21.55238
566.98        21.66977
567.42        21.79832
567.85        21.93204
568.29        22.07316
568.72         22.2761
569.16         22.5601
569.60        22.52453
570.03        22.87056
570.47        23.00011
570.90        23.08241
571.34         23.3576
571.77        23.40024
572.21        23.52731
572.64        23.62277
573.08        23.78474
573.51        24.00973
573.95        24.07759
574.38        24.40175
574.82        24.23635
575.25        24.35894
575.69        24.51971
576.12        23.97856
576.56        24.41251
576.99        24.50137
577.42        24.59475
577.86        24.51825
578.29        24.44468
578.73        24.53184
579.16        24.46442
579.60        24.15023
580.03         23.9247
580.47        24.15211
580.90        24.12087
581.33        23.93919
581.77        23.93853
582.20        23.81411
582.64        23.78504
583.07        23.51449
583.51        23.34632
583.94         23.3007
584.37        23.08859
584.81        22.79254
585.24        22.85316
585.68        23.06731
586.11        22.96532
586.54        22.67539
586.98         22.5358
587.41         22.8252
587.85        22.59753
588.28        22.26712
588.71        22.74307
589.15        22.27324
589.58        22.25271
590.01        22.27002
590.45        22.22249
590.88        22.18073
591.31        22.28355
591.75        22.47772
592.18        22.54533
592.61        22.50025
593.05        22.25328
593.48        22.42593
593.91        22.44236
594.35        22.41443
594.78        22.45531
595.21        22.56441
595.65        22.59702
596.08        22.57338
596.51        22.97697
596.94        23.28282
597.38        23.58211
597.81         23.6718
598.24        23.80288
598.68        24.08231
599.11        24.10862
599.54        24.87748
599.97        25.19943
600.41        25.24514
600.84         25.8264
601.27        26.08776
601.70        26.58609
602.14        27.00653
602.57        27.28701
603.00        27.46665
603.43        27.76862
603.87         28.1007
604.30        28.84079
604.73        29.00445
605.16        29.47341
605.60         29.9487
606.03        30.45015
606.46         30.8724
606.89         31.2909
607.32        31.55211
607.76        31.88587
608.19        32.24053
608.62        32.61158
609.05        33.02759
609.48        33.39045
609.92        33.62093
610.35        34.22987
610.78        34.52303
611.21        34.57015
611.64        34.92827
612.07        35.44553
612.50        35.55003
612.94        35.75603
613.37        36.27913
613.80         36.4296
614.23        36.89604
614.66        37.11955
615.09        37.30307
615.52        37.47794
615.96         37.6565
616.39        37.99692
616.82        38.04447
617.25        38.48046
617.68        38.46606
618.11        38.75798
618.54        39.10463
618.97        39.33875
619.40        39.49252
619.84        39.68461
620.27        39.93956
620.70         40.2936
621.13        40.66909
621.56        40.46148
621.99        40.49866
622.42        40.11409
622.85         40.5156
623.28        40.44187
623.71        40.89085
624.14        40.30878
624.57        40.82364
625.00        40.77448
625.43        40.72961
625.86         40.5589
626.29        40.27451
626.72        40.33336
627.15         40.0363
627.58        39.96325
628.01        39.87492
628.44         39.6919
628.87        39.42064
629.30        39.20465
629.73        39.05756
630.16        38.84541
630.59        38.55236
631.02        38.35867
631.45        38.07684
631.88        37.72016
632.31        37.21648
632.74        36.88513
633.17        36.25313
633.60        35.78606
634.03         35.3526
634.46        34.94865
634.89        34.55327
635.32        34.14407
635.75         33.7173
636.18        33.27554
636.61        32.83353
637.04        32.41698
637.47        32.03839
637.89        31.66909
638.32        31.28272
638.75        30.93352
639.18        30.63527
639.61        30.08243
640.04        29.84334
640.47        29.51166
640.90        29.25543
641.33        29.05843
641.76        28.89871
642.18        28.73242
642.61        28.53886
643.04        28.33956
643.47        28.17709
643.90        28.10816
644.33        28.14047
644.76        28.29046
645.18        28.49297
645.61        28.56438
646.04        28.45827
646.47        28.52984
646.90        28.76344
647.33        28.93625
647.75        29.04545
648.18        29.24771
648.61        29.53787
649.04         29.8397
649.47        30.15703
649.89        30.50979
650.32        30.90672
650.75        31.41243
651.18        32.00134
651.61        32.55182
652.03        33.05655
652.46        33.62395
652.89        34.20032
653.32        34.59146
653.74        34.92517
654.17        35.25444
654.60        35.70819
655.03        37.00983
655.46        36.46529
655.88          38.103
656.31        40.42419
656.74        41.58175
657.16        40.94424
657.59        39.84689
658.02        39.50027
658.45        40.61079
658.87        40.72909
659.30        41.16259
659.73          41.736
660.15        42.03868
660.58        42.40139
661.01        42.67229
661.44        42.95181
661.86        42.93014
662.29        42.76502
662.72        43.19026
663.14        44.08417
663.57        44.33899
664.00        44.01834
664.42        44.10175
664.85        44.63707
665.27        45.05835
665.70        45.30186
666.13        45.55565
666.55         45.8116
666.98        46.01298
667.41        46.16869
667.83        46.28825
668.26        46.37517
668.69         46.4446
669.11        46.51513
669.54        46.61399
669.96        46.75067
670.39        46.92091
670.82        47.10823
671.24        47.28885
671.67        47.44276
672.09        47.57039
672.52        47.69931
672.94        47.91612
673.37        47.85714
673.80        48.36111
674.22        48.33553
674.65         48.5709
675.07        48.78209
675.50        48.96021
675.92        49.09386
676.35        49.29314
676.77        49.35646
677.20        49.44099
677.62        49.51056
678.05        49.61393
678.47        49.75336
678.90        49.92442
679.32        50.08486
679.75        50.16962
680.17        50.16544
680.60        50.10446
681.02        50.03766
681.45         50.0477
681.87        50.16037
682.30        50.34143
682.72        50.56771
683.15        50.76156
683.57        50.91694
684.00        51.06472
684.42        51.20287
684.85        51.33215
685.27        51.45634
685.70        51.51648
686.12        51.52751
686.54        51.76133
686.97        52.17487
687.39        52.29111
687.82        52.01732
688.24        52.39469
688.66        52.34955
689.09        51.91647
689.51        52.05849
689.94        51.96696
690.36        52.03298
690.78        52.12706
691.21        52.26655
691.63        52.57861
692.06        52.95933
692.48        53.08382
692.90        52.97648
693.33        52.98173
693.75        53.12135
694.17        53.18331
694.60        53.18442
695.02         53.2289
695.44        53.31577
695.87        53.52493
696.29        53.80557
696.71        53.77895
697.14        53.58087
697.56         53.7575
697.98        54.25728
698.41        54.51308
698.83        54.49085
699.25        54.51508
699.68        54.58464
700.10        54.59841
700.52         54.5611
700.94        54.49416
701.37        54.39323
701.79        54.40841
702.21        54.48687
702.64        54.38998
703.06        54.59906
703.48        54.72289
703.90        54.90665
704.33        55.14516
704.75        55.38007
705.17        55.55779
705.59        55.63249
706.01        55.62144
706.44        55.58377
706.86        55.54905
707.28        55.63575
707.70        55.75588
708.12        55.90013
708.55        55.82801
708.97        55.63073
709.39        55.78149
709.81        56.24474
710.23        56.52827
710.66        56.58232
711.08        56.72713
711.50        56.90681
711.92        57.03288
712.34        57.09285
712.76        57.11922
713.19         57.1165
713.61        57.13285
714.03        57.16476
714.45        57.20344
714.87        57.24717
715.29        57.29263
715.71        57.33677
716.13        57.38209
716.56         57.4073
716.98        57.44768
717.40        57.48178
717.82        57.50773
718.24        57.53172
718.66        57.56581
719.08        57.61066
719.50        57.65999
719.92        57.70695
720.34        57.73696
720.76         57.7415
721.19         57.7365
721.61        57.73783
722.03        57.69365
722.45        57.59592
722.87        57.67037
723.29        57.54788
723.71        57.56145
724.13         57.6007
724.55        57.67226
724.97        57.75615
725.39        57.81426
725.81        57.84411
726.23         57.8827
726.65        57.94335
727.07        57.98985
727.49        58.04856
727.91        58.22924
728.33        58.50438
728.75        58.68527
729.17        58.74168
729.59        58.83199
730.01        58.91092
730.43        58.73715
730.85         58.3863
731.27        58.18985
731.69        58.21033
732.10        58.30965
732.52        58.49788
732.94        58.86601
733.36        59.36641
733.78        59.71715
734.20        59.86765
734.62        59.87083
735.04        59.78296
735.46        59.74352
735.88        59.77892
736.30        59.73341
736.72        59.62453
737.13        59.69672
737.55        59.83625
737.97        59.70754
738.39        59.37539
738.81        59.08458
739.23        58.97353
739.65        59.32508
740.06         59.9302
740.48        60.16733
740.90        59.95853
741.32        59.63385
741.74        59.35656
742.16        59.24376
742.57        59.36304
742.99        59.69434
743.41        60.09475
743.83        60.25378
744.25        60.15086
744.67        60.01718
745.08        59.95094
745.50        59.95557
745.92        60.06476
746.34        60.28916
746.75        60.56876
747.17        60.75265
747.59        60.81071
748.01        60.87922
748.42         60.9309
748.84        60.75634
749.26        60.48126
749.68        60.37929
750.09        60.46613
750.51        60.80807
750.93        61.19865
751.35        61.00496
751.76         60.3676
752.18         60.1416
752.60        60.38272
753.01        60.61552
753.43        60.73968
753.85        60.78289
754.27        60.71453
754.68        60.84063
755.10        60.68447
755.52        60.72642
755.93        60.80541
756.35         60.8806
756.77        61.00892
757.18        61.19745
757.60        61.43695
758.02        62.00271
758.43        62.58808
758.85        62.18656
759.26        61.10551
759.68         60.6408
760.10         60.8233
760.51         61.7152
760.93        61.60105
761.34        61.62918
761.76        61.88798
762.18        61.85049
762.59        61.71212
763.01        61.35794
763.42        60.95271
763.84        60.76745
764.26         60.8766
764.67        61.06435
765.09         61.2732
765.50         61.6557
765.92         62.1578
766.33        61.87436
766.75        61.97177
767.16        61.73681
767.58         61.5863
768.00        61.39488
768.41          61.279
768.83        61.53005
769.24        61.95838
769.66        62.14926
770.07        62.03502
770.49        61.57211
770.90        61.01606
771.32        61.27314
771.73        62.17969
772.15        62.44365
772.56        61.98603
772.97        61.74053
773.39        61.43645
773.80        61.49908
774.22        61.77224
774.63        62.09763
775.05        62.32495
775.46        62.48743
775.88        62.51847
776.29        62.37623
776.70        62.11097
777.12        61.89446
777.53        61.77296
777.95        61.67623
778.36        61.64657
778.77        61.71081
779.19        61.86271
779.60        62.23496
780.02        62.67183
780.43         62.7653
780.84        62.59168
781.26        62.54741
781.67        62.72119
782.09        63.23789
782.50        63.86585
782.91        63.74763
783.33        62.98949
783.74        62.61487
784.15         62.6908
784.57        62.68179
784.98        62.57532
785.39        62.34595
785.81        62.43924
786.22        62.54765
786.63        62.79484
787.04        63.06868
787.46        63.35461
787.87        63.70903
788.28        64.07359
788.70        64.26768
789.11         64.2553
789.52        64.20595
789.93        64.11848
790.35        63.78756
790.76        63.34629
791.17        63.22349
791.58        63.43069
792.00        63.59283
792.41        63.66041
792.82          63.852
793.23        64.12684
793.65        64.10657
794.06        63.92924
794.47         64.2498
794.88        64.89067
795.29        65.05325
795.71         64.6734
796.12        64.20955
796.53        63.84163
796.94         63.7116
797.35        63.90411
797.76         64.3801
798.18         64.9474
798.59        65.33041
799.00         65.4229
799.41         65.2989
799.82        65.05804
800.23        64.87792
800.64        64.82112
801.06        64.81036
801.47        64.83984
801.88        64.83736
802.29        64.77715
802.70        64.67625
803.11        64.57954
803.52        64.54922
803.93        64.61607
804.34        64.77689
804.75        64.93443
805.17        65.01694
805.58        65.04247
805.99        64.74047
806.40        64.31844
806.81        64.77723
807.22        65.85222
807.63        65.92303
808.04        65.05806
808.45         64.7817
808.86        65.18793
809.27        65.37939
809.68        65.27129
810.09        65.18666
810.50        65.12807
810.91        65.00776
811.32        64.90581
811.73        64.95152
812.14         65.1622
812.55        65.51265
812.96        65.89262
813.37        66.08262
813.78        66.02404
814.19          65.796
814.60        65.50034
815.01        65.28069
815.42        65.17785
815.83        65.14365
816.24        65.17162
816.65        65.24925
817.05         65.3584
817.46        65.47565
817.87        65.57057
818.28        65.54091
818.69        65.37721
819.10        65.10841
819.51        64.82151
819.92        64.68557
820.33        64.75227
820.74        64.96312
821.14        65.25613
821.55         65.5424
821.96         65.7782
822.37        65.99614
822.78        66.15443
823.19        66.18184
823.60        66.06492
824.00        65.80341
824.41        65.49794
824.82        65.34584
825.23        65.38444
825.64        65.58389
826.04        65.80772
826.45        65.74123
826.86        65.35091
827.27        64.74954
827.68        64.16145
828.08        63.95764
828.49        64.18341
828.90        64.75394
829.31        65.50667
829.72        66.15511
830.12        66.60962
830.53        66.86575
830.94        67.00146
831.35        67.11847
831.75        67.26654
832.16        67.33171
832.57        67.30825
832.97        67.16748
833.38        66.92767
833.79        66.68121
834.20         66.4474
834.60        66.21536
835.01        66.03014
835.42        65.86712
835.82        65.87161
836.23        66.22122
836.64        66.93533
837.04        67.95903
837.45         68.9152
837.86        69.32103
838.26        69.04849
838.67         68.2613
839.08        67.25939
839.48        66.49591
839.89        66.15673
840.29        66.11337
840.70        66.29184
841.11        66.58034
841.51        66.93011
841.92        67.34089
842.33         67.7595
842.73        68.06443
843.14        68.16817
843.54        68.11243
843.95        67.92962
844.35        67.75468
844.76        67.60978
845.17        67.45185
845.57        67.31676
845.98        67.22481
846.38         67.1936
846.79        67.23939
847.19        67.25248
847.60        66.99776
848.00        66.47256
848.41        65.76283
848.81        65.13881
849.22        65.00459
849.62        65.46296
850.03        66.35241
850.43        67.43498
850.84        68.09585
851.24        68.19373
851.65        67.80126
852.05        67.18209
852.46        66.73721
852.86        66.58373
853.27        66.64989
853.67        66.72282
854.07        66.68298
854.48        66.45618
854.88        66.12101
855.29        65.73213
855.69        65.56979
856.10        65.62991
856.50        65.92112
856.90        66.21599
857.31        66.21581
857.71        65.90677
858.12        65.34077
858.52        64.76324
858.92        64.53243
859.33        64.72623
859.73        65.28774
860.13        65.96809
860.54        66.37136
860.94        66.42592
861.34        66.15353
861.75        65.73253
862.15        65.51976
862.55        65.58261
862.96        65.84628
863.36        66.02846
863.76        65.71289
864.17        64.87617
864.57        63.71207
864.97        62.61715
865.38        62.14371
865.78        62.43814
866.18        63.31728
866.58        64.49049
866.99        65.33633
867.39        65.63419
867.79        65.53047
868.19        65.14468
868.60        64.65679
869.00         64.1743
869.40        63.63622
869.80        63.23883
870.21         63.3243
870.61        63.97607
871.01        65.05498
871.41        66.20468
871.81        66.84621
872.22        66.81601
872.62         66.2496
873.02        65.39633
873.42        64.69929
873.82        64.32944
874.22        64.21909
874.63        64.20847
875.03        64.04332
875.43        63.68044
875.83          63.222
876.23        62.96065
876.63        63.29461
877.03        64.25194
877.44        65.71533
877.84        67.30757
878.24        67.71054
878.64        67.73022
879.04        66.86997
879.44        65.76835
879.84        64.92384
880.24        64.49713
880.64        64.29356
881.04        64.33064
881.44        64.65617
881.84        65.22047
882.24        66.06548
882.65        66.81564
883.05        66.92537
883.45        66.24709
883.85        64.98019
884.25        63.68803
884.65        63.23188
885.05        63.77383
885.45        65.02877
885.85        66.54466
886.25        67.53306
886.65        67.72024
887.05        67.35252
887.45        66.60596
887.85        65.79745
888.25        65.11369
888.65        64.47848
889.04         63.9912
889.44        63.86022
889.84        64.05328
890.24        64.56969
890.64        65.23431
891.04        65.63762
891.44        65.64672
891.84        65.38128
892.24        65.04636
892.64        64.94786
893.04        65.14066
893.44        65.49603
893.83        65.96256
894.23        66.37609
894.63        66.68448
895.03        66.95215
895.43        67.08611
895.83        66.93826
896.23        66.51236
896.63        65.82973
897.02        65.13255
897.42        64.89644
897.82        65.18822
898.22        65.90104
898.62        66.66718
899.01        66.87115
899.41        66.36491
899.81        65.36191
900.21        64.26459
900.61         63.6908
901.00        63.78794
901.40        64.36841
901.80        65.11136
902.20        65.49477
902.59        65.36707
902.99        64.88889
903.39        64.31911
903.79        64.03019
904.18        64.11362
904.58        64.47153
904.98        64.88143
905.38         65.0249
905.77        64.80951
906.17          64.331
906.57        63.84311
906.96        63.76653
907.36        64.15575
907.76        64.91802
908.15        65.68498
908.55        65.72659
908.95        64.96719
909.34        63.63736
909.74        62.36823
910.14        61.99397
910.53         62.7182
910.93        64.22003
911.33        66.03979
911.72        67.44762
912.12        68.11732
912.52        68.26191
912.91        68.09843
913.31        68.00506
913.70         68.1134
914.10        68.23756
914.49        68.25259
914.89        67.97138
915.29        67.39445
915.68        66.66667
916.08        65.96403
916.47        65.40006
916.87        65.07944
917.26        64.92033
917.66        64.97444
918.05        65.34182
918.45        65.95173
918.84        66.80914
919.24        67.60152
919.64        67.93353
920.03        67.71275
920.42        67.02435
920.82        66.19918
921.21        65.66697
921.61        65.55931
922.00         65.7802
922.40        66.14293
922.79         66.4024
923.19        66.44124
923.58        66.36278
923.98        66.26114
924.37        66.28607
924.77        66.45953
925.16         66.7205
925.55        66.95474
925.95        66.99631
926.34        66.82922
926.74        66.50211
927.13        66.13293
927.52        65.87444
927.92        65.77796
928.31        65.77415
928.70        65.81504
929.10        65.80407
929.49        65.70988
929.89        65.55782
930.28        65.36002
930.67        65.07285
931.07        64.71478
931.46        64.31821
931.85        63.98044
932.24        63.85353
932.64        63.97201
933.03        64.31063
933.42        64.75578
933.82        65.08124
934.21        65.22876
934.60        65.20156
934.99        65.15026
935.39         65.3203
935.78        65.80249
936.17        66.47929
936.56         67.0273
936.96        66.94624
937.35        66.17269
937.74         64.9431
938.13        63.71049
938.53        63.02785
938.92        62.97955
939.31        63.45911
939.70        64.19965
940.09        64.68913
940.49        64.72229
940.88        64.42095
941.27        64.05145
941.66        64.03395
942.05        64.45474
942.44        65.22458
942.84        65.91881
943.23        65.86055
943.62         64.8864
944.01        63.25354
944.40        61.70422
944.79        61.31001
945.18        62.25852
945.57        64.24532
945.97         66.4286
946.36        67.54468
946.75        67.11438
947.14        65.54517
947.53          63.645
947.92        62.64494
948.31        62.86515
948.70        63.95921
949.09        65.33147
949.48        65.92231
949.87         65.4137
950.26        64.18597
950.65        62.84827
951.04        62.20737
951.43        62.45195
951.82        63.36536
952.21        64.46508
952.60        64.89989
952.99         64.4236
953.38        63.29644
953.77        62.17391
954.16        61.93386
954.55        62.73337
954.94        64.40079
955.33        66.20598
955.72        66.60468
956.11        65.16197
956.50        62.48775
956.89        59.80686
957.28        58.68537
957.66        59.44368
958.05        61.56527
958.44         64.2846
958.83        65.98712
959.22        66.04764
959.61        65.00715
960.00        63.53279
960.39        62.46988
960.78        62.02025
961.16        61.90553
961.55        61.94787
961.94        61.93033
962.33        61.77102
962.72        61.65855
963.11        61.61537
963.49         61.6073
963.88        61.63665
964.27        61.67158
964.66        61.79846
965.04        62.23761
965.43        62.92891
965.82          63.804
966.21        64.65563
966.60        65.10021
966.98        65.06278
967.37        64.72608
967.76        64.23204
968.15        63.76402
968.53        63.37306
968.92        62.91569
969.31        62.65598
969.69        63.09552
970.08        64.26169
970.47        66.15696
970.86        67.90968
971.24        68.01993
971.63        66.21813
972.02        63.05505
972.40        59.94141
972.79        59.02929
973.17        60.67106
973.56        64.07646
973.95        68.02391
974.33        70.20334
974.72        69.80178
975.11        67.61754
975.49        64.67046
975.88        62.84058
976.26        62.64191
976.65        63.43794
977.04        64.83245
977.42        66.12375
977.81        66.81696
978.19        67.24793
978.58        67.33555
978.96        66.79236
979.35        65.70857
979.74        64.14918
980.12        62.54384
980.51        61.66644
980.89        61.79189
981.28         62.5767
981.66        63.92414
982.05        65.34676
982.43        66.70294
982.82        68.08511
983.20        68.99839
983.59        68.53339
983.97        66.65331
984.35        63.66393
984.74        60.84001
985.12        59.99044
985.51        61.34458
985.89        64.50228
986.28         68.0505
986.66         69.9517
987.04        69.42929
987.43        67.06949
987.81        63.95103
988.20        62.30863
988.58        62.72306
988.96         64.6381
989.35        66.65647
989.73        66.73371
990.12        64.36269
990.50        60.38937
990.88        56.20957
991.27        54.03087
991.65        54.37014
992.03        56.52684
992.42          59.513
992.80        62.13586
993.18        63.85029
993.56        65.02344
993.95         65.6696
994.33        65.95181
994.71        65.90359
995.10        65.45662
995.48        64.82247
995.86        64.45643
996.24        64.48608
996.63          64.792
997.01        65.43211
997.39        66.22804
997.77        67.02814
998.15        67.84361
998.54        68.41221
998.92        68.36229
999.30        67.63304
999.68        66.33567
1000.06        64.85114
1000.45        63.89341
1000.83        63.77982
1001.21        64.35368
1001.59        65.42965
1001.97        66.63332
1002.35         67.7727
1002.73        68.92786
1003.12        69.91791
1003.50        70.39207
1003.88        70.35303
1004.26        69.87407
1004.64        69.25755
1005.02        69.06889
1005.40        69.43198
1005.78        70.13012
1006.16        70.94231
1006.54        71.56844
1006.92        71.90286
1007.30        72.03223
1007.69        71.85568
1008.07        71.26787
1008.45        70.28577
1008.83         69.0705
1009.21        67.85886
1009.59        67.03671
1009.97        66.72524
1010.35        66.72965
1010.73        67.24538
1011.11        68.54616
1011.49        70.46174
1011.86        72.87505
1012.24        74.68074
1012.62        74.40562
1013.00        71.74981
1013.38        66.97523
1013.76         61.3392
1014.14        57.65462
1014.52        57.13758
1014.90        59.30132
1015.28        62.66916
1015.66        64.72996
1016.04        64.78007
1016.41        63.56635
1016.79        61.99562
1017.17        61.77373
1017.55        63.21684
1017.93        65.32393
1018.31        67.43363
1018.69        69.26291
1019.06        71.01242
1019.44        72.89021
1019.82        75.10204
1020.20        77.15047
1020.58        78.24307
1020.95        78.12805
1021.33        77.00852
1021.71        75.06994
1022.09        72.20796
1022.46        67.91075
1022.84        62.72477
1023.22        58.53036
1023.60        57.03704
1023.97        58.03923
1024.35        60.00782
1024.73        61.19048
