SpectraSmart Spectrum 2.9.0.0
--------- Device Information -----------
Spectrum Name :  反射率_0
Saving Time :  2024/04/30 00:58:30
Spectro-Module Model Name : SE2030-DUVN
Spectro-Module Serial Number : OS361AC55029948
Wavelength Start : 200
Wavelength End : 1025
Wavelength Unit : Wavelength(nm)
Spectrum Unit : Reflectance(%)
-----------Spectrum Setting ------------
Integration Time : 20ms
Average : 10
Boxcar : 0
Background removal :  enabled
linearity correction :  enabled
SC :  disabled
Intensity correction :  disabled
DWT denoise :  enabled
savitzky-golay :  disabled
FFT :  disabled
Running average :  disabled
Kalman :  disabled
High pass :  disabled
---------------BEGIN--------------------
Wavelength(nm)             Reflectance(%)
200.29               0
200.75        55.76773
201.21         46.7369
201.67        35.89788
202.13        25.34635
202.58        16.32606
203.04         8.29392
203.50        3.373426
203.96         6.11167
204.42        17.54432
204.88        36.24446
205.34        54.78412
205.80        61.90324
206.26        57.96322
206.72        49.25507
207.18        40.95354
207.64        36.39708
208.10        35.13112
208.55        35.54696
209.01        37.02904
209.47        38.84871
209.93         40.2874
210.39        41.78223
210.85        42.60214
211.31        41.91745
211.77        39.59222
212.23        35.00299
212.69          29.116
213.14        27.75229
213.60        32.67354
214.06        40.52067
214.52        47.01813
214.98        49.57545
215.44        48.94264
215.90        46.36981
216.36        43.31303
216.81        42.56955
217.27         45.7453
217.73        52.56012
218.19        63.09085
218.65        73.33244
219.11        78.44836
219.57        78.61056
220.02        75.79343
220.48        72.27451
220.94        67.85177
221.40        61.41984
221.86         53.1023
222.32        46.93221
222.77        45.64746
223.23        47.81163
223.69        50.44392
224.15        51.67741
224.61        51.64003
225.06        50.91956
225.52        50.16483
225.98        50.34338
226.44        51.51263
226.90         52.8321
227.36        53.95273
227.81        54.80701
228.27        55.51178
228.73         56.1276
229.19        56.48273
229.65        56.18608
230.10        55.30097
230.56        54.29006
231.02        53.31658
231.48        52.49854
231.93        51.69877
232.39        50.87323
232.85        50.09381
233.31        49.61567
233.77        49.50699
234.22        49.87249
234.68        50.16167
235.14        49.45516
235.60        47.68709
236.05        45.20166
236.51         43.1445
236.97        42.94992
237.43        44.97304
237.88        49.40751
238.34        55.34214
238.80        59.72636
239.26        60.31002
239.71        57.60683
240.17        53.56028
240.63        51.25773
241.08        51.61157
241.54        54.48221
242.00        60.26733
242.46        66.36965
242.91        68.75781
243.37        66.89725
243.83        63.32235
244.28        61.32934
244.74        61.35246
245.20         62.3714
245.66         64.4708
246.11        67.74104
246.57        72.11134
247.03         78.6094
247.48        84.89657
247.94         85.0612
248.40        79.91936
248.85        72.57845
249.31        68.02319
249.77        68.78851
250.22        74.97906
250.68        87.72202
251.14        105.9696
251.59        112.8924
252.05        99.49065
252.51        80.35966
252.96        65.97072
253.42        58.61497
253.88        55.40429
254.33        54.06427
254.79        54.11291
255.25        54.35408
255.70          54.221
256.16        54.42202
256.62        54.61071
257.07        54.47285
257.53        54.36158
257.99        54.10258
258.44        53.66096
258.90        53.67268
259.35        53.71399
259.81        53.84842
260.27        53.81054
260.72        53.41687
261.18        52.86404
261.63        52.04518
262.09         51.1118
262.55        49.95986
263.00        48.64863
263.46        47.44449
263.91        46.32805
264.37        45.52906
264.83        44.96364
265.28        44.50801
265.74        44.24593
266.19        44.08372
266.65        44.03344
267.11        44.03531
267.56        43.97643
268.02        43.70546
268.47        43.17225
268.93        42.43266
269.38        41.54722
269.84        40.74573
270.30        40.09552
270.75        39.56217
271.21        39.10369
271.66        38.60995
272.12        38.05498
272.57        37.44653
273.03        36.84748
273.48        36.26841
273.94        35.76879
274.39        35.28437
274.85        34.82586
275.31        34.33039
275.76        33.77077
276.22        33.20496
276.67        32.62001
277.13        32.09512
277.58        31.59874
278.04        31.15622
278.49        30.71746
278.95        30.30409
279.40         29.8764
279.86        29.51407
280.31        29.16466
280.77        28.86991
281.22        28.59273
281.68        28.34232
282.13        28.14899
282.59        28.11476
283.04        28.20259
283.50        28.36654
283.95        28.44456
284.41        28.21098
284.86        27.63571
285.32        26.86137
285.77         26.0291
286.22        25.40934
286.68        25.07109
287.13         24.8974
287.59        24.84789
288.04        24.79926
288.50        24.72159
288.95        24.62344
289.41        24.49235
289.86        24.26283
290.32        23.95959
290.77        23.59859
291.22        23.24177
291.68         22.9924
292.13        22.87402
292.59        22.88049
293.04        23.02911
293.50        23.36468
293.95        23.86809
294.40        24.52246
294.86        25.20348
295.31        25.73327
295.77        26.06728
296.22        26.24052
296.68        26.38004
297.13        26.67058
297.58        27.16105
298.04         27.7611
298.49        28.36938
298.95        28.82172
299.40        29.07676
299.85         29.2016
300.31         29.2591
300.76        29.28736
301.21          29.342
301.67        29.41593
302.12        29.51179
302.58        29.77378
303.03        30.19673
303.48        30.60556
303.94        30.90685
304.39        31.67642
304.84        31.67928
305.30        31.91519
305.75        32.04666
306.20        32.18069
306.66        32.33818
307.11         32.4889
307.57         32.6383
308.02        32.72325
308.47        32.74944
308.93        32.74446
309.38        32.71708
309.83        32.72605
310.29        32.78024
310.74        32.85582
311.19        32.91277
311.65        32.88338
312.10        32.75381
312.55        32.55272
313.00        32.33633
313.46         32.1904
313.91        32.12348
314.36        32.11093
314.82        32.11142
315.27        32.07752
315.72        31.98301
316.18        31.85575
316.63         31.6902
317.08        31.48794
317.53        31.26483
317.99        31.03061
318.44        30.81857
318.89        30.68732
319.35         30.6445
319.80        30.66692
320.25        30.72992
320.70        30.79172
321.16        30.82025
321.61        30.83779
322.06        30.80572
322.51        30.67489
322.97        30.44476
323.42        30.13677
323.87        29.81888
324.32        29.60556
324.78        29.51441
325.23        29.53165
325.68        29.58641
326.13          29.557
326.59        29.40344
327.04        29.17336
327.49        28.91747
327.94        28.73259
328.39        28.64044
328.85         28.5925
329.30        28.56482
329.75        28.47266
330.20        28.29693
330.66        28.07403
331.11        27.83527
331.56        27.60155
332.01        27.39058
332.46         27.1907
332.92        27.03347
333.37         27.0066
333.82        27.10967
334.27        27.31851
334.72        27.54194
335.17        27.62616
335.63        27.52773
336.08        27.29624
336.53        27.00093
336.98        26.78244
337.43        26.69028
337.88        26.68538
338.34        26.73399
338.79        26.80185
339.24        26.86249
339.69        26.93792
340.14        27.01096
340.59        27.04671
341.05        27.04324
341.50        27.00226
341.95        26.95711
342.40        26.97419
342.85        27.06077
343.30        27.18386
343.75        27.30154
344.20        27.34883
344.66        27.31519
345.11        27.22022
345.56        27.06917
346.01        26.86625
346.46        26.63758
346.91        26.39702
347.36        26.20342
347.81        26.14477
348.26        26.22695
348.72        26.41009
349.17        26.63261
349.62        26.78317
350.07        26.82064
350.52        26.77927
350.97        26.66127
351.42        26.47293
351.87        26.23779
352.32         25.9613
352.77        25.71798
353.22        25.62974
353.67        25.71663
354.13        25.93899
354.58        26.20681
355.03        26.37047
355.48        26.38109
355.93        26.27331
356.38         26.0891
356.83        25.89852
357.28        25.72635
357.73        25.55299
358.18        25.37113
358.63        25.17229
359.08        24.95902
359.53        24.74768
359.98        24.55469
360.43        24.39825
360.88        24.28135
361.33        24.19511
361.78        24.12507
362.23        24.04804
362.68        23.95816
363.13        23.86539
363.58        23.76927
364.03        23.67072
364.48        23.57006
364.93        23.45673
365.38        23.35182
365.83        23.29299
366.28        23.27954
366.73        23.29809
367.18        23.29135
367.63        23.16786
368.08        22.91539
368.53        22.56981
368.98        22.20549
369.43        21.94181
369.88        21.81606
370.33        21.79926
370.78        21.84347
371.23        21.86768
371.68        21.83903
372.13        21.76871
372.58        21.67976
373.03        21.61084
373.48        21.56472
373.93        21.52175
374.38        21.43391
374.83        21.23122
375.28        20.91727
375.72        20.53159
376.17        20.17102
376.62         19.9288
377.07        19.82386
377.52        19.81931
377.97        19.88196
378.42        19.95442
378.87        20.00682
379.32        20.05045
379.77        20.06027
380.22        20.00234
380.67        19.87286
381.11        19.67107
381.56         19.4479
382.01        19.29074
382.46        19.22652
382.91        19.24631
383.36        19.28461
383.81        19.23653
384.26        19.08367
384.71        18.85127
385.15        18.62803
385.60        18.57903
386.05         18.7122
386.50        18.96705
386.95        19.20383
387.40        19.20717
387.85        18.94934
388.29        18.51199
388.74        18.06287
389.19        17.77006
389.64         17.6695
390.09        17.69303
390.54        17.79144
390.98        17.87978
391.43        17.92709
391.88        17.96272
392.33        17.95695
392.78         17.8826
393.23        17.74851
393.67        17.51797
394.12        17.27684
394.57        17.26736
395.02        17.25359
395.47        17.40722
395.91        17.57291
396.36        17.59983
396.81         17.4625
397.26        17.21742
397.71        16.95912
398.15        16.81844
398.60        16.84126
399.05        16.93614
399.50        17.04086
399.95        17.14436
400.39        17.13642
400.84        17.04291
401.29        16.87025
401.74        16.73425
402.18        16.66429
402.63        16.59653
403.08        16.55524
403.53        16.59155
403.97        16.70102
404.42        16.86868
404.87        17.02654
405.32        17.06121
405.76        16.94734
406.21        16.72754
406.66        16.48049
407.11        16.33408
407.55        16.32627
408.00        16.42015
408.45         16.5554
408.90        16.61815
409.34        16.57423
409.79        16.46067
410.24        16.34708
410.68        16.33691
411.13        16.45135
411.58        16.65127
412.03        16.86024
412.47        16.95328
412.92         16.8873
413.37        16.71708
413.81         16.5118
414.26        16.39917
414.71         16.3969
415.15        16.47297
415.60        16.57824
416.05        16.65082
416.49         16.6672
416.94        16.64995
417.39        16.61105
417.83         16.5637
418.28        16.52085
418.73        16.47292
419.17        16.43081
419.62        16.41573
420.07        16.43029
420.51         16.4691
420.96        16.52024
421.41        16.55365
421.85        16.55721
422.30        16.55473
422.74        16.54544
423.19        16.55825
423.64        16.59075
424.08         16.6396
424.53        16.69084
424.98        16.75052
425.42        16.81676
425.87        16.87453
426.31        16.90258
426.76        16.89528
427.21        16.79742
427.65        16.65018
428.10         16.4877
428.54        16.34778
428.99        16.26422
429.44        16.31405
429.88        16.43256
430.33         16.3581
430.77        16.16469
431.22        16.28087
431.66        16.68588
432.11        16.93029
432.56        16.94403
433.00        17.00523
433.45        17.08644
433.89        16.84353
434.34        16.44331
434.78        16.45014
435.23        16.79276
435.67        16.89059
436.12        16.72111
436.57          16.621
437.01        16.63002
437.46        16.66171
437.90        16.71975
438.35        16.81916
438.79        16.93673
439.24         17.0068
439.68        17.04067
440.13        17.12018
440.57        17.20228
441.02        17.22284
441.46        17.18059
441.91        16.97954
442.35        16.72064
442.80        16.90484
443.24        17.38194
443.69        17.30793
444.13        16.75713
444.58        16.55205
445.02        16.69908
445.47        16.76423
445.91        16.71553
446.36        16.71982
446.80        16.76822
447.24        16.82262
447.69        16.88291
448.13        16.94976
448.58          17.021
449.02        17.09031
449.47        17.16235
449.91        17.23402
450.36        17.30342
450.80        17.36831
451.25        17.40843
451.69         17.3885
452.13        17.30632
452.58        17.18588
453.02        17.06089
453.47        16.98235
453.91        16.96033
454.36        17.03004
454.80        17.08488
455.24         17.1484
455.69        17.18544
456.13        17.20187
456.58         17.2116
457.02        17.22116
457.46          17.236
457.91        17.24695
458.35        17.24474
458.79        17.22646
459.24        17.20345
459.68        17.19059
460.13        17.19216
460.57        17.13504
461.01        17.15276
461.46        17.07773
461.90        16.99491
462.34         17.1337
462.79        17.42068
463.23        17.47298
463.68        17.29842
464.12        17.23321
464.56        17.28666
465.01        17.28684
465.45        17.22502
465.89        17.16471
466.34        17.14017
466.78        17.21399
467.22        17.39762
467.67         17.4287
468.11        17.30597
468.55        17.12988
468.99        16.97124
469.44        16.89389
469.88        16.91905
470.32        17.03312
470.77        17.17756
471.21        17.27137
471.65        17.28423
472.10        17.24679
472.54        17.19663
472.98        17.20968
473.42        17.29923
473.87        17.43439
474.31        17.56683
474.75        17.62947
475.20          17.613
475.64        17.53842
476.08        17.44519
476.52        17.38776
476.97         17.3842
477.41        17.41719
477.85        17.47762
478.29        17.54852
478.74        17.62655
479.18        17.70375
479.62        17.77316
480.06        17.86538
480.50        17.98284
480.95        17.95973
481.39        18.07363
481.83        18.12268
482.27        18.19377
482.72        18.28111
483.16        18.34876
483.60        18.40441
484.04        18.44289
484.48        18.40476
484.93        18.34262
485.37        18.50101
485.81        18.72442
486.25        18.71287
486.69        17.98778
487.14        18.05935
487.58        18.87277
488.02        19.01243
488.46        19.20121
488.90        19.42997
489.34        19.01642
489.79        18.99744
490.23        19.09645
490.67         19.3321
491.11        19.59559
491.55        19.60882
491.99        19.44002
492.43        19.49408
492.88        19.78566
493.32        20.04131
493.76         20.2145
494.20        20.39411
494.64        20.57492
495.08        20.72112
495.52        20.82861
495.96        20.94433
496.41        21.07996
496.85        21.11889
497.29        21.08622
497.73        21.35669
498.17        21.60928
498.61        21.62028
499.05        21.36382
499.49         21.2685
499.93        21.38077
500.37        21.55262
500.82        21.73495
501.26         21.8711
501.70        21.94188
502.14        21.99597
502.58        22.06804
503.02         22.1854
503.46         22.3565
503.90        22.57004
504.34        22.78888
504.78        22.95089
505.22        23.03736
505.66        23.06136
506.10        23.04405
506.54        23.04742
506.98         23.0916
507.42        23.11567
507.86        23.09273
508.30        23.24047
508.74        23.13271
509.18        23.12646
509.62        23.12148
510.06        23.16671
510.50        23.26608
510.94        23.40739
511.38        23.56648
511.82        23.69175
512.26         23.7664
512.70        23.80136
513.14        23.80929
513.58        23.81191
514.02        23.81867
514.46        23.82453
514.90        23.82928
515.34        23.83383
515.78          23.839
516.22        23.84709
516.66        23.86183
517.10        23.88621
517.54        23.91809
517.98        23.95368
518.42        23.98135
518.86        23.98321
519.30        23.95664
519.74        23.90913
520.18        23.85309
520.62        23.80739
521.06        23.77938
521.50        23.76636
521.93        23.76924
522.37        23.78023
522.81        23.79908
523.25        23.82617
523.69        23.85669
524.13        23.88431
524.57        23.90374
525.01        23.90836
525.45         23.8989
525.89        23.87915
526.32        23.84581
526.76         23.8069
527.20         23.7475
527.64        23.64635
528.08        23.50626
528.52          23.339
528.96        23.18126
529.40        23.08993
529.83        23.07449
530.27        23.11949
530.71        23.18354
531.15        23.20251
531.59        23.15886
532.03        23.07083
532.46        22.96248
532.90         22.8814
533.34        22.83882
533.78        22.82024
534.22        22.81103
534.66        22.78971
535.09        22.74863
535.53        22.70409
535.97        22.66205
536.41        22.63631
536.85        22.63007
537.28         22.6363
537.72        22.64937
538.16        22.66322
538.60        22.67498
539.04        22.68993
539.47         22.6991
539.91        22.71033
540.35        22.72066
540.79        22.73581
541.22        22.76716
541.66        22.83725
542.10        22.94633
542.54        23.08637
542.97        23.24326
543.41        23.39771
543.85        23.54125
544.29        23.68268
544.72         23.8081
545.16        23.91329
545.60        23.99858
546.04        24.05681
546.47         24.1189
546.91        24.27201
547.35        24.50709
547.79        24.72683
548.22        24.89718
548.66        25.09976
549.10        25.33345
549.53        25.46993
549.97        25.48145
550.41        25.84959
550.84        25.80495
551.28        25.92867
551.72        25.98775
552.15        26.20625
552.59        26.25934
553.03         26.4106
553.46        26.56322
553.90         26.7107
554.34        26.84395
554.77        26.99247
555.21        27.15087
555.65        27.23829
556.08        27.27629
556.52        27.39677
556.96        27.58461
557.39        27.75193
557.83        27.88449
558.27          27.967
558.70        28.02657
559.14        28.14106
559.57        28.29146
560.01        28.43623
560.45        28.54366
560.88        28.48573
561.32        28.44274
561.75        28.43233
562.19        28.51495
562.63        28.58446
563.06        28.63878
563.50        28.76085
563.93        28.91192
564.37        29.01824
564.80        29.06201
565.24        29.07295
565.68        29.08182
566.11        29.15612
566.55        29.30727
566.98        29.46824
567.42         29.6461
567.85         29.7958
568.29        29.90824
568.72        30.08368
569.16        30.38046
569.60        30.20787
570.03        30.49912
570.47         30.6645
570.90        30.86651
571.34        30.77251
571.77        31.03534
572.21        31.07824
572.64        31.09681
573.08        31.21846
573.51        31.50311
573.95        31.33797
574.38         31.9055
574.82        31.68738
575.25        31.74248
575.69        31.64194
576.12        31.60668
576.56        31.93481
576.99         31.8109
577.42        31.87354
577.86        31.62298
578.29         31.4831
578.73        31.43519
579.16        31.53188
579.60        31.67647
580.03        31.53833
580.47        31.59684
580.90         31.4197
581.33        31.14618
581.77        31.29568
582.20        30.93306
582.64        30.75164
583.07        30.55893
583.51        30.47797
583.94        30.61803
584.37        30.54933
584.81        30.31434
585.24        30.35727
585.68        30.44976
586.11        30.45114
586.54         29.9181
586.98         29.9286
587.41         30.2681
587.85         30.1343
588.28        29.89145
588.71        30.18481
589.15        29.93524
589.58        29.95258
590.01        29.91726
590.45        29.89203
590.88        29.92612
591.31        30.08904
591.75        30.27975
592.18        30.31733
592.61         30.2648
593.05        29.75113
593.48        30.13475
593.91        30.18816
594.35        30.13851
594.78        30.28535
595.21        30.54996
595.65        30.57984
596.08        30.45305
596.51        30.65401
596.94        31.35636
597.38        31.68233
597.81        31.60845
598.24         31.8548
598.68        31.89887
599.11        32.09552
599.54        32.56781
599.97        32.85315
600.41        32.82924
600.84        33.18134
601.27        33.50216
601.70        33.89434
602.14        34.29054
602.57        34.60986
603.00         34.8588
603.43        35.18252
603.87        35.52462
604.30        35.90793
604.73         36.3086
605.16        36.78867
605.60        37.30462
606.03        37.64026
606.46        37.75345
606.89         38.3716
607.32        38.64058
607.76        39.08591
608.19        39.45899
608.62        39.61496
609.05        39.98286
609.48        40.59285
609.92        40.55177
610.35         41.3159
610.78        41.34291
611.21        41.30323
611.64        41.77792
612.07         42.0694
612.50        42.32645
612.94        42.66174
613.37        43.10085
613.80        43.20927
614.23        43.70044
614.66        43.95471
615.09        44.18038
615.52        44.39366
615.96        44.59534
616.39        44.75108
616.82        44.73866
617.25        45.05442
617.68        45.13687
618.11        45.41839
618.54        45.70775
618.97        45.94665
619.40        46.14936
619.84         46.3724
620.27        46.63693
620.70        46.93986
621.13        47.20491
621.56        47.14731
621.99        47.13494
622.42        46.82502
622.85         47.2288
623.28        47.23642
623.71        47.67574
624.14        46.64566
624.57        47.33891
625.00        47.25283
625.43        47.25632
625.86        47.20943
626.29        47.13397
626.72        47.09272
627.15        47.02924
627.58        46.99544
628.01        46.93774
628.44        46.68953
628.87        46.30202
629.30        46.07625
629.73        46.01782
630.16        45.85339
630.59        45.56744
631.02        45.43008
631.45        45.21206
631.88          44.957
632.31        44.59248
632.74         44.1599
633.17        43.69053
633.60        43.24286
634.03        42.83777
634.46        42.45262
634.89        42.08087
635.32        41.71648
635.75        41.35355
636.18        40.99561
636.61        40.63626
637.04         40.2688
637.47        39.90198
637.89         39.5121
638.32        39.09581
638.75        38.76878
639.18        38.55864
639.61        38.06287
640.04        37.96605
640.47        37.70406
640.90        37.47687
641.33        37.27741
641.76         37.1027
642.18        36.93787
642.61         36.7667
643.04        36.60328
643.47        36.47785
643.90        36.42683
644.33        36.45098
644.76        36.58228
645.18        36.76217
645.61        36.79448
646.04        36.63038
646.47        36.71708
646.90        37.00345
647.33        37.15458
647.75        37.15855
648.18        37.23025
648.61        37.40482
649.04        37.65393
649.47        37.99251
649.89        38.41036
650.32        38.87376
650.75        39.41563
651.18        39.97742
651.61        40.38634
652.03        40.67907
652.46        41.10874
652.89        41.65281
653.32        42.02608
653.74        42.27589
654.17        42.62943
654.60        43.00088
655.03         43.9439
655.46        43.59042
655.88        44.53172
656.31        46.03746
656.74        45.56885
657.16        45.05289
657.59        44.84724
658.02        45.53551
658.45        46.85892
658.87        47.18171
659.30        47.36227
659.73        48.02277
660.15        48.89991
660.58        48.64754
661.01        48.84729
661.44        49.08836
661.86        49.08695
662.29        48.95856
662.72        49.28168
663.14        49.98931
663.57         50.2472
664.00        50.09451
664.42        50.20525
664.85        50.61531
665.27         50.9455
665.70        51.16527
666.13        51.31889
666.55        51.60498
666.98        51.82405
667.41        52.03096
667.83        52.20766
668.26        52.34727
668.69        52.45993
669.11        52.57391
669.54        52.72987
669.96         52.9319
670.39         53.2001
670.82        53.47771
671.24        53.59177
671.67         53.5584
672.09        53.60309
672.52         53.7557
672.94        53.94054
673.37         53.7511
673.80        54.23811
674.22        54.20031
674.65         54.4954
675.07        54.79813
675.50        55.12966
675.92        55.44313
676.35        55.65254
676.77        55.75007
677.20        55.75925
677.62        55.75516
678.05        55.78829
678.47        55.86777
678.90          56.265
679.32        56.40147
679.75        56.57965
680.17        56.61865
680.60        56.57484
681.02        56.51528
681.45        56.54423
681.87         56.6928
682.30        56.95189
682.72        57.27062
683.15        57.41129
683.57        57.41952
684.00        57.60155
684.42        57.92006
684.85         58.1156
685.27        58.18339
685.70        58.14941
686.12        58.10846
686.54        58.48711
686.97        59.14242
687.39        59.38167
687.82        59.16703
688.24        59.11676
688.66        59.24079
689.09        59.17877
689.51        58.96814
689.94        58.87116
690.36        58.91549
690.78        59.01373
691.21        59.16319
691.63        59.40213
692.06        59.69059
692.48        59.94588
692.90        60.12938
693.33        60.25286
693.75        60.30984
694.17        60.25719
694.60        60.16771
695.02        60.17626
695.44        60.30223
695.87        60.59063
696.29        60.95428
696.71        60.98282
697.14        60.82084
697.56        60.85041
697.98        61.10619
698.41        61.24303
698.83        61.24031
699.25        61.35137
699.68        61.56524
700.10        61.66452
700.52        61.59169
700.94        61.96675
701.37        61.77927
701.79        61.83406
702.21        61.83247
702.64        61.81126
703.06        61.79452
703.48        61.85238
703.90        62.00683
704.33        62.23742
704.75        62.48198
705.17        62.69725
705.59        62.83997
706.01        62.92752
706.44        62.97214
706.86        63.00554
707.28         63.0378
707.70        63.04937
708.12        63.06585
708.55        63.14204
708.97        63.27129
709.39        63.38418
709.81         63.4735
710.23         63.5997
710.66        63.75102
711.08        63.89406
711.50        64.02032
711.92        64.17167
712.34        64.34926
712.76         64.5385
713.19         64.6908
713.61        64.76948
714.03        64.75011
714.45         64.6582
714.87        64.55866
715.29        64.54768
715.71        64.64564
716.13        64.82508
716.56        65.01515
716.98         65.1718
717.40        65.24098
717.82        65.24747
718.24        65.21957
718.66        65.20432
719.08        65.21729
719.50        65.23883
719.92        65.26632
720.34        65.29577
720.76        65.32119
721.19        65.35349
721.61        65.41432
722.03        65.39788
722.45        65.27983
722.87        65.28139
723.29        65.49279
723.71        64.95316
724.13        65.42975
724.55        65.49732
724.97        65.63113
725.39         65.7065
725.81        65.71932
726.23        65.68007
726.65        65.62134
727.07        65.64699
727.49        65.76949
727.91        65.94574
728.33        66.14314
728.75         66.3065
729.17         66.4112
729.59        66.48443
730.01        66.49899
730.43        66.40662
730.85        66.22563
731.27        65.98964
731.69        65.80125
732.10        65.82283
732.52        66.07729
732.94        66.50777
733.36        67.01468
733.78        67.39982
734.20        67.58073
734.62        67.66515
735.04        67.66125
735.46        67.55065
735.88         67.1254
736.30         67.2935
736.72        67.81634
737.13        67.95833
737.55        67.61208
737.97        67.14474
738.39        66.76113
738.81        66.64924
739.23        66.86623
739.65         67.3329
740.06        67.81931
740.48        68.06494
740.90        67.99398
741.32        67.68182
741.74        67.29918
742.16        67.15948
742.57        67.35297
742.99        67.72008
743.41        68.14531
743.83        68.51864
744.25        68.74403
744.67        68.70723
745.08        68.48444
745.50        68.34653
745.92        68.35069
746.34        68.34525
746.75        68.34407
747.17        68.41998
747.59        68.56588
748.01        68.79695
748.42        69.04134
748.84        69.08849
749.26        68.95592
749.68        68.80415
750.09        68.68246
750.51        68.64933
750.93        68.68267
751.35        68.67188
751.76        68.63468
752.18        68.67947
752.60        68.80009
753.01        68.95718
753.43        69.12416
753.85        69.13173
754.27        69.29579
754.68        69.38722
755.10        69.47958
755.52        69.54073
755.93        69.54752
756.35        69.46554
756.77         69.3969
757.18        69.48402
757.60        69.74413
758.02         70.3403
758.43        70.87411
758.85        70.81589
759.26        69.02467
759.68        68.73058
760.10        69.49867
760.51        69.91625
760.93        69.88676
761.34        69.69952
761.76        70.67102
762.18        70.60765
762.59         70.0677
763.01        69.30388
763.42        69.41175
763.84        69.26984
764.26         69.1902
764.67        69.37725
765.09        69.77805
765.50        70.16124
765.92        70.45178
766.33         70.6071
766.75        70.55981
767.16        70.56019
767.58        70.59233
768.00        70.40999
768.41        70.11724
768.83        70.25307
769.24        70.66897
769.66        70.64132
770.07        70.21581
770.49        69.96085
770.90        69.99181
771.32        70.32687
771.73         70.8539
772.15        71.08297
772.56        70.96265
772.97        71.01071
773.39        70.81525
773.80        70.88956
774.22        71.08153
774.63        71.42105
775.05        71.73769
775.46          71.856
775.88        71.70574
776.29        71.38137
776.70        71.00168
777.12        70.78507
777.53        70.79328
777.95        70.93501
778.36        71.15435
778.77        71.34165
779.19        71.46352
779.60        71.61832
780.02        71.73221
780.43        71.78316
780.84        71.80154
781.26        71.57934
781.67        71.30781
782.09         71.8963
782.50        73.04324
782.91        73.12381
783.33        72.20369
783.74        71.81237
784.15        72.01022
784.57        71.95802
784.98        71.68416
785.39        71.51282
785.81        71.44147
786.22        71.97826
786.63        72.01608
787.04        72.41393
787.46        72.81631
787.87        73.23287
788.28        73.60032
788.70        73.82502
789.11        73.89231
789.52        73.84185
789.93        73.71303
790.35         73.5667
790.76        73.44151
791.17        73.32264
791.58        73.26996
792.00         73.2904
792.41        73.38842
792.82        73.73946
793.23        74.21093
793.65        74.08395
794.06         73.5583
794.47        73.78016
794.88        74.55798
795.29        74.71058
795.71        74.16417
796.12        73.59806
796.53         73.2178
796.94        73.09853
797.35        73.32599
797.76        73.88371
798.18        74.54201
798.59        74.96669
799.00        75.04057
799.41        74.85271
799.82        74.54742
800.23        74.38415
800.64        74.44142
801.06        74.60294
801.47        74.83266
801.88         74.9982
802.29        75.04835
802.70        75.01974
803.11        74.93584
803.52        74.82539
803.93         74.7214
804.34        74.62847
804.75        74.53188
805.17        74.47905
805.58        74.52081
805.99        74.41727
806.40        74.26867
806.81        74.76422
807.22        75.66208
807.63        75.69128
808.04         74.9605
808.45        74.78063
808.86        75.24924
809.27        75.61863
809.68        75.74546
810.09        75.76512
810.50        75.64547
810.91        75.34766
811.32        75.03012
811.73        74.94506
812.14        75.14474
812.55        75.57791
812.96        76.05572
813.37        76.21939
813.78        75.98589
814.19        75.49402
814.60        74.95914
815.01        74.68311
815.42        74.73612
815.83        75.01918
816.24        75.43433
816.65        75.78495
817.05        75.97389
817.46        76.02001
817.87        75.95979
818.28        75.78911
818.69        75.53273
819.10        75.18903
819.51        74.83783
819.92        74.64318
820.33        74.65363
820.74        74.82222
821.14        75.08891
821.55         75.3544
821.96        75.57214
822.37        75.78135
822.78        75.92307
823.19        75.90042
823.60        75.70029
824.00        75.32754
824.41        74.93698
824.82         74.8128
825.23        75.00558
825.64        75.46304
826.04        75.96723
826.45         76.0416
826.86        75.61223
827.27        74.82919
827.68         74.0161
828.08        73.70628
828.49         73.9876
828.90        74.74284
829.31         75.7197
829.72        76.47491
830.12        76.87992
830.53        76.96193
830.94        76.91696
831.35        77.03842
831.75        77.42047
832.16        77.87059
832.57         78.2306
832.97        78.21342
833.38        77.77296
833.79        77.10061
834.20        76.36166
834.60        75.75179
835.01        75.38022
835.42        75.16617
835.82        75.20509
836.23        75.58064
836.64        76.28676
837.04        77.31232
837.45        78.29656
837.86         78.7935
838.26        78.67283
838.67        78.04798
839.08        77.19892
839.48        76.56273
839.89        76.31255
840.29        76.33051
840.70        76.50064
841.11        76.64129
841.51        76.71788
841.92        76.77227
842.33        76.86531
842.73        77.06487
843.14        77.32495
843.54        77.62075
843.95        77.90398
844.35         78.1814
844.76        78.40549
845.17        78.55312
845.57        78.60029
845.98        78.47533
846.38        78.20229
846.79        77.82404
847.19        77.36403
847.60        76.81227
848.00        76.23967
848.41        75.68094
848.81        75.31858
849.22        75.41016
849.62         76.0107
850.03        76.98298
850.43        78.10893
850.84        78.77822
851.24        78.86688
851.65        78.42015
852.05        77.70053
852.46        77.11483
852.86          76.795
853.27        76.70423
853.67        76.64745
854.07        76.54944
854.48         76.3301
854.88        76.06923
855.29        75.78483
855.69        75.72768
856.10        75.84799
856.50        76.15902
856.90        76.44262
857.31        76.43009
857.71        76.11993
858.12        75.56534
858.52        74.97843
858.92        74.65338
859.33         74.6607
859.73        74.96093
860.13         75.4178
860.54        75.81685
860.94        76.12877
861.34        76.33141
861.75        76.40059
862.15        76.35668
862.55        76.18141
862.96        75.90178
863.36        75.49047
863.76        74.93575
864.17        74.30088
864.57        73.64365
864.97        73.12971
865.38        72.95373
865.78        73.17952
866.18        73.72855
866.58        74.47817
866.99        75.13734
867.39        75.61528
867.79         75.9193
868.19        76.01073
868.60        75.84731
869.00         75.4696
869.40        74.89735
869.80        74.36196
870.21        74.26004
870.61        74.71738
871.01         75.5694
871.41        76.51003
871.81        77.04322
872.22         77.0209
872.62        76.58105
873.02        75.89729
873.42        75.27348
873.82        74.85125
874.22        74.59676
874.63        74.44815
875.03        74.30801
875.43        74.15703
875.83        74.02235
876.23        74.06808
876.63        74.54405
877.03         75.4381
877.44        76.58317
877.84        77.64664
878.24         77.9945
878.64        77.52426
879.04        76.49916
879.44        75.30362
879.84        74.50652
880.24        74.25284
880.64        74.34016
881.04        74.72213
881.44        75.30664
881.84        76.00592
882.24        76.89053
882.65        77.61378
883.05        77.70972
883.45        77.05877
883.85        75.83988
884.25        74.62628
884.65        74.30404
885.05        75.02467
885.45        76.47591
885.85        78.17845
886.25        79.29147
886.65        79.51434
887.05        79.11873
887.45        78.22359
887.85        77.06171
888.25        75.86538
888.65        74.64082
889.04        73.65443
889.44        73.34531
889.84        73.69135
890.24        74.61536
890.64        75.82574
891.04        76.65115
891.44        76.83033
891.84        76.55473
892.24        76.05724
892.64        75.68442
893.04        75.53828
893.44        75.49091
893.83        75.61108
894.23        75.94564
894.63        76.49255
895.03        77.24003
895.43        77.97094
895.83        78.34206
896.23        78.28114
896.63        77.84235
897.02        77.25883
897.42        76.99269
897.82        77.14127
898.22        77.62659
898.62        78.14154
899.01        78.18082
899.41        77.63514
899.81        76.68046
900.21        75.75995
900.61        75.54498
901.00        76.15089
901.40        77.35504
901.80        78.62273
902.20        79.08113
902.59        78.51791
902.99        77.21695
903.39        75.71687
903.79        74.82458
904.18        74.74113
904.58        75.25611
904.98        75.97346
905.38        76.28558
905.77        76.01833
906.17        75.36997
906.57        74.68578
906.96        74.52805
907.36        74.98347
907.76        75.88319
908.15        76.81702
908.55        76.99037
908.95         76.3014
909.34        75.01514
909.74         73.7393
910.14        73.25863
910.53        73.79149
910.93        75.03864
911.33         76.6391
911.72        78.03293
912.12         78.9129
912.52        79.42329
912.91        79.67869
913.31        79.85579
913.70        80.02563
914.10        80.08015
914.49        79.89371
914.89        79.28969
915.29        78.31457
915.68        77.11565
916.08        76.05031
916.47         75.5118
916.87        75.63459
917.26        76.24623
917.66        77.12952
918.05        77.94033
918.45        78.47476
918.84        78.85817
919.24        78.98241
919.64        78.84416
920.03        78.48705
920.42        77.88577
920.82        77.25029
921.21        76.81654
921.61         76.6563
922.00         76.7429
922.40        76.95881
922.79        77.16608
923.19        77.27734
923.58        77.36536
923.98        77.43034
924.37        77.48669
924.77        77.53624
925.16        77.55202
925.55        77.57713
925.95        77.69666
926.34          77.938
926.74         78.2691
927.13          78.575
927.52        78.63104
927.92        78.40916
928.31        77.95727
928.70        77.47461
929.10        77.27255
929.49        77.41843
929.89        77.78049
930.28        78.18002
930.67        78.21967
931.07        77.81293
931.46        77.14854
931.85        76.39414
932.24        75.78776
932.64        75.43513
933.03        75.28893
933.42        75.40193
933.82        75.84408
934.21        76.59484
934.60        77.53222
934.99        78.52737
935.39        79.34592
935.78        79.93949
936.17        80.32188
936.56        80.25375
936.96        79.43889
937.35         77.9615
937.74        76.03413
938.13        74.30046
938.53        73.55727
938.92        73.88597
939.31        75.14843
939.70        76.79353
940.09        77.72386
940.49        77.56335
940.88          76.604
941.27        75.45586
941.66        75.05199
942.05        75.60252
942.44        76.87577
942.84        78.24686
943.23        78.69025
943.62        77.88301
944.01         76.1825
944.40        74.47702
944.79        74.04916
945.18        75.14193
945.57        77.38422
945.97        79.78598
946.36        80.86945
946.75        80.10418
947.14        77.98341
947.53        75.54417
947.92        74.34516
948.31        74.77738
948.70         76.4221
949.09        78.42975
949.48        79.27586
949.87        78.52038
950.26        76.68796
950.65        74.71112
951.04        73.86248
951.43        74.41217
951.82        75.99285
952.21        77.84019
952.60        78.57604
952.99        77.81255
953.38         76.0372
953.77        74.17473
954.16        73.43903
954.55        74.07437
954.94        75.80013
955.33        77.87016
955.72        78.68896
956.11        77.72147
956.50         75.5464
956.89         73.2672
957.28        72.30426
957.66        72.97407
958.05        74.77968
958.44        77.00488
958.83        78.18686
959.22        77.82609
959.61        76.48173
960.00        74.86559
960.39        73.86254
960.78        73.65146
961.16        73.93184
961.55        74.45631
961.94        74.87042
962.33        74.99304
962.72        75.05142
963.11        74.96777
963.49        74.57551
963.88        73.91311
964.27        72.98252
964.66        72.19268
965.04        72.35017
965.43        73.52647
965.82        75.49767
966.21        77.63943
966.60        78.78616
966.98        78.62241
967.37        77.60754
967.76        76.18293
968.15        74.93852
968.53        74.03818
968.92        73.18639
969.31        72.66763
969.69        73.05419
970.08        74.35365
970.47         76.6149
970.86         78.7969
971.24        79.05737
971.63        77.06011
972.02        73.47243
972.40        69.92451
972.79        68.91824
973.17        70.86839
973.56        74.85102
973.95         79.5395
974.33        82.43096
974.72        82.58091
975.11        80.82001
975.49        78.10036
975.88        76.19424
976.26        75.62631
976.65         75.7705
977.04        76.37875
977.42        77.03478
977.81        77.37705
978.19        77.75671
978.58        78.04649
978.96        77.85376
979.35        77.21096
979.74        76.17668
980.12        75.22127
980.51        75.15859
980.89        76.23792
981.28        78.04727
981.66        80.25727
982.05        81.99244
982.43        83.04378
982.82        83.55372
983.20        83.42171
983.59        82.41357
983.97        80.68729
984.35        78.34985
984.74        76.26878
985.12        75.60457
985.51        76.47528
985.89        78.71152
986.28        81.20652
986.66        82.43237
987.04        81.77889
987.43        79.66544
987.81        77.02551
988.20        75.81151
988.58        76.48313
988.96        78.52888
989.35        80.58245
989.73        80.64815
990.12        78.25034
990.50        74.26196
990.88        69.99659
991.27        67.56159
991.65        67.49233
992.03        69.10733
992.42        71.74276
992.80        74.70083
993.18        77.51286
993.56        80.44701
993.95        82.91117
994.33        83.94936
994.71        83.25554
995.10        81.10835
995.48        78.53777
995.86        77.23578
996.24        77.59934
996.63        79.13773
997.01        81.36121
997.39        83.01453
997.77         83.5965
998.15        83.54133
998.54        82.96448
998.92        82.04122
999.30        80.92346
999.68        79.50983
1000.06        78.28313
1000.45        78.15891
1000.83        79.40371
1001.21        81.74996
1001.59        84.50819
1001.97        86.47901
1002.35        87.28246
1002.73        87.22253
1003.12        86.55676
1003.50        85.66245
1003.88        84.80206
1004.26        83.88617
1004.64        83.15755
1005.02        83.05872
1005.40        83.61095
1005.78        84.62571
1006.16        85.77892
1006.54        86.58872
1006.92        86.91961
1007.30        86.89863
1007.69        86.36097
1008.07        85.25325
1008.45         83.5982
1008.83        81.47066
1009.21        79.44551
1009.59         78.4482
1009.97        78.66846
1010.35        79.84782
1010.73        81.40951
1011.11        82.33287
1011.49        82.30658
1011.86        81.70848
1012.24        80.56084
1012.62        79.13235
1013.00        77.54077
1013.38        75.59382
1013.76        73.71619
1014.14        72.86632
1014.52        73.34507
1014.90        75.01366
1015.28        76.90964
1015.66        77.43425
1016.04        76.24069
1016.41        73.80727
1016.79        71.07585
1017.17        70.01325
1017.55        71.07243
1017.93        73.29494
1018.31         75.8177
1018.69        78.12922
1019.06        80.46033
1019.44        83.10462
1019.82        86.37421
1020.20        89.70354
1020.58        91.90832
1020.95        92.38837
1021.33        91.45655
1021.71        89.56817
1022.09        86.77327
1022.46        82.75446
1022.84        77.73798
1023.22        73.03227
1023.60        70.37231
1023.97        69.82281
1024.35        71.04369
1024.73        73.56016
