SpectraSmart Spectrum 2.9.0.0
--------- Device Information -----------
Spectrum Name :  反射率_0
Saving Time :  2024/04/30 00:56:42
Spectro-Module Model Name : SE2030-DUVN
Spectro-Module Serial Number : OS361AC55029948
Wavelength Start : 200
Wavelength End : 1025
Wavelength Unit : Wavelength(nm)
Spectrum Unit : Reflectance(%)
-----------Spectrum Setting ------------
Integration Time : 20ms
Average : 10
Boxcar : 0
Background removal :  enabled
linearity correction :  enabled
SC :  disabled
Intensity correction :  disabled
DWT denoise :  enabled
savitzky-golay :  disabled
FFT :  disabled
Running average :  disabled
Kalman :  disabled
High pass :  disabled
---------------BEGIN--------------------
Wavelength(nm)             Reflectance(%)
200.29               0
200.75        34.56493
201.21         25.2098
201.67         13.3183
202.13        1.761383
202.58       -7.939654
203.04       -16.27185
203.50       -21.62685
203.96       -20.44122
204.42       -12.00185
204.88        2.569182
205.34        17.94808
205.80        25.35467
206.26        24.59224
206.72        20.47066
207.18        15.64409
207.64        11.77373
208.10        8.830725
208.55        5.531404
209.01        3.762885
209.47        7.654556
209.93        16.33763
210.39         27.1081
210.85        35.33165
211.31         37.2734
211.77         32.7965
212.23        21.10617
212.69        4.324872
213.14       -3.340495
213.60        5.126149
214.06        21.58156
214.52        35.55883
214.98        40.24503
215.44        36.85815
215.90        28.25409
216.36        17.66673
216.81        11.22276
217.27        12.24438
217.73        19.85231
218.19        33.70264
218.65        47.08603
219.11        53.20771
219.57        53.38385
220.02        50.91602
220.48        49.25638
220.94        48.53941
221.40        47.31083
221.86        45.09006
222.32        42.14913
222.77         39.5246
223.23         38.6005
223.69        37.89348
224.15        35.83178
224.61        32.34707
225.06        27.43105
225.52        23.30807
225.98          24.422
226.44         30.5121
226.90        38.18209
227.36        44.30453
227.81        47.06723
228.27        47.03876
228.73        45.06588
229.19         42.2928
229.65         41.0995
230.10        42.04839
230.56        43.98542
231.02        45.77328
231.48        46.50801
231.93        46.12531
232.39        45.07503
232.85        43.74172
233.31        42.85791
233.77        42.67118
234.22        43.05191
234.68        43.41365
235.14        42.78924
235.60        41.07494
236.05        38.74225
236.51        36.73957
236.97        36.16524
237.43        37.26661
237.88        40.04535
238.34        43.96402
238.80        47.33277
239.26        48.65778
239.71         48.1608
240.17         46.3639
240.63        44.35895
241.08        42.28338
241.54        39.27668
242.00        35.01146
242.46        31.03166
242.91        30.22956
243.37        33.48925
243.83        38.43427
244.28        41.75422
244.74        42.74514
245.20        41.73819
245.66        39.46329
246.11        37.91114
246.57        38.33415
247.03        40.35182
247.48        42.01872
247.94        39.47164
248.40         34.0295
248.85        28.63023
249.31        25.58912
249.77        25.76518
250.22        29.03195
250.68        35.95197
251.14        47.16635
251.59        55.87918
252.05        55.27887
252.51        50.22876
252.96        45.24088
253.42        42.20014
253.88        40.42979
254.33        38.78654
254.79        38.41975
255.25        40.54824
255.70        44.07537
256.16        47.93033
256.62        50.62961
257.07        51.28525
257.53        50.64939
257.99        49.10599
258.44        47.34429
258.90         46.9299
259.35        47.47146
259.81         48.4857
260.27        49.20604
260.72        49.04039
261.18        48.23861
261.63        46.93239
262.09        45.56273
262.55        44.40466
263.00        43.49159
263.46        42.85544
263.91        42.21505
264.37        41.47495
264.83        40.56445
265.28        39.51684
265.74        38.62224
266.19        38.11024
266.65        38.05836
267.11        38.30014
267.56        38.57842
268.02        38.53264
268.47        38.06987
268.93        37.30667
269.38        36.38465
269.84        35.66695
270.30        35.23174
270.75         34.9581
271.21        34.70578
271.66        34.24971
272.12         33.5403
272.57        32.65256
273.03        31.69467
273.48        30.74733
273.94        29.93031
274.39        29.20758
274.85        28.62817
275.31         28.1942
275.76        27.86584
276.22        27.63057
276.67        27.44576
277.13        27.32946
277.58         27.2115
278.04        27.11179
278.49        26.88799
278.95         26.4255
279.40        25.70076
279.86        24.85016
280.31        24.00981
280.77        23.49088
281.22        23.30924
281.68        23.38133
282.13        23.57113
282.59          23.726
283.04         23.7701
283.50        23.73557
283.95        23.59785
284.41        23.32858
284.86        22.93633
285.32        22.47678
285.77        21.97252
286.22        21.52251
286.68         21.1682
287.13        20.86303
287.59        20.66129
288.04        20.58727
288.50        20.63653
288.95        20.75915
289.41        20.87094
289.86        20.81294
290.32        20.58389
290.77        20.24145
291.22        19.86778
291.68        19.59462
292.13        19.46513
292.59        19.46104
293.04        19.62452
293.50        20.03519
293.95        20.67703
294.40        21.52088
294.86        22.40233
295.31        23.07693
295.77        23.47987
296.22        23.65972
296.68        23.77533
297.13        24.06524
297.58        24.59531
298.04        25.26605
298.49         25.9481
298.95        26.43173
299.40        26.67262
299.85        26.75547
300.31        26.79336
300.76        26.90006
301.21        27.13649
301.67        27.46238
302.12        27.81218
302.58        28.22775
303.03        28.68637
303.48        29.04439
303.94          29.265
304.39        30.03148
304.84        30.09876
305.30        30.45499
305.75        30.72009
306.20        30.94699
306.66        31.14197
307.11        31.30232
307.57        31.43848
308.02        31.49516
308.47        31.48314
308.93        31.41844
309.38        31.33928
309.83        31.35153
310.29        31.46637
310.74        31.65024
311.19         31.7981
311.65        31.73969
312.10        31.44994
312.55        30.99364
313.00        30.51782
313.46        30.25107
313.91        30.23195
314.36        30.38922
314.82        30.59618
315.27        30.66555
315.72         30.5317
316.18        30.26504
316.63        29.91814
317.08        29.58578
317.53        29.31127
317.99        29.07186
318.44        28.87012
318.89         28.7187
319.35        28.61233
319.80        28.54932
320.25        28.52078
320.70        28.50508
321.16        28.47849
321.61        28.45298
322.06        28.38754
322.51        28.23166
322.97        27.98104
323.42        27.65602
323.87        27.31874
324.32        27.07246
324.78        26.93246
325.23        26.88712
325.68        26.86717
326.13        26.75582
326.59        26.51872
327.04        26.20254
327.49        25.86896
327.94        25.63005
328.39        25.50848
328.85        25.45237
329.30        25.41916
329.75        25.29655
330.20        25.05872
330.66        24.75338
331.11        24.42271
331.56        24.10699
332.01        23.83094
332.46        23.57612
332.92        23.38169
333.37        23.34317
333.82        23.45955
334.27        23.70176
334.72        23.95626
335.17        24.03066
335.63        23.87327
336.08        23.54326
336.53         23.1298
336.98        22.80824
337.43        22.64241
337.88        22.58398
338.34        22.60076
338.79         22.6594
339.24        22.72683
339.69        22.82203
340.14        22.90634
340.59        22.90944
341.05        22.82067
341.50        22.65068
341.95        22.45438
342.40        22.33218
342.85         22.3054
343.30        22.34052
343.75        22.38769
344.20        22.36685
344.66        22.26508
345.11        22.10526
345.56         21.9144
346.01        21.72937
346.46        21.57458
346.91          21.446
347.36        21.35437
347.81        21.31801
348.26        21.33132
348.72        21.37715
349.17        21.44071
349.62        21.49574
350.07        21.52522
350.52        21.53582
350.97        21.49491
351.42        21.35423
351.87         21.1215
352.32        20.82313
352.77        20.54175
353.22        20.41019
353.67        20.45746
354.13        20.63944
354.58        20.88011
355.03        21.05583
355.48        21.11863
355.93        21.09223
356.38        20.99785
356.83         20.8714
357.28        20.73062
357.73        20.57055
358.18        20.38677
358.63        20.17749
359.08        19.94994
359.53        19.71133
359.98        19.50387
360.43        19.38743
360.88        19.36563
361.33        19.41746
361.78        19.46629
362.23        19.39067
362.68        19.16929
363.13        18.84339
363.58        18.49499
364.03        18.25633
364.48        18.15986
364.93        18.16037
365.38        18.20522
365.83        18.20894
366.28        18.14342
366.73        18.04031
367.18         17.9082
367.63        17.75796
368.08        17.59976
368.53        17.42433
368.98        17.25913
369.43        17.15341
369.88        17.11413
370.33         17.1298
370.78        17.15522
371.23        17.11245
371.68        16.98283
372.13        16.78844
372.58         16.5718
373.03        16.40397
373.48        16.30142
373.93        16.23678
374.38        16.18409
374.83        16.10119
375.28        15.97849
375.72        15.83533
376.17        15.68714
376.62        15.52013
377.07        15.33751
377.52        15.13341
377.97        14.95609
378.42        14.88774
378.87        14.94004
379.32        15.09021
379.77        15.24523
380.22        15.26661
380.67        15.12771
381.11        14.85979
381.56        14.57325
382.01        14.44942
382.46        14.52872
382.91        14.75721
383.36        14.99778
383.81        15.04227
384.26         14.8539
384.71         14.5015
385.15         14.1266
385.60         13.9738
386.05        14.07775
386.50         14.3486
386.95        14.64227
387.40        14.73569
387.85        14.58478
388.29        14.27409
388.74        13.92746
389.19        13.65924
389.64        13.50418
390.09        13.41514
390.54        13.39215
390.98        13.43731
391.43        13.53709
391.88        13.68738
392.33        13.82526
392.78        13.87315
393.23        13.82348
393.67        13.66403
394.12        13.47166
394.57        13.44927
395.02         13.4202
395.47        13.51307
395.91        13.61382
396.36        13.61795
396.81        13.50925
397.26        13.32955
397.71        13.14647
398.15        13.04922
398.60        13.07259
399.05        13.15189
399.50        13.23689
399.95        13.31664
400.39         13.3062
400.84         13.2222
401.29        13.08551
401.74        13.01395
402.18        13.03186
402.63         13.0789
403.08        13.13589
403.53        13.18514
403.97        13.21583
404.42         13.2369
404.87        13.23753
405.32        13.19905
405.76        13.11793
406.21        13.00182
406.66        12.88557
407.11        12.82797
407.55          12.845
408.00        12.92431
408.45        13.01135
408.90        13.00448
409.34        12.88228
409.79         12.6777
410.24        12.48575
410.68        12.44947
411.13        12.59575
411.58        12.87971
412.03        13.19042
412.47        13.33656
412.92        13.25891
413.37        13.03023
413.81        12.75752
414.26         12.6233
414.71        12.65577
415.15        12.79901
415.60        12.97904
416.05        13.08929
416.49        13.09472
416.94         13.0432
417.39        12.95203
417.83        12.84228
418.28        12.73617
418.73        12.61545
419.17        12.53026
419.62         12.5635
420.07         12.7187
420.51        12.96921
420.96        13.21712
421.41        13.29896
421.85        13.18498
422.30        12.94656
422.74        12.68243
423.19         12.5603
423.64        12.60993
424.08        12.78669
424.53        13.01404
424.98        13.18086
425.42        13.24522
425.87        13.22953
426.31        13.16142
426.76        13.10583
427.21         13.0389
427.65         12.9684
428.10        12.89034
428.54         12.7825
428.99        12.66301
429.44        12.63052
429.88        12.66291
430.33        12.56065
430.77        12.40541
431.22        12.59103
431.66        13.05882
432.11        13.29604
432.56        13.21995
433.00        13.13798
433.45        13.06483
433.89        12.74958
434.34        12.36754
434.78        12.39041
435.23        12.74121
435.67        12.89659
436.12        12.81921
436.57        12.80328
437.01        12.87181
437.46        12.92661
437.90         12.9649
438.35        13.00492
438.79        13.03189
439.24        13.00187
439.68        12.93323
440.13        12.89228
440.57        12.86773
441.02        12.84732
441.46        12.83485
441.91        12.74408
442.35        12.62333
442.80        12.81508
443.24        13.19876
443.69        13.14184
444.13        12.70665
444.58        12.53014
445.02        12.62096
445.47         12.6465
445.91        12.58699
446.36        12.57699
446.80         12.6106
447.24         12.6589
447.69        12.71463
448.13        12.76662
448.58        12.81061
449.02        12.84705
449.47        12.88453
449.91        12.92939
450.36        12.98248
450.80        13.03873
451.25         13.0818
451.69        13.08581
452.13        13.04562
452.58        12.97739
453.02        12.89962
453.47        12.84127
453.91        12.80773
454.36        12.82949
454.80        12.83078
455.24        12.83666
455.69        12.82549
456.13        12.80233
456.58        12.78385
457.02        12.78201
457.46        12.80335
457.91         12.8412
458.35        12.88069
458.79        12.90525
459.24        12.92043
459.68        12.93657
460.13        12.96949
460.57        12.98275
461.01        13.07796
461.46        13.11609
461.90        13.13692
462.34        13.27861
462.79        13.47584
463.23        13.44512
463.68        13.22093
464.12        13.10469
464.56        13.11519
465.01        13.11174
465.45        13.07331
465.89        13.02601
466.34        12.99077
466.78         13.0231
467.22         13.1397
467.67        13.15604
468.11         13.0735
468.55        12.95946
468.99        12.85978
469.44        12.81187
469.88        12.82804
470.32        12.90392
470.77        12.99444
471.21        13.03987
471.65        13.01971
472.10        12.95888
472.54        12.89654
472.98        12.90879
473.42        13.00672
473.87         13.1588
474.31        13.31242
474.75         13.3892
475.20        13.37657
475.64         13.2999
476.08        13.19854
476.52        13.12993
476.97        13.11232
477.41        13.12389
477.85        13.16275
478.29        13.22352
478.74        13.30277
479.18        13.39746
479.62        13.47929
480.06        13.53583
480.50        13.56944
480.95        13.46031
481.39        13.45515
481.83        13.48969
482.27        13.64776
482.72        13.79367
483.16        14.05437
483.60        14.17446
484.04        14.18246
484.48        14.10473
484.93        14.02629
485.37        14.06961
485.81        14.17164
486.25        14.44358
486.69         13.9792
487.14        14.19572
487.58        14.69799
488.02        14.70745
488.46        14.87838
488.90        15.42905
489.34        14.49207
489.79        14.50239
490.23        14.80376
490.67        15.05285
491.11        15.14964
491.55        15.11328
491.99        15.02803
492.43        15.11261
492.88        15.38025
493.32        15.64212
493.76        15.84455
494.20        16.02644
494.64         16.1798
495.08        16.28594
495.52        16.34871
495.96        16.42516
496.41         16.5324
496.85        16.55626
497.29        16.53265
497.73        16.81547
498.17        17.13899
498.61        17.24002
499.05        17.07318
499.49        17.01581
499.93        17.10212
500.37        17.18159
500.82        17.24602
501.26        17.32449
501.70        17.41476
502.14        17.53201
502.58        17.67998
503.02        17.84135
503.46        18.01034
503.90        18.19263
504.34        18.36295
504.78        18.47819
505.22        18.52881
505.66        18.52031
506.10        18.48302
506.54        18.48937
506.98        18.55863
507.42        18.63823
507.86        18.68206
508.30        18.82507
508.74         18.7139
509.18        18.64949
509.62        18.58055
510.06        18.59458
510.50        18.70582
510.94        18.89032
511.38        19.10011
511.82        19.24554
512.26        19.30025
512.70        19.28882
513.14        19.24715
513.58         19.2323
514.02        19.26178
514.46        19.31783
514.90        19.38097
515.34        19.42138
515.78        19.43005
516.22        19.41819
516.66        19.40199
517.10         19.4039
517.54        19.42743
517.98        19.46255
518.42        19.48971
518.86        19.47903
519.30        19.42596
519.74        19.34462
520.18         19.2564
520.62        19.19214
521.06        19.16266
521.50        19.16188
521.93        19.18354
522.37        19.21041
522.81         19.2367
523.25        19.26206
523.69        19.28811
524.13        19.31834
524.57        19.34963
525.01        19.37591
525.45        19.38175
525.89        19.34534
526.32        19.26272
526.76        19.14918
527.20        19.02546
527.64        18.92393
528.08        18.85311
528.52        18.80499
528.96        18.76934
529.40        18.72796
529.83        18.67479
530.27        18.62023
530.71        18.56426
531.15        18.50859
531.59        18.45452
532.03        18.39813
532.46        18.34592
532.90        18.31528
533.34        18.30632
533.78        18.31636
534.22         18.3259
534.66        18.30448
535.09        18.24581
535.53        18.16417
535.97        18.08433
536.41        18.05205
536.85         18.0758
537.28        18.14003
537.72        18.21281
538.16        18.24606
538.60        18.22869
539.04        18.18066
539.47        18.12015
539.91        18.09264
540.35        18.10559
540.79        18.15161
541.22        18.22437
541.66         18.3175
542.10         18.4234
542.54        18.54362
542.97        18.67639
543.41        18.81861
543.85        18.96754
544.29        19.12546
544.72        19.27232
545.16        19.39353
545.60        19.48618
546.04        19.54668
546.47        19.61072
546.91        19.76579
547.35        20.00587
547.79        20.24474
548.22        20.43717
548.66        20.62431
549.10        20.80263
549.53        20.87724
549.97        20.84527
550.41        21.13129
550.84         21.1151
551.28        21.26226
551.72        21.37033
552.15        21.60564
552.59        21.69256
553.03        21.85143
553.46        22.00357
553.90        22.14515
554.34        22.26996
554.77        22.40228
555.21        22.53535
555.65        22.59873
556.08        22.61241
556.52        22.68937
556.96        22.82934
557.39        22.97766
557.83        23.12496
558.27        23.25242
558.70        23.36526
559.14        23.50008
559.57        23.63343
560.01        23.73725
560.45        23.80072
560.88        23.74076
561.32        23.71427
561.75        23.73138
562.19        23.82967
562.63        23.89996
563.06         23.9365
563.50        24.01387
563.93        24.12103
564.37        24.22836
564.80        24.32467
565.24         24.4235
565.68        24.51669
566.11        24.60896
566.55        24.70194
566.98         24.7576
567.42        24.82235
567.85        24.92199
568.29         25.0635
568.72        25.30321
569.16        25.65125
569.60         25.5823
570.03        25.87916
570.47        25.97249
570.90        26.09195
571.34        26.11412
571.77        26.29781
572.21        26.39845
572.64        26.46834
573.08        26.64921
573.51         26.9633
573.95        26.92312
574.38        27.00926
574.82        27.20263
575.25        27.17718
575.69        27.15676
576.12        27.00434
576.56        27.35356
576.99        27.23334
577.42        27.25589
577.86         27.1926
578.29        27.05487
578.73        26.91515
579.16        27.02617
579.60         27.0344
580.03        26.91922
580.47        26.98832
580.90        26.85107
581.33         26.6484
581.77        26.72139
582.20        26.60956
582.64        26.45421
583.07        26.20334
583.51        26.01685
583.94        26.03062
584.37        25.96556
584.81        25.83898
585.24        25.88527
585.68        25.92165
586.11        25.86516
586.54        25.47895
586.98        25.51535
587.41        25.81994
587.85        25.61018
588.28        25.27693
588.71        25.57234
589.15        25.29698
589.58        25.44354
590.01        25.45656
590.45        25.45095
590.88        25.42051
591.31        25.44661
591.75        25.49152
592.18        25.59195
592.61        25.75946
593.05        25.39286
593.48        25.41631
593.91         25.6787
594.35        25.46721
594.78        25.61557
595.21        25.83079
595.65        25.85389
596.08        25.64362
596.51        26.16647
596.94        26.53947
597.38        26.96176
597.81        27.11325
598.24        27.10362
598.68        27.14821
599.11        27.46169
599.54        28.10723
599.97        28.42258
600.41        28.18562
600.84        28.58369
601.27        28.99214
601.70        29.47316
602.14        30.03995
602.57        30.24416
603.00        30.22646
603.43         30.5395
603.87        31.10806
604.30         31.5652
604.73        31.89162
605.16        32.31602
605.60        32.81796
606.03        33.28939
606.46        33.66588
606.89        34.05747
607.32        34.48025
607.76         34.8584
608.19        35.19454
608.62        35.51244
609.05        35.86051
609.48        36.26915
609.92        36.67022
610.35        37.06852
610.78        37.34649
611.21        37.29066
611.64        37.73289
612.07        38.10912
612.50        38.22449
612.94        38.61189
613.37        39.21184
613.80        39.21913
614.23         39.9191
614.66         40.1953
615.09        40.43828
615.52        40.60259
615.96        40.70174
616.39        41.01757
616.82        40.90413
617.25        41.36365
617.68        41.43076
618.11        41.85529
618.54        42.31885
618.97        42.55877
619.40        42.60353
619.84        42.77601
620.27        43.13998
620.70        43.43492
621.13         43.5323
621.56        43.80472
621.99        43.58011
622.42          43.194
622.85        43.93541
623.28        43.91126
623.71        44.40284
624.14        43.46109
624.57        44.13615
625.00        44.03999
625.43        43.99981
625.86        43.78189
626.29        43.38821
626.72        43.68672
627.15        43.26808
627.58        43.30718
628.01        43.32003
628.44        43.08088
628.87        42.63685
629.30        42.41301
629.73        42.40859
630.16        42.21275
630.59        41.80098
631.02        41.51818
631.45        41.19047
631.88        40.81743
632.31        40.33055
632.74        40.04356
633.17        39.48438
633.60        39.05676
634.03        38.62706
634.46        38.19906
634.89        37.77368
635.32        37.36735
635.75        36.98381
636.18        36.60891
636.61        36.23919
637.04        35.87343
637.47        35.51674
637.89        35.14972
638.32        34.74861
638.75        34.38181
639.18        34.07091
639.61        33.47299
640.04        33.23181
640.47         32.9145
640.90        32.70984
641.33        32.59434
641.76        32.52264
642.18        32.40929
642.61        32.21981
643.04        31.98626
643.47        31.77397
643.90         31.6767
644.33        31.71188
644.76        31.89019
645.18        32.12737
645.61        32.19806
646.04        32.04831
646.47        32.08807
646.90        32.30818
647.33        32.48021
647.75        32.60285
648.18        32.81516
648.61        33.11172
649.04        33.45304
649.47        33.81253
649.89         34.1263
650.32        34.40829
650.75        34.77987
651.18        35.26034
651.61        35.80286
652.03         36.3956
652.46        37.00544
652.89        37.53076
653.32        37.94756
653.74        38.37715
654.17        38.41003
654.60        38.71542
655.03        40.14195
655.46        39.57182
655.88         40.8222
656.31        42.76296
656.74        42.50885
657.16        42.01999
657.59        41.33521
658.02        42.34254
658.45        43.47231
658.87        44.12319
659.30        44.05879
659.73        44.39642
660.15         45.4381
660.58        45.57987
661.01        45.88208
661.44        45.88501
661.86        45.96174
662.29        46.18855
662.72        46.66235
663.14        47.30283
663.57         47.5352
664.00        47.41576
664.42        47.53872
664.85        47.95129
665.27         48.2838
665.70        48.50191
666.13        48.75773
666.55        49.05484
666.98         49.3472
667.41        49.62822
667.83        49.88029
668.26        50.08773
668.69        50.25747
669.11        50.41283
669.54        50.57406
669.96        50.74547
670.39        50.98664
670.82        51.24709
671.24        51.29543
671.67        51.18953
672.09         51.3032
672.52        51.63977
672.94        51.95516
673.37        51.84213
673.80        52.38953
674.22          52.432
674.65        52.78332
675.07        53.11047
675.50        53.36255
675.92        53.52855
676.35        53.67474
676.77        53.82159
677.20        53.87486
677.62        53.89074
678.05        54.05138
678.47        54.33743
678.90         54.5752
679.32        54.71916
679.75        54.83552
680.17        54.90826
680.60        54.88684
681.02        54.82867
681.45        54.85812
681.87        55.00036
682.30        55.23621
682.72        55.52518
683.15        55.68047
683.57        55.73306
684.00        55.90701
684.42        56.17607
684.85        56.35479
685.27        56.43957
685.70        56.44759
686.12        56.45839
686.54        56.80529
686.97        57.38327
687.39        57.70434
687.82        57.69428
688.24        57.72075
688.66        57.78733
689.09        57.65886
689.51        57.40611
689.94        57.30689
690.36        57.40426
690.78        57.53465
691.21        57.68713
691.63        58.05556
692.06        58.51258
692.48        58.60334
692.90        58.37849
693.33        58.33213
693.75        58.49948
694.17        58.58183
694.60        58.59478
695.02        58.68282
695.44        58.83926
695.87        59.12406
696.29        59.45954
696.71        59.44363
697.14        59.17405
697.56        59.23643
697.98        59.60471
698.41        59.77065
698.83        59.71572
699.25         59.7469
699.68        59.86575
700.10        59.97296
700.52        60.05281
700.94        60.14289
701.37        60.22052
701.79        60.26498
702.21        60.26861
702.64        60.24858
703.06        60.23843
703.48        60.30343
703.90        60.45899
704.33        60.69413
704.75        60.94825
705.17         61.1825
705.59        61.35272
706.01        61.47127
706.44        61.54931
706.86        61.60958
707.28        61.65925
707.70        61.70203
708.12        61.74786
708.55        61.78676
708.97        61.82996
709.39        61.90657
709.81        62.02534
710.23        62.18041
710.66        62.35839
711.08        62.58315
711.50        62.81129
711.92         62.9565
712.34        62.99984
712.76        63.03674
713.19        63.10959
713.61        62.90778
714.03        63.16306
714.45         63.2176
714.87        63.24363
715.29         63.4602
715.71         63.3722
716.13        63.37988
716.56        63.34221
716.98        63.37895
717.40        63.47393
717.82         63.6074
718.24        63.74512
718.66        63.82036
719.08        63.82029
719.50        63.76748
719.92        63.69017
720.34        63.63819
720.76        63.62808
721.19        63.62332
721.61        63.63331
722.03        63.68206
722.45        63.74856
722.87        63.76221
723.29        63.72647
723.71        63.71327
724.13        63.72266
724.55        63.71476
724.97        63.72722
725.39        63.73554
725.81        63.72868
726.23        63.92931
726.65        64.33369
727.07        63.96304
727.49        64.19891
727.91        64.29123
728.33         64.6142
728.75        64.85768
729.17        64.98099
729.59        64.99973
730.01        64.88066
730.43        64.75992
730.85        64.69055
731.27        64.19197
731.69        64.11313
732.10        64.13126
732.52        64.51453
732.94        64.94694
733.36        65.25249
733.78        66.25889
734.20        65.98962
734.62         66.1374
735.04        66.17218
735.46        65.95773
735.88        65.64121
736.30         65.7561
736.72         66.2371
737.13        66.49702
737.55        66.37353
737.97        66.05035
738.39        65.65929
738.81        65.26595
739.23        65.04337
739.65        65.41066
740.06        66.12689
740.48        66.43076
740.90        66.23439
741.32        65.94118
741.74        65.69639
742.16        65.60104
742.57        65.72961
742.99        65.95029
743.41        66.21051
743.83        66.58755
744.25        66.96819
744.67        66.99651
745.08         66.7398
745.50        66.65556
745.92        66.78822
746.34        66.85433
746.75        66.87684
747.17        66.96774
747.59        67.11484
748.01        67.43292
748.42        67.78909
748.84        67.61617
749.26        67.05618
749.68         66.8793
750.09        67.09606
750.51        67.23621
750.93        67.22576
751.35        67.16633
751.76        67.10224
752.18        67.12948
752.60        67.24609
753.01        67.38391
753.43        67.51357
753.85        67.41992
754.27        67.47923
754.68        67.44363
755.10        67.49226
755.52         67.2617
755.93        67.55477
756.35        67.62698
756.77        67.77166
757.18        67.97135
757.60        68.22629
758.02        68.82335
758.43        69.42398
758.85        68.96235
759.26        67.82722
759.68        67.05402
760.10        67.96071
760.51         68.5376
760.93        68.42393
761.34        68.52766
761.76        68.62915
762.18         68.3903
762.59        67.93288
763.01        67.71516
763.42        67.77791
763.84         67.7476
764.26        67.65119
764.67          67.592
765.09        67.64649
765.50        68.08314
765.92        68.77193
766.33        68.92201
766.75        68.56784
767.16         68.6629
767.58        68.55099
768.00        68.45506
768.41        68.24474
768.83        68.35056
769.24        68.63189
769.66         68.6684
770.07        68.51926
770.49        68.08111
770.90        68.23907
771.32        68.59537
771.73        69.22841
772.15        69.42337
772.56        69.14005
772.97        69.02377
773.39        68.71974
773.80         68.7558
774.22        68.98952
774.63        69.41001
775.05        69.82757
775.46        70.05987
775.88        70.01853
776.29        69.78157
776.70         69.4441
777.12        69.20241
777.53         69.1132
777.95         69.0899
778.36        69.13651
778.77        69.20026
779.19        69.25769
779.60        69.52042
780.02        69.84301
780.43        69.73997
780.84        69.35229
781.26        69.29076
781.67        69.63789
782.09        70.30792
782.50        71.04717
782.91         71.1167
783.33        70.55205
783.74         70.2396
784.15        70.23203
784.57        69.97516
784.98        69.56475
785.39        69.39795
785.81        69.51144
786.22         69.9244
786.63         70.4869
787.04        70.70659
787.46        71.26354
787.87        71.54352
788.28        71.76786
788.70        71.88064
789.11         71.8811
789.52        71.84853
789.93        71.76424
790.35        71.48772
790.76        71.10971
791.17        70.94276
791.58        71.04105
792.00        71.13918
792.41        71.23052
792.82        71.62801
793.23        72.18847
793.65         72.1572
794.06        71.68913
794.47        71.80679
794.88        72.38506
795.29         72.4647
795.71        71.99364
796.12         71.5486
796.53        71.28534
796.94        71.22072
797.35        71.41683
797.76        71.89207
798.18        72.46069
798.59        72.83717
799.00          72.921
799.41        72.79408
799.82         72.5573
800.23        72.38958
800.64        72.35587
801.06        72.37579
801.47        72.45757
801.88        72.54321
802.29        72.60236
802.70        72.63934
803.11        72.66324
803.52        72.67886
803.93        72.70128
804.34        72.74544
804.75        72.74584
805.17        72.67585
805.58        72.58024
805.99        72.21484
806.40        71.78551
806.81         72.2106
807.22        73.25585
807.63        73.47289
808.04        72.88766
808.45        72.79112
808.86        73.24382
809.27        73.45782
809.68        73.37025
810.09        73.29916
810.50        73.25568
810.91        73.14334
811.32        73.03806
811.73        73.06474
812.14        73.23872
812.55         73.5463
812.96        73.86185
813.37        73.93722
813.78        73.72472
814.19        73.32706
814.60        72.89752
815.01        72.65106
815.42        72.63738
815.83        72.78134
816.24        73.03738
816.65        73.30838
817.05        73.52975
817.46        73.69025
817.87        73.75792
818.28        73.62859
818.69        73.30653
819.10        72.82366
819.51        72.32042
819.92        72.06803
820.33        72.15014
820.74        72.48413
821.14        72.95649
821.55        73.39218
821.96        73.71603
822.37        73.97628
822.78        74.13614
823.19        74.13682
823.60        73.97633
824.00        73.65477
824.41         73.2752
824.82        73.04449
825.23        73.00582
825.64        73.12653
826.04        73.30812
826.45        73.28372
826.86        73.02495
827.27        72.62483
827.68        72.22345
828.08        72.05804
828.49        72.14819
828.90        72.45515
829.31        72.91045
829.72        73.39518
830.12        73.87526
830.53        74.28654
830.94        74.65771
831.35         74.9977
831.75        75.31172
832.16        75.50161
832.57        75.52861
832.97        75.30625
833.38        74.85943
833.79        74.30874
834.20        73.75681
834.60        73.31817
835.01        73.06747
835.42        72.94376
835.82        73.05544
836.23        73.50219
836.64        74.27673
837.04        75.35611
837.45        76.33945
837.86         76.7175
838.26        76.36623
838.67        75.44521
839.08        74.32624
839.48        73.58031
839.89         73.4067
840.29        73.63762
840.70        74.09908
841.11        74.51186
841.51        74.79418
841.92        75.00598
842.33        75.17589
842.73        75.32539
843.14        75.41077
843.54        75.41827
843.95        75.37817
844.35        75.42582
844.76        75.55504
845.17        75.72844
845.57        75.86478
845.98        75.78894
846.38        75.49269
846.79        75.03986
847.19        74.51215
847.60         73.9994
848.00        73.58576
848.41        73.26619
848.81        73.12089
849.22          73.258
849.62        73.70375
850.03        74.36298
850.43        75.13848
850.84        75.65012
851.24        75.83793
851.65        75.68222
852.05        75.31001
852.46        74.89775
852.86        74.52273
853.27        74.23985
853.67        73.94804
854.07        73.67986
854.48        73.38391
854.88        73.08967
855.29        72.82584
855.69        72.85361
856.10        73.11666
856.50        73.62948
856.90         74.0999
857.31        74.13969
857.71        73.72893
858.12        72.94535
858.52        72.10369
858.92        71.68326
859.33        71.80598
859.73        72.38536
860.13        73.16879
860.54        73.74681
860.94        74.02721
861.34        74.02469
861.75        73.82722
862.15        73.65173
862.55        73.52625
862.96         73.4118
863.36        73.13606
863.76        72.46035
864.17        71.42595
864.57        70.20967
864.97        69.13163
865.38         68.6101
865.78        68.76583
866.18        69.44185
866.58        70.48787
866.99        71.53568
867.39        72.41487
867.79        73.15144
868.19          73.575
868.60         73.4651
869.00        72.84741
869.40        71.76136
869.80         70.6641
870.21        70.35254
870.61          71.049
871.01         72.4988
871.41        74.09975
871.81         74.8738
872.22        74.57153
872.62        73.47346
873.02        72.08238
873.42         71.2435
873.82         71.2169
874.22        71.77585
874.63        72.51793
875.03        72.82952
875.43        72.56953
875.83        71.93587
876.23        71.34589
876.63        71.47147
877.03        72.42757
877.44        73.89739
877.84        75.39057
878.24        76.02469
878.64        75.60783
879.04        74.49976
879.44        73.12697
879.84        72.09969
880.24        71.60317
880.64        71.43364
881.04        71.58672
881.44        72.05252
881.84        72.76521
882.24        73.76852
882.65        74.71968
883.05         75.1366
883.45        74.84956
883.85        74.00519
884.25        73.05786
884.65        72.72807
885.05        73.15765
885.45        74.10331
885.85        75.21903
886.25        75.90327
886.65        75.94317
887.05        75.54202
887.45         74.8078
887.85        73.93169
888.25         73.0795
888.65        72.24744
889.04        71.56539
889.44        71.28736
889.84        71.37477
890.24        71.78035
890.64        72.37141
891.04        72.82714
891.44         73.0194
891.84        73.05283
892.24        72.96831
892.64        72.84416
893.04         72.7288
893.44        72.56585
893.83        72.54842
894.23        72.93861
894.63        73.76707
895.03        74.91843
895.43        76.01305
895.83        76.47124
896.23        76.18298
896.63         75.3121
897.02        74.21692
897.42        73.56249
897.82        73.52188
898.22        73.94593
898.62         74.5445
899.01        74.83397
899.41        74.66279
899.81        74.18907
900.21        73.67952
900.61        73.53328
901.00        73.82353
901.40         74.4024
901.80        74.94998
902.20        74.96777
902.59        74.35619
902.99        73.30502
903.39        72.18206
903.79        71.52135
904.18        71.44976
904.58        71.83421
904.98         72.3989
905.38        72.72004
905.77        72.66173
906.17        72.35065
906.57        71.99413
906.96        71.95018
907.36        72.26269
907.76        72.82697
908.15        73.39348
908.55        73.43778
908.95        72.92599
909.34        72.04083
909.74        71.21712
910.14        70.97269
910.53         71.4653
910.93        72.48197
911.33        73.80609
911.72        75.10872
912.12        76.14648
912.52        76.98623
912.91        77.62421
913.31        78.04145
913.70        78.24086
914.10        78.17327
914.49        77.79602
914.89        77.05656
915.29        76.03642
915.68        74.84147
916.08        73.77473
916.47        73.15186
916.87         73.0911
917.26        73.45451
917.66        74.08468
918.05        74.72274
918.45        75.19841
918.84         75.6255
919.24        75.84624
919.64        75.76579
920.03        75.40328
920.42        74.75158
920.82        74.10231
921.21        73.81908
921.61        73.99081
922.00        74.54951
922.40        75.23553
922.79        75.67368
923.19        75.71436
923.58        75.48517
923.98         75.1675
924.37        75.06256
924.77        75.23161
925.16        75.56828
925.55        75.90902
925.95        76.00206
926.34        75.80305
926.74        75.39344
927.13        74.90095
927.52        74.48385
927.92        74.21135
928.31        74.02386
928.70        73.89582
929.10        73.77183
929.49        73.62711
929.89        73.45078
930.28        73.27512
930.67        73.06926
931.07        72.84105
931.46        72.63622
931.85        72.43264
932.24        72.19867
932.64        71.96801
933.03        71.78226
933.42         71.7656
933.82        72.10738
934.21        72.83283
934.60        73.77132
934.99        74.79691
935.39        75.69226
935.78        76.39878
936.17        76.94106
936.56        77.02892
936.96        76.26099
937.35        74.71275
937.74        72.64371
938.13        70.76096
938.53        69.95551
938.92        70.32236
939.31        71.66685
939.70          73.437
940.09        74.52461
940.49        74.52118
940.88        73.73345
941.27        72.65657
941.66        72.04825
942.05        72.11353
942.44        72.67245
942.84        73.34135
943.23        73.53808
943.62        73.06841
944.01        72.14319
944.40        71.35886
944.79        71.57194
945.18        72.90596
945.57        75.08413
945.97        77.25264
946.36        78.17738
946.75        77.41736
947.14        75.40118
947.53        73.04996
947.92        71.75324
948.31        71.87644
948.70        73.06379
949.09        74.65797
949.48        75.46071
949.87        75.08776
950.26        73.92369
950.65        72.61925
951.04        72.05261
951.43        72.42425
951.82        73.50108
952.21        74.69227
952.60        74.97183
952.99        74.08347
953.38          72.372
953.77        70.72054
954.16        70.29481
954.55        71.30813
954.94        73.55892
955.33        76.10278
955.72        76.90712
956.11         75.3532
956.50        72.16848
956.89        68.94479
957.28        67.75984
957.66        69.02258
958.05         72.0774
958.44        75.78098
958.83         77.7686
959.22        77.22514
959.61        75.01221
960.00        72.31068
960.39        70.60438
960.78        70.20553
961.16        70.64744
961.55        71.49697
961.94        72.03012
962.33        71.94299
962.72        71.60945
963.11        71.17256
963.49        70.75368
963.88        70.42169
964.27        70.05441
964.66        69.83064
965.04        70.16506
965.43        71.02731
965.82        72.34481
966.21         73.6949
966.60        74.28687
966.98        73.95038
967.37         72.9987
967.76        71.86537
968.15        71.13554
968.53        70.93725
968.92        71.03228
969.31        71.43916
969.69         72.2021
970.08        73.18178
970.47        74.49895
970.86        75.61452
971.24        75.61023
971.63        74.33255
972.02         72.1012
972.40        69.91162
972.79        69.36137
973.17         70.7009
973.56        73.33787
973.95        76.33141
974.33        77.87236
974.72        77.32274
975.11        75.32732
975.49        72.76377
975.88        71.27765
976.26        71.29771
976.65        72.27062
977.04         73.7848
977.42        75.08389
977.81        75.67749
978.19        75.91452
978.58         75.8213
978.96        75.31487
979.35        74.51979
979.74        73.43018
980.12        72.40813
980.51        72.07681
980.89        72.64873
981.28        73.81475
981.66        75.40275
982.05        76.78111
982.43          77.813
982.82        78.59106
983.20        78.87374
983.59        78.18175
983.97        76.57998
984.35        74.23216
984.74        72.09842
985.12        71.50135
985.51        72.57511
985.89        75.06296
986.28        77.78611
986.66        79.09703
987.04        78.36514
987.43         76.1096
987.81        73.25166
988.20         71.7266
988.58        72.02834
988.96        73.62892
989.35         75.4158
989.73        75.81255
990.12        74.35605
990.50        71.73613
990.88        68.75611
991.27        66.68103
991.65        65.89703
992.03        66.07167
992.42         66.9882
992.80         68.6403
993.18        70.78704
993.56        73.46553
993.95        76.17369
994.33        78.05155
994.71        78.65857
995.10        78.19337
995.48        77.07285
995.86         76.0861
996.24        75.49762
996.63        75.02598
997.01         74.8095
997.39        74.87733
997.77        75.15305
998.15        75.67522
998.54        76.07757
998.92        75.73576
999.30        74.53005
999.68        72.66772
1000.06        70.59088
1000.45        69.15025
1000.83        68.75145
1001.21        69.15672
1001.59        70.27669
1001.97        71.90363
1002.35        73.79968
1002.73         75.9444
1003.12         77.8154
1003.50        78.52943
1003.88        78.00114
1004.26         76.4978
1004.64         74.6401
1005.02        73.57002
1005.40        73.61446
1005.78         74.3749
1006.16        75.53711
1006.54         76.6665
1006.92        77.59301
1007.30         78.4916
1007.69        79.04657
1008.07        78.72356
1008.45        77.34041
1008.83         75.0327
1009.21        72.45908
1009.59        70.77545
1009.97        70.30376
1010.35        70.73333
1010.73        71.68631
1011.11        72.45568
1011.49        72.75192
1011.86        72.86739
1012.24        72.48954
1012.62        71.34199
1013.00        69.40842
1013.38        66.61768
1013.76        63.62514
1014.14        61.93455
1014.52        62.10139
1014.90        63.85064
1015.28        66.09232
1015.66        67.00027
1016.04        66.12819
1016.41        64.04578
1016.79        61.59708
1017.17        60.51407
1017.55         61.2599
1017.93        62.97695
1018.31        65.03296
1018.69         67.1356
1019.06        69.49569
1019.44        72.41015
1019.82        76.06461
1020.20        79.43944
1020.58        81.14078
1020.95        80.82256
1021.33        79.15967
1021.71        76.94667
1022.09        74.21542
1022.46        70.47202
1022.84        65.88536
1023.22        61.37236
1023.60        58.46227
1023.97        57.47927
1024.35        58.01657
1024.73        59.42514
