SpectraSmart Spectrum 2.9.0.0
--------- Device Information -----------
Spectrum Name :  反射率_0
Saving Time :  2024/04/30 01:10:54
Spectro-Module Model Name : SE2030-DUVN
Spectro-Module Serial Number : OS361AC55029948
Wavelength Start : 200
Wavelength End : 1025
Wavelength Unit : Wavelength(nm)
Spectrum Unit : Reflectance(%)
-----------Spectrum Setting ------------
Integration Time : 20ms
Average : 10
Boxcar : 0
Background removal :  enabled
linearity correction :  enabled
SC :  disabled
Intensity correction :  disabled
DWT denoise :  enabled
savitzky-golay :  disabled
FFT :  disabled
Running average :  disabled
Kalman :  disabled
High pass :  disabled
---------------BEGIN--------------------
Wavelength(nm)             Reflectance(%)
200.29               0
200.75         77.5135
201.21         67.4635
201.67        57.61775
202.13        52.05236
202.58        52.66236
203.04        58.92596
203.50        69.83135
203.96        82.52784
204.42        94.10867
204.88        103.5856
205.34        107.3839
205.80        102.4219
206.26        91.96136
206.72        80.27708
207.18        70.44991
207.64        63.71956
208.10        59.17271
208.55        55.64923
209.01        53.26384
209.47         53.3047
209.93        55.62868
210.39        59.50564
210.85        62.75832
211.31        63.55455
211.77        61.74974
212.23        56.81388
212.69        50.32071
213.14        49.90003
213.60        57.50937
214.06        68.59824
214.52        77.09444
214.98        79.29288
215.44        76.32358
215.90        69.79939
216.36        62.82841
216.81         61.5334
217.27        69.10514
217.73        86.03724
218.19        110.8942
218.65        130.2915
219.11        133.6315
219.57        124.8943
220.02        113.6459
220.48         107.729
220.94        106.5445
221.40        107.9773
221.86        109.6215
222.32        106.1641
222.77        97.67557
223.23        89.80484
223.69        84.53617
224.15        81.96641
224.61         81.3593
225.06        82.21944
225.52          84.231
225.98         86.2759
226.44        87.59742
226.90        88.18488
227.36        88.80781
227.81        90.31413
228.27        92.90344
228.73        96.21088
229.19         99.0463
229.65        98.92431
230.10        95.76515
230.56        91.69434
231.02        88.07684
231.48        86.00806
231.93        85.26099
232.39        85.33916
232.85        86.11263
233.31        87.51137
233.77        89.32858
234.22        91.81023
234.68        93.83099
235.14        93.51698
235.60        90.63867
236.05        85.78728
236.51        81.09895
236.97         79.2976
237.43        80.98018
237.88        86.25058
238.34        93.62749
238.80        98.60308
239.26        98.12466
239.71        93.34834
240.17        87.01184
240.63        83.07191
241.08        82.68579
241.54        85.22112
242.00        91.68104
242.46        100.8825
242.91        109.1369
243.37        114.2417
243.83        115.8829
244.28        115.8638
244.74        114.8164
245.20        111.0019
245.66        105.3234
246.11        101.1114
246.57         99.9573
247.03        102.6084
247.48         105.285
247.94        99.90067
248.40        88.68676
248.85        77.27573
249.31        70.24268
249.77        68.76885
250.22        72.38785
250.68        81.51186
251.14        96.69269
251.59        107.9191
252.05        105.7407
252.51        97.17335
252.96        89.46368
253.42         85.9142
253.88        85.03352
254.33        85.21732
254.79        85.87785
255.25        85.52835
255.70        83.89174
256.16        82.39951
256.62        81.29382
257.07        80.53692
257.53        80.43043
257.99        80.58543
258.44        80.35259
258.90        79.71442
259.35        78.39203
259.81        77.13914
260.27        76.19115
260.72        75.79956
261.18        76.07427
261.63        76.41233
262.09         76.6175
262.55        75.99968
263.00         74.5431
263.46        72.89433
263.91        71.17738
264.37        69.94242
264.83          69.111
265.28        68.45715
265.74        68.07156
266.19        67.80433
266.65        67.67889
267.11        67.62674
267.56        67.51689
268.02        67.20634
268.47        66.61143
268.93        65.78508
269.38        64.73926
269.84        63.63484
270.30        62.55403
270.75        61.50294
271.21        60.54607
271.66        59.67485
272.12        58.89485
272.57        58.15626
273.03        57.48481
273.48        56.80434
273.94        56.16262
274.39        55.49465
274.85        54.82257
275.31        54.04589
275.76        53.13065
276.22        52.16983
276.67        51.17857
277.13        50.33827
277.58        49.60877
278.04        49.02129
278.49        48.44158
278.95        47.82696
279.40        47.09531
279.86        46.35378
280.31        45.60593
280.77         45.0227
281.22        44.55932
281.68        44.21078
282.13        43.86121
282.59        43.44931
283.04        42.91224
283.50         42.2963
283.95        41.60601
284.41        40.90127
284.86        40.18851
285.32        39.51756
285.77        38.84868
286.22        38.21545
286.68        37.63986
287.13        37.08413
287.59        36.60796
288.04        36.22418
288.50        35.95174
288.95         35.7282
289.41        35.52206
289.86        35.22516
290.32        34.84522
290.77        34.40739
291.22        33.94028
291.68        33.49065
292.13        33.07729
292.59        32.72122
293.04        32.49426
293.50        32.53825
293.95        32.84477
294.40        33.37437
294.86        33.95511
295.31        34.33043
295.77        34.43929
296.22        34.34359
296.68        34.20784
297.13        34.27193
297.58        34.59996
298.04        35.08044
298.49        35.58969
298.95        35.93686
299.40        36.06702
299.85        36.05981
300.31        35.98237
300.76        35.86997
301.21        35.78559
301.67        35.72834
302.12        35.70804
302.58        35.88312
303.03        36.24768
303.48        36.63934
303.94        36.96456
304.39        37.72696
304.84        37.79206
305.30        38.06797
305.75        38.23927
306.20        38.40409
306.66        38.58104
307.11        38.73438
307.57        38.86328
308.02        38.88662
308.47        38.81708
308.93        38.69374
309.38        38.55103
309.83        38.49168
310.29        38.53681
310.74        38.65007
311.19        38.76915
311.65        38.78984
312.10        38.68303
312.55        38.48312
313.00        38.26087
313.46        38.12556
313.91        38.08877
314.36        38.11819
314.82        38.14324
315.27        38.07456
315.72         37.8779
316.18        37.59171
316.63        37.25849
317.08        36.95521
317.53        36.71236
317.99        36.52141
318.44        36.35152
318.89        36.15792
319.35        35.93124
319.80        35.68644
320.25        35.47671
320.70        35.38536
321.16        35.40969
321.61        35.53171
322.06        35.64839
322.51        35.60249
322.97        35.35504
323.42        34.95879
323.87         34.5082
324.32        34.16022
324.78        33.94817
325.23        33.84513
325.68        33.78144
326.13        33.64333
326.59        33.39498
327.04        33.09387
327.49         32.7879
327.94        32.56367
328.39        32.43773
328.85        32.35689
329.30        32.30262
329.75        32.19455
330.20        32.01195
330.66         31.7868
331.11        31.53434
331.56        31.24914
332.01        30.94507
332.46        30.61781
332.92        30.32509
333.37        30.20647
333.82        30.27544
334.27        30.49749
334.72        30.75424
335.17        30.84287
335.63        30.70421
336.08        30.40339
336.53        30.02979
336.98         29.7613
337.43        29.65579
337.88         29.6559
338.34        29.71124
338.79        29.76271
339.24         29.7765
339.69        29.78809
340.14        29.77835
340.59        29.70959
341.05         29.5864
341.50        29.41052
341.95        29.24701
342.40        29.21135
342.85        29.31624
343.30        29.51606
343.75        29.71598
344.20        29.76379
344.66        29.63232
345.11        29.36862
345.56        29.03866
346.01        28.74635
346.46        28.53909
346.91        28.39354
347.36        28.31837
347.81        28.32567
348.26        28.40258
348.72        28.53827
349.17        28.68979
349.62        28.77676
350.07        28.77132
350.52           28.69
350.97        28.55303
351.42        28.39484
351.87        28.23994
352.32        28.09576
352.77         27.9806
353.22        27.92336
353.67        27.92819
354.13        27.97503
354.58        28.07003
355.03        28.22038
355.48        28.40172
355.93        28.59516
356.38        28.71154
356.83        28.62096
357.28        28.31432
357.73        27.84377
358.18        27.32761
358.63        26.95506
359.08        26.77169
359.53        26.71846
359.98        26.72481
360.43        26.67084
360.88        26.52077
361.33        26.32587
361.78        26.09086
362.23        25.82004
362.68        25.53007
363.13        25.21118
363.58        24.93033
364.03        24.79848
364.48        24.82711
364.93        24.98386
365.38        25.15807
365.83        25.16729
366.28        24.97255
366.73        24.63002
367.18        24.24869
367.63        24.00366
368.08        23.93765
368.53        23.99242
368.98         24.0921
369.43        24.11318
369.88        24.01877
370.33        23.85386
370.78        23.65205
371.23         23.4668
371.68        23.31658
372.13        23.17134
372.58        23.03507
373.03        22.91998
373.48        22.81853
373.93        22.73219
374.38        22.61932
374.83         22.4079
375.28        22.10074
375.72        21.73214
376.17        21.38873
376.62         21.1524
377.07        21.03967
377.52        21.01296
377.97        21.05512
378.42        21.13655
378.87        21.22945
379.32        21.33434
379.77        21.39869
380.22        21.34643
380.67        21.17008
381.11        20.88874
381.56         20.5796
382.01        20.37514
382.46         20.3132
382.91         20.3615
383.36        20.45018
383.81        20.46775
384.26        20.38602
384.71        20.23629
385.15        20.06545
385.60        19.97337
386.05        19.96639
386.50         20.0083
386.95        20.04246
387.40        19.98494
387.85        19.82779
388.29        19.60222
388.74        19.38875
389.19        19.23144
389.64        19.14322
390.09        19.09649
390.54        19.09296
390.98        19.13373
391.43        19.20949
391.88         19.3092
392.33        19.37618
392.78        19.35009
393.23        19.23121
393.67        19.00138
394.12        18.73878
394.57        18.67948
395.02        18.57028
395.47        18.60024
395.91        18.65521
396.36        18.66616
396.81        18.62037
397.26        18.54702
397.71        18.46536
398.15        18.39404
398.60        18.36501
399.05        18.32463
399.50        18.27914
399.95        18.32157
400.39          18.356
400.84        18.37474
401.29        18.33789
401.74        18.28758
402.18        18.22501
402.63        18.10767
403.08        17.98702
403.53        17.95504
403.97        18.02241
404.42        18.16313
404.87        18.30251
405.32        18.31944
405.76        18.18568
406.21        17.94748
406.66        17.69298
407.11        17.56169
407.55        17.59171
408.00         17.7416
408.45         17.9253
408.90         17.9867
409.34        17.88267
409.79        17.66153
410.24        17.43437
410.68        17.36631
411.13        17.49185
411.58        17.75935
412.03        18.04855
412.47        18.15707
412.92        18.02477
413.37        17.73305
413.81        17.40877
414.26        17.26415
414.71        17.32998
415.15        17.54514
415.60        17.80454
416.05        17.95192
416.49        17.93924
416.94        17.82248
417.39        17.66053
417.83        17.54169
418.28        17.50039
418.73         17.4979
419.17        17.52711
419.62        17.58239
420.07        17.65126
420.51        17.73828
420.96        17.81271
421.41        17.81291
421.85        17.72797
422.30         17.5945
422.74        17.45063
423.19        17.38432
423.64        17.40362
424.08        17.49131
424.53        17.60152
424.98        17.68176
425.42        17.71486
425.87        17.70634
426.31        17.66251
426.76        17.62154
427.21        17.53506
427.65        17.42527
428.10         17.3139
428.54        17.21119
428.99        17.14035
429.44        17.21733
429.88        17.35843
430.33        17.20907
430.77         16.8787
431.22        16.93624
431.66        17.36077
432.11        17.58652
432.56        17.53796
433.00        17.59068
433.45        17.69352
433.89        17.37287
434.34        16.82176
434.78        16.73274
435.23        17.04959
435.67        17.14584
436.12        17.00031
436.57        16.97583
437.01        17.08799
437.46        17.18599
437.90         17.2549
438.35        17.32901
438.79        17.38266
439.24        17.34596
439.68        17.24292
440.13        17.16507
440.57        17.10542
441.02        17.06261
441.46         17.0471
441.91        16.93728
442.35        16.79997
442.80        17.09621
443.24        17.66616
443.69        17.66335
444.13        17.14421
444.58        16.93133
445.02        17.03272
445.47        17.00424
445.91        16.85291
446.36        16.81082
446.80         16.8791
447.24        17.00403
447.69        17.13632
448.13        17.19593
448.58        17.16759
449.02        17.07586
449.47        16.97916
449.91        16.95782
450.36        17.03074
450.80        17.16774
451.25        17.31066
451.69        17.36521
452.13        17.30959
452.58         17.1839
453.02        17.03764
453.47        16.94673
453.91        16.92784
454.36        17.00424
454.80        17.05898
455.24        17.10215
455.69        17.09749
456.13        17.06119
456.58          17.019
457.02         16.9925
457.46        16.99277
457.91        17.00748
458.35         17.0232
458.79        17.03037
459.24        17.03633
459.68        17.05468
460.13        17.08971
460.57        17.06932
461.01        17.12386
461.46        17.08257
461.90        17.02207
462.34        17.16088
462.79        17.42444
463.23        17.43583
463.68        17.21479
464.12        17.11353
464.56         17.1461
465.01        17.13675
465.45        17.07626
465.89        17.02569
466.34        17.01617
466.78        17.11112
467.22        17.31197
467.67        17.33958
468.11        17.18982
468.55        16.96797
468.99        16.76159
469.44        16.66229
469.88        16.69654
470.32        16.84116
470.77        17.02251
471.21        17.13441
471.65        17.13891
472.10        17.07526
472.54        16.98802
472.98        16.96355
473.42        17.02068
473.87        17.12664
474.31         17.2364
474.75        17.28789
475.20        17.27227
475.64         17.2095
476.08        17.13446
476.52        17.09455
476.97        17.10317
477.41        17.14008
477.85        17.19614
478.29         17.2554
478.74        17.31507
479.18        17.37057
479.62        17.40818
480.06        17.44819
480.50        17.50001
480.95        17.40042
481.39        17.43911
481.83        17.48415
482.27        17.63376
482.72        17.72323
483.16        17.94887
483.60        18.05529
484.04        18.11472
484.48        18.05153
484.93        17.91317
485.37        18.03893
485.81        18.37603
486.25        18.09449
486.69        17.80017
487.14         17.9433
487.58         18.3402
488.02        18.35904
488.46        18.69903
488.90         18.7506
489.34        18.40605
489.79        18.35334
490.23         18.4991
490.67         18.7668
491.11        19.04235
491.55        19.03485
491.99        18.81718
492.43        18.84097
492.88        19.12665
493.32        19.38148
493.76        19.55167
494.20        19.71963
494.64        19.87802
495.08        19.99582
495.52        20.07368
495.96        20.16814
496.41        20.29418
496.85        20.32117
497.29        20.27431
497.73        20.55256
498.17        20.83004
498.61        20.80566
499.05        20.47458
499.49        20.35801
499.93        20.50768
500.37        20.72216
500.82        20.94078
501.26         21.1121
501.70        21.20989
502.14        21.27913
502.58        21.35111
503.02        21.44907
503.46        21.58307
503.90        21.74519
504.34        21.90913
504.78        22.03059
505.22        22.09784
505.66        22.12259
506.10        22.12123
506.54        22.14477
506.98        22.20875
507.42        22.25468
507.86        22.25635
508.30        22.42432
508.74        22.34447
509.18        22.35625
509.62        22.35778
510.06        22.38951
510.50        22.45598
510.94        22.55317
511.38         22.6608
511.82        22.73388
512.26        22.76254
512.70        22.75778
513.14         22.7485
513.58        22.78022
514.02        22.86185
514.46        22.97799
514.90        23.09534
515.34        23.16024
515.78        23.15926
516.22        23.10942
516.66        23.04307
517.10        23.01063
517.54        23.02423
517.98        23.06707
518.42        23.11366
518.86        23.12326
519.30        23.08587
519.74        23.01787
520.18        22.93877
520.62        22.87587
521.06        22.83927
521.50        22.82297
521.93        22.82118
522.37        22.81797
522.81        22.81083
523.25        22.80122
523.69        22.79656
524.13        22.80797
524.57         22.8335
525.01        22.86493
525.45        22.88157
525.89        22.85214
526.32        22.76936
526.76        22.65246
527.20        22.52413
527.64         22.4203
528.08        22.35147
528.52        22.30857
528.96        22.28279
529.40        22.25897
529.83        22.22958
530.27        22.20204
530.71        22.17329
531.15        22.14041
531.59        22.10276
532.03         22.0589
532.46        22.00979
532.90        21.96624
533.34        21.92958
533.78        21.90028
534.22        21.87515
534.66        21.84838
535.09        21.81657
535.53        21.78665
535.97        21.76245
536.41        21.75598
536.85        21.76798
537.28        21.79389
537.72        21.81929
538.16        21.82391
538.60        21.80419
539.04        21.76958
539.47        21.72939
539.91        21.71896
540.35        21.73993
540.79        21.78956
541.22        21.85858
541.66         21.9355
542.10        22.01403
542.54        22.09894
542.97        22.19628
543.41        22.31716
543.85        22.46139
544.29        22.62728
544.72        22.78936
545.16        22.92559
545.60        23.02897
546.04        23.09579
546.47        23.15937
546.91        23.30919
547.35        23.53754
547.79        23.74844
548.22        23.90309
548.66        24.07101
549.10        24.25209
549.53           24.33
549.97        24.29206
550.41        24.61781
550.84        24.57964
551.28        24.72414
551.72        24.81964
552.15        25.06517
552.59        25.14266
553.03        25.30491
553.46        25.45824
553.90        25.59542
554.34        25.70883
554.77         25.8286
555.21        25.94934
555.65        25.99451
556.08        25.98866
556.52         26.0601
556.96        26.20706
557.39        26.36324
557.83        26.51734
558.27        26.65177
558.70        26.77188
559.14         26.9152
559.57        27.05659
560.01        27.17087
560.45        27.24768
560.88        27.18864
561.32        27.17158
561.75        27.20953
562.19        27.33524
562.63        27.40549
563.06        27.41201
563.50        27.44811
563.93        27.51217
564.37        27.58833
564.80         27.6685
565.24         27.7613
565.68        27.85532
566.11        27.95192
566.55        28.04987
566.98        28.10921
567.42        28.17278
567.85        28.25363
568.29        28.36067
568.72        28.56406
569.16         28.8931
569.60        28.79183
570.03        29.14614
570.47        29.28847
570.90        29.45398
571.34        29.53784
571.77        29.68386
572.21        29.77542
572.64        29.84355
573.08        29.95416
573.51        30.16395
573.95        30.29099
574.38        30.49303
574.82         30.8158
575.25         30.5074
575.69        30.42616
576.12        30.25069
576.56         30.6489
576.99        30.76014
577.42        30.50473
577.86         30.6583
578.29        30.64073
578.73        30.78084
579.16         30.6254
579.60        30.73921
580.03        30.51257
580.47        30.64049
580.90        30.51415
581.33        30.24733
581.77        30.57983
582.20        30.14349
582.64        30.04966
583.07        29.82217
583.51        29.61292
583.94        29.51067
584.37        29.42686
584.81        29.40815
585.24        29.48186
585.68        29.42654
586.11        29.58705
586.54        29.05511
586.98        29.11419
587.41        29.43925
587.85        29.12238
588.28        28.99225
588.71        29.23585
589.15        28.92118
589.58        28.90483
590.01        28.95529
590.45        28.91251
590.88        28.86243
591.31         28.8223
591.75        29.12959
592.18        29.14985
592.61        29.04155
593.05        28.93779
593.48        29.05763
593.91        29.42482
594.35        28.96956
594.78        29.05019
595.21        29.34031
595.65        29.39591
596.08        29.23018
596.51        29.75205
596.94        30.00837
597.38        30.35653
597.81          30.478
598.24        30.43769
598.68        30.65877
599.11        30.73741
599.54        31.51477
599.97        31.71708
600.41        31.63898
600.84        32.05034
601.27        32.37257
601.70        32.90163
602.14        33.38231
602.57         33.6178
603.00        33.74296
603.43        34.09763
603.87        34.63124
604.30        35.10424
604.73        35.49815
605.16        35.96365
605.60        36.47226
606.03        36.94083
606.46        37.29585
606.89        37.70742
607.32        38.05653
607.76        38.42611
608.19        38.78938
608.62        39.13324
609.05        39.47218
609.48        40.00661
609.92        40.25543
610.35        40.67343
610.78        41.09476
611.21        41.07628
611.64        41.56509
612.07        41.87006
612.50        42.27005
612.94        42.44323
613.37        43.16264
613.80        43.05192
614.23        43.68409
614.66        43.90607
615.09        44.13881
615.52         44.3094
615.96         44.4784
616.39        44.77583
616.82        44.76809
617.25        45.16032
617.68        45.17536
618.11        45.61768
618.54        46.16156
618.97        46.31277
619.40        46.17193
619.84        46.23033
620.27        46.53703
620.70        47.02892
621.13         47.5902
621.56        47.11526
621.99        47.20999
622.42         46.8754
622.85        47.39585
623.28        47.56865
623.71        47.89855
624.14        46.88071
624.57        47.60057
625.00        47.47443
625.43        47.37778
625.86        47.15861
626.29        46.86327
626.72        46.87434
627.15        46.67414
627.58        46.69872
628.01        46.72005
628.44         46.5074
628.87        46.07455
629.30        45.86964
629.73        45.87529
630.16        45.69862
630.59        45.31953
631.02        45.06679
631.45        44.74147
631.88        44.40659
632.31        44.00034
632.74        43.56663
633.17        43.11919
633.60        42.63459
634.03        42.11337
634.46        41.64361
634.89        41.27523
635.32        40.59931
635.75         40.4047
636.18        40.04713
636.61        39.71933
637.04        39.34128
637.47         38.9132
637.89        38.42213
638.32        37.88499
638.75        37.46954
639.18        37.21483
639.61        36.71597
640.04        36.61795
640.47        36.35143
640.90        36.10063
641.33         35.8688
641.76        35.65448
642.18        35.44522
642.61        35.22838
643.04        35.01413
643.47        34.84255
643.90        34.76646
644.33         34.7905
644.76        34.94542
645.18        35.15524
645.61        35.19745
646.04        35.01934
646.47        35.05677
646.90        35.29384
647.33        35.46593
647.75        35.56822
648.18        35.78506
648.61        36.10355
649.04        36.41528
649.47        36.72035
649.89        37.06236
650.32        37.44471
650.75        37.90587
651.18         38.4309
651.61        38.95052
652.03        39.47726
652.46        40.07414
652.89        40.70415
653.32        41.27659
653.74        41.83371
654.17        42.21533
654.60        42.60359
655.03         43.7329
655.46         43.1086
655.88        44.63928
656.31         47.1052
656.74        47.53115
657.16        46.54762
657.59         45.7569
658.02        46.28976
658.45        47.49622
658.87        47.95742
659.30        48.33202
659.73        48.72825
660.15        49.25254
660.58        49.67109
661.01         50.0888
661.44        50.42066
661.86        50.42522
662.29        50.27243
662.72        50.71649
663.14        51.64736
663.57        51.91134
664.00        51.58441
664.42        51.68654
664.85        52.27436
665.27        52.77159
665.70         53.0962
666.13        53.40839
666.55        53.69389
666.98        53.90461
667.41        54.06566
667.83        54.20995
668.26        54.34597
668.69         54.4816
669.11        54.61893
669.54        54.76181
669.96        54.91251
670.39        55.07024
670.82         55.2333
671.24        55.40348
671.67        55.56548
672.09        55.71491
672.52        55.86038
672.94         56.0672
673.37        55.90482
673.80        56.36623
674.22        56.22082
674.65        56.44703
675.07        56.72741
675.50        57.06635
675.92        57.40358
676.35        57.64674
676.77        57.79093
677.20        57.80395
677.62         57.7797
678.05        57.95118
678.47        58.30144
678.90        58.60698
679.32        58.78701
679.75        58.88302
680.17        58.86991
680.60        58.71187
681.02        58.51167
681.45        58.44511
681.87        58.54972
682.30         58.8886
682.72        59.24023
683.15        59.46622
683.57        59.55038
684.00        59.81303
684.42         60.1995
684.85        60.41215
685.27        60.44267
685.70        60.35363
686.12        60.26283
686.54        60.56684
686.97        61.16345
687.39        61.51042
687.82        61.51418
688.24        61.55482
688.66        61.62562
689.09        61.47307
689.51        61.18288
689.94         61.0595
690.36        61.15099
690.78        61.31479
691.21        61.52131
691.63         61.8694
692.06        62.25842
692.48        62.39021
692.90        62.30531
693.33        62.34683
693.75        62.53853
694.17        62.66473
694.60        62.72802
695.02        62.81574
695.44        62.92054
695.87        63.11465
696.29        63.34427
696.71        63.27033
697.14        62.99285
697.56        63.02777
697.98        63.36517
698.41        63.56989
698.83        63.61955
699.25        63.78093
699.68        64.01357
700.10        64.16617
700.52         64.2077
700.94        64.19503
701.37        64.14441
701.79         64.1022
702.21        64.08097
702.64        64.07672
703.06          64.116
703.48        64.25056
703.90        64.48525
704.33        64.82012
704.75        65.16077
705.17        65.39631
705.59        65.46403
706.01        65.42086
706.44        65.35359
706.86        65.22848
707.28        65.30577
707.70        65.47079
708.12        65.72145
708.55        65.69142
708.97        65.47631
709.39        65.64272
709.81        66.14795
710.23        66.45976
710.66        66.53227
711.08        66.57501
711.50        66.79588
711.92        66.93234
712.34        67.04935
712.76        67.17059
713.19        67.25888
713.61        67.29352
714.03        67.25562
714.45        67.16518
714.87        67.08405
715.29        67.10638
715.71        67.24848
716.13        67.48074
716.56        67.72254
716.98        67.91784
717.40        68.00593
717.82        68.01064
718.24        67.96822
718.66        67.94201
719.08        67.94929
719.50          67.967
719.92        67.98779
720.34        67.98799
720.76        67.97274
721.19        67.98899
721.61        68.02677
722.03        67.99831
722.45        67.89841
722.87        67.76638
723.29        67.64893
723.71        67.60467
724.13         67.6429
724.55        67.77064
724.97        67.95024
725.39         68.0371
725.81         67.9971
726.23         68.1742
726.65        68.05591
727.07        68.13412
727.49        68.25763
727.91        68.40427
728.33        68.56399
728.75         68.7338
729.17        68.90416
729.59        69.07921
730.01        69.19743
730.43        69.15716
730.85        68.95972
731.27        68.65022
731.69        68.36567
732.10        68.32217
732.52        68.56334
732.94        69.02746
733.36        69.58302
733.78        69.99619
734.20        70.18321
734.62        70.17743
735.04        70.07671
735.46        70.10224
735.88        70.27596
736.30        70.39816
736.72        70.42177
737.13        70.47761
737.55        70.48105
737.97        70.23664
738.39         69.8515
738.81        69.63002
739.23         69.6438
739.65        69.88679
740.06        70.20879
740.48        70.35651
740.90        70.27124
741.32        70.08209
741.74        69.88936
742.16        69.82288
742.57        69.93565
742.99        70.15556
743.41        70.42133
743.83        70.64984
744.25        70.79681
744.67        70.83465
745.08        70.81051
745.50        70.83863
745.92        70.94657
746.34        71.06075
746.75        71.16269
747.17        71.24954
747.59        71.31445
748.01        71.37381
748.42        71.41328
748.84        71.38664
749.26        71.31398
749.68        71.17924
750.09        71.03601
750.51        71.09494
750.93        71.30698
751.35        71.41181
751.76        71.40071
752.18        71.45513
752.60        71.56992
753.01        71.63067
753.43        71.62037
753.85        71.61235
754.27         71.6275
754.68        71.67195
755.10        71.73858
755.52        71.82165
755.93        71.89889
756.35        71.93011
756.77        71.96888
757.18        72.14842
757.60        72.49364
758.02         72.9714
758.43        73.27261
758.85        73.52838
759.26        72.07308
759.68        71.64899
760.10        71.79043
760.51        72.41518
760.93        72.45864
761.34        72.63565
761.76         72.6303
762.18         72.4754
762.59        72.25682
763.01        72.02626
763.42        71.87324
763.84        71.81326
764.26        71.89717
764.67        71.97792
765.09        72.08624
765.50        72.66886
765.92        73.55949
766.33        73.63775
766.75        72.76367
767.16        73.21945
767.58        72.84731
768.00        72.67234
768.41        72.18546
768.83        72.35287
769.24        72.95757
769.66        73.06643
770.07        72.69662
770.49        72.29327
770.90        72.07763
771.32        72.51604
771.73         73.4175
772.15        73.73858
772.56        73.39905
772.97        73.21964
773.39        72.87479
773.80        72.98869
774.22        73.39167
774.63        73.90764
775.05        74.32323
775.46        74.57214
775.88        74.56059
776.29        74.28902
776.70        73.86523
777.12        73.55124
777.53        73.42152
777.95         73.3772
778.36        73.41796
778.77        73.50212
779.19        73.60564
779.60        73.87807
780.02        74.18982
780.43        74.22528
780.84        74.05403
781.26        73.95631
781.67        74.04819
782.09        74.58087
782.50        75.32811
782.91        75.37519
783.33        74.75482
783.74        74.41339
784.15        74.39528
784.57        74.16702
784.98        73.80006
785.39        73.56642
785.81        73.55315
786.22        73.99241
786.63        74.72195
787.04        75.05222
787.46        75.03968
787.87         75.3529
788.28        75.90619
788.70        76.40313
789.11         76.1401
789.52        76.03996
789.93        75.94327
790.35        75.77618
790.76        75.57438
791.17        75.37302
791.58        75.25941
792.00        75.28437
792.41         75.4715
792.82        75.90555
793.23        76.41386
793.65        76.44604
794.06        76.13742
794.47        76.06587
794.88        76.47203
795.29        76.69787
795.71        76.20635
796.12        75.93414
796.53        75.82413
796.94        75.88499
797.35        76.13839
797.76        76.59476
798.18        77.09753
798.59        77.41802
799.00        77.47353
799.41        77.32433
799.82        77.06882
800.23        76.88876
800.64        76.84839
801.06        76.86968
801.47        76.96383
801.88        77.06976
802.29        77.15113
802.70        77.20636
803.11        77.24014
803.52        77.24193
803.93        77.23029
804.34         77.2624
804.75        77.26514
805.17        77.15285
805.58        77.01265
805.99        76.67468
806.40        76.35585
806.81         77.0321
807.22        78.37063
807.63        78.59342
808.04         77.7476
808.45         77.4929
808.86        77.92387
809.27        78.02919
809.68        77.75032
810.09        77.53941
810.50        77.42752
810.91        77.28743
811.32        77.20909
811.73        77.33519
812.14        77.67236
812.55        78.19762
812.96        78.73202
813.37        78.92763
813.78        78.70627
814.19        78.19788
814.60        77.60652
815.01        77.22187
815.42        77.11823
815.83        77.20779
816.24        77.44189
816.65        77.71454
817.05        77.95824
817.46        78.16798
817.87        78.31461
818.28        78.29256
818.69        78.10201
819.10        77.76602
819.51        77.40189
819.92         77.2443
820.33        77.35856
820.74        77.66207
821.14        78.06586
821.55        78.43341
821.96         78.7054
822.37         78.9374
822.78        79.06419
823.19        78.97671
823.60        78.66951
824.00        78.15602
824.41        77.63074
824.82        77.43753
825.23        77.64055
825.64        78.17786
826.04        78.79684
826.45         78.9481
826.86        78.53687
827.27        77.73053
827.68        76.88177
828.08        76.57626
828.49        76.90945
828.90        77.73524
829.31        78.77876
829.72        79.56208
830.12        79.94307
830.53        79.96428
830.94        79.81191
831.35        79.75745
831.75        79.90823
832.16        80.08863
832.57        80.21232
832.97        80.10827
833.38        79.75468
833.79        79.30019
834.20        78.83497
834.60        78.44519
835.01        78.20085
835.42        78.03358
835.82        78.05325
836.23         78.3699
836.64        78.99194
837.04        79.91012
837.45        80.74801
837.86        81.04231
838.26         80.6843
838.67        79.82138
839.08        78.81733
839.48        78.22284
839.89        78.22349
840.29        78.65324
840.70        79.29426
841.11        79.80502
841.51          80.087
841.92         80.1932
842.33        80.22655
842.73        80.33799
843.14        80.51379
843.54        80.72895
843.95        80.88397
844.35        80.90385
844.76        80.75134
845.17        80.45428
845.57        80.14808
845.98        80.00414
846.38        80.08356
846.79        80.33807
847.19        80.58458
847.60        80.45505
848.00        79.91454
848.41        79.10371
848.81        78.34573
849.22        78.12182
849.62         78.5655
850.03         79.4737
850.43        80.62315
850.84        81.38692
851.24         81.6224
851.65        81.38947
852.05        80.90125
852.46        80.46022
852.86        80.17253
853.27        80.03033
853.67         79.8765
854.07        79.70731
854.48        79.45618
854.88        79.18155
855.29        78.90584
855.69        78.90072
856.10        79.10623
856.50        79.53956
856.90        79.92732
857.31        79.91606
857.71        79.49339
858.12        78.73512
858.52        77.93085
858.92        77.50436
859.33        77.56747
859.73        78.05518
860.13        78.75863
860.54        79.34188
860.94        79.73291
861.34        79.91521
861.75        79.92759
862.15        79.91028
862.55        79.85631
862.96        79.74774
863.36        79.42194
863.76        78.66184
864.17        77.52361
864.57        76.17274
864.97        74.95708
865.38        74.32937
865.78         74.4212
866.18        75.08463
866.58        76.13008
866.99        77.10852
867.39         77.8459
867.79        78.38699
868.19         78.6552
868.60        78.56691
869.00        78.16245
869.40        77.43385
869.80        76.71072
870.21        76.57586
870.61        77.19193
871.01        78.35786
871.41         79.5944
871.81        80.11987
872.22        79.74091
872.62        78.69345
873.02        77.38406
873.42        76.49929
873.82        76.26785
874.22        76.52382
874.63        76.98347
875.03        77.20596
875.43        77.08212
875.83        76.74862
876.23        76.49647
876.63        76.78692
877.03        77.68411
877.44        78.94792
877.84        80.19923
878.24        80.73611
878.64        80.41454
879.04        79.51174
879.44        78.41121
879.84        77.67085
880.24        77.43861
880.64        77.52268
881.04        77.84854
881.44        78.28743
881.84        78.75336
882.24        79.31839
882.65        79.75207
883.05        79.78932
883.45        79.34548
883.85        78.54572
884.25        77.75114
884.65        77.53084
885.05        77.97941
885.45        78.86559
885.85        79.94558
886.25        80.78771
886.65        81.19726
887.05        81.32321
887.45        81.02628
887.85        80.10335
888.25        78.69046
888.65        76.96932
889.04        75.44015
889.44        74.84087
889.84        75.21132
890.24         76.3828
890.64        77.96153
891.04        79.07268
891.44        79.35676
891.84        79.05618
892.24        78.48128
892.64        78.08241
893.04        77.98343
893.44        78.02328
893.83        78.19212
894.23        78.41161
894.63        78.67159
895.03        79.02466
895.43        79.39594
895.83        79.64694
896.23        79.74425
896.63        79.67572
897.02        79.53817
897.42        79.56857
897.82        79.78827
898.22        80.16574
898.62        80.48111
899.01        80.37904
899.41        79.79942
899.81        78.88338
900.21        77.99303
900.61        77.67886
901.00        78.03912
901.40        78.89403
901.80        79.84605
902.20        80.23871
902.59        79.89748
902.99        79.03136
903.39        77.98352
903.79         77.2648
904.18         77.0198
904.58        77.13439
904.98        77.40039
905.38         77.5127
905.77        77.37045
906.17         77.0714
906.57        76.81063
906.96        76.91455
907.36        77.40258
907.76        78.18386
908.15        78.93889
908.55        79.02083
908.95        78.37717
909.34         77.2148
909.74        76.09352
910.14        75.73291
910.53        76.32814
910.93        77.60694
911.33        79.22089
911.72        80.62249
912.12        81.51231
912.52        82.03134
912.91        82.29252
913.31        82.47211
913.70        82.64166
914.10          82.688
914.49        82.50118
914.89        81.92967
915.29         81.0154
915.68        79.89432
916.08         78.8784
916.47         78.2873
916.87        78.24843
917.26        78.62069
917.66        79.24752
918.05        79.88632
918.45        80.36526
918.84        80.78708
919.24        81.01514
919.64         80.9922
920.03        80.73603
920.42        80.23267
920.82        79.68439
921.21        79.31611
921.61        79.19832
922.00        79.29673
922.40        79.50552
922.79        79.71681
923.19        79.84667
923.58        79.95851
923.98        80.03091
924.37        80.04315
924.77        79.98906
925.16        79.85271
925.55        79.69822
925.95        79.64449
926.34        79.73393
926.74          79.933
927.13        80.11459
927.52        80.03109
927.92        79.65403
928.31        79.04529
928.70        78.43241
929.10        78.16853
929.49        78.32906
929.89        78.76724
930.28        79.27686
930.67        79.40807
931.07        79.06066
931.46        78.44501
931.85         77.7413
932.24        77.21075
932.64        76.96771
933.03        76.94602
933.42        77.21979
933.82        77.89632
934.21        78.94382
934.60        80.21234
934.99        81.48694
935.39        82.39565
935.78        82.85966
936.17         82.9325
936.56        82.45563
936.96        81.28474
937.35        79.57331
937.74        77.51268
938.13        75.71911
938.53        74.94169
938.92        75.23357
939.31         76.4584
939.70        78.07931
940.09        79.01194
940.49        78.89183
940.88        78.03391
941.27        76.96658
941.66        76.51295
942.05        76.87245
942.44         77.8034
942.84        78.90422
943.23        79.55503
943.62        79.48374
944.01        78.89948
944.40        78.22903
944.79        78.07745
945.18        78.58172
945.57        79.58053
945.97        80.56279
946.36        80.91923
946.75        80.37715
947.14        79.14919
947.53        77.86881
947.92         77.4822
948.31         78.1934
948.70        79.76912
949.09         81.4763
949.48        81.99719
949.87         81.0043
950.26        78.95129
950.65        76.79342
951.04        75.85335
951.43        76.40429
951.82        78.09184
952.21         80.1384
952.60        81.10367
952.99        80.54738
953.38        78.93377
953.77        77.15845
954.16        76.40962
954.55        76.93044
954.94        78.45188
955.33        80.22709
955.72        80.69419
956.11        79.39048
956.50        76.93879
956.89        74.52499
957.28        73.65921
957.66        74.65884
958.05        76.99146
958.44        79.85031
958.83        81.55737
959.22        81.48052
959.61        80.19459
960.00        78.45294
960.39        77.20419
960.78        76.66538
961.16        76.55082
961.55        76.62278
961.94        76.59873
962.33        76.37663
962.72        76.18987
963.11        76.07629
963.49        76.01486
963.88        76.02316
964.27        76.04291
964.66        76.19551
965.04        76.77921
965.43        77.71156
965.82         78.8954
966.21        80.00989
966.60         80.4761
966.98        80.17815
967.37        79.40296
967.76        78.40425
968.15        77.50326
968.53        76.79688
968.92        76.11011
969.31        75.73096
969.69        76.21397
970.08        77.56741
970.47        79.78824
970.86        81.94569
971.24        82.42459
971.63        80.88705
972.02         77.8927
972.40        74.83093
972.79        73.86466
973.17        75.37115
973.56        78.57654
973.95        82.33306
974.33        84.47346
974.72        84.20044
975.11         82.2475
975.49        79.60323
975.88        78.07833
976.26         78.1646
976.65        79.26067
977.04        80.82754
977.42        81.90508
977.81        81.97838
978.19        81.50005
978.58        80.79954
978.96        80.24556
979.35        80.04691
979.74        80.07485
980.12        80.32855
980.51        80.78613
980.89        81.46207
981.28        82.16956
981.66        83.08665
982.05          84.186
982.43        85.52164
982.82        87.01424
983.20        88.08479
983.59         87.6352
983.97        85.59734
984.35        82.39342
984.74        79.38112
985.12        78.41557
985.51        79.73953
985.89        82.88889
986.28        86.45093
986.66        88.40176
987.04        87.97152
987.43        85.79744
987.81        82.84499
988.20        81.10596
988.58           81.13
988.96        82.31445
989.35        83.68514
989.73        83.91599
990.12        82.59316
990.50        80.40401
990.88        77.86545
991.27        75.76429
991.65        74.38769
992.03        73.49823
992.42        73.32674
992.80        74.56158
993.18        77.11588
993.56          80.913
993.95        84.83669
994.33        86.88472
994.71        86.35408
995.10        83.86848
995.48        80.82397
995.86        79.44265
996.24        80.27081
996.63        82.58639
997.01         85.7136
997.39        88.10146
997.77        89.08979
998.15        89.18164
998.54        88.58457
998.92        87.60547
999.30        86.43971
999.68        84.95506
1000.06        83.51568
1000.45        82.84149
1000.83        83.21986
1001.21        84.51926
1001.59        86.35049
1001.97        87.95974
1002.35        89.05195
1002.73        89.75631
1003.12        90.07587
1003.50        89.98332
1003.88        89.59308
1004.26        88.93091
1004.64        88.19415
1005.02        87.77122
1005.40        87.76231
1005.78        88.02313
1006.16        88.50889
1006.54        89.14576
1006.92        89.85467
1007.30        90.67455
1007.69        91.20349
1008.07        90.82915
1008.45        89.33413
1008.83        86.98785
1009.21        84.48443
1009.59        82.99305
1009.97        82.84556
1010.35        83.65078
1010.73        85.16043
1011.11        86.88815
1011.49        88.50794
1011.86        90.21593
1012.24        91.27921
1012.62        90.78356
1013.00        88.58091
1013.38        84.68409
1013.76        80.26746
1014.14        77.94703
1014.52        78.66789
1014.90        81.88821
1015.28        85.70279
1015.66        86.98492
1016.04        84.98093
1016.41         80.6491
1016.79        75.56178
1017.17        73.03181
1017.55        73.90594
1017.93        76.56659
1018.31        79.64812
1018.69        82.18311
1019.06        84.31005
1019.44        86.50538
1019.82        88.90128
1020.20        90.72787
1020.58        91.17723
1020.95        90.02324
1021.33        88.17567
1021.71        86.57284
1022.09        85.23836
1022.46        83.85677
1022.84        82.37772
1023.22        80.40086
1023.60        78.43272
1023.97        77.11276
1024.35        76.69241
1024.73        77.17408
