SpectraSmart Spectrum 2.9.0.0
--------- Device Information -----------
Spectrum Name :  反射率_0
Saving Time :  2024/04/30 00:40:48
Spectro-Module Model Name : SE2030-DUVN
Spectro-Module Serial Number : OS361AC55029948
Wavelength Start : 200
Wavelength End : 1025
Wavelength Unit : Wavelength(nm)
Spectrum Unit : Reflectance(%)
-----------Spectrum Setting ------------
Integration Time : 20ms
Average : 10
Boxcar : 0
Background removal :  enabled
linearity correction :  enabled
SC :  disabled
Intensity correction :  disabled
DWT denoise :  enabled
savitzky-golay :  disabled
FFT :  disabled
Running average :  disabled
Kalman :  disabled
High pass :  disabled
---------------BEGIN--------------------
Wavelength(nm)             Reflectance(%)
200.29               0
200.75        44.07767
201.21        42.03229
201.67        39.36446
202.13        38.35641
202.58        39.91829
203.04        43.98243
203.50        49.71172
203.96         55.5378
204.42        60.14504
204.88        63.08593
205.34        64.23557
205.80        63.99349
206.26        62.88661
206.72        61.36481
207.18        59.36131
207.64        56.43356
208.10        52.49757
208.55        47.58691
209.01        42.45701
209.47        40.04629
209.93        41.13507
210.39        44.40823
210.85        47.62161
211.31        48.88274
211.77        48.07747
212.23        45.26891
212.69        41.63797
213.14        42.27592
213.60         48.0051
214.06        55.58038
214.52         61.4147
214.98        63.63659
215.44        63.03476
215.90        60.59777
216.36        57.97022
216.81        58.27287
217.27        63.28762
217.73        73.43066
218.19        88.02176
218.65        99.67868
219.11         102.258
219.57        97.53461
220.02        91.18938
220.48        88.26842
220.94        88.39727
221.40        90.51547
221.86        92.49548
222.32        89.23659
222.77        81.13017
223.23        73.58603
223.69        68.82521
224.15        67.36079
224.61        68.61203
225.06        72.10691
225.52        77.61749
225.98        83.15904
226.44        86.93761
226.90        88.95841
227.36         90.2924
227.81         92.2126
228.27        95.12631
228.73        98.62251
229.19        101.4731
229.65        101.1632
230.10        97.67208
230.56        93.24207
231.02        89.35294
231.48        87.15997
231.93        86.41362
232.39        86.61193
232.85        87.49133
233.31        88.74962
233.77        90.12341
234.22        91.88516
234.68        93.15796
235.14        92.54888
235.60        89.92506
236.05        85.70995
236.51        81.62988
236.97         79.8256
237.43        80.72915
237.88        84.45579
238.34         89.6639
238.80        92.77122
239.26        91.44707
239.71        86.66953
240.17        80.72865
240.63        76.78171
241.08        75.55045
241.54         76.3666
242.00        79.26736
242.46        81.98225
242.91        81.84521
243.37         78.9445
243.83        75.31239
244.28        72.70917
244.74        70.84598
245.20        68.76364
245.66        66.31721
246.11         63.7033
246.57        61.44623
247.03        60.27313
247.48        59.54332
247.94          57.669
248.40        55.39775
248.85        53.20226
249.31        53.01867
249.77        56.08999
250.22        63.02502
250.68        75.62938
251.14        93.76432
251.59         103.177
252.05         94.6023
252.51        79.76036
252.96        68.54443
253.42        64.23118
253.88        64.66478
254.33        67.82008
254.79        72.70515
255.25        76.13988
255.70        76.71512
256.16        76.24902
256.62        75.57487
257.07         75.1993
257.53        75.51056
257.99        75.99469
258.44        75.93819
258.90        75.23042
259.35        73.69491
259.81        72.22757
260.27        71.13609
260.72         70.7077
261.18         71.0254
261.63        71.47467
262.09        71.87904
262.55        71.60204
263.00        70.58489
263.46        69.40053
263.91        68.08587
264.37        67.07441
264.83        66.30141
265.28        65.59126
265.74        65.11405
266.19        64.84534
266.65        64.83455
267.11        64.98672
267.56        65.10854
268.02        64.96552
268.47        64.46677
268.93        63.69366
269.38          62.734
269.84        61.86786
270.30         61.1769
270.75        60.59242
271.21        60.05853
271.66        59.41285
272.12        58.63448
272.57        57.72902
273.03        56.79519
273.48        55.87665
273.94        55.06808
274.39        54.28319
274.85        53.53691
275.31        52.71187
275.76        51.77562
276.22        50.84573
276.67        49.92305
277.13        49.16084
277.58        48.50829
278.04        47.97205
278.49        47.46353
278.95        47.00877
279.40         46.5186
279.86         46.0752
280.31        45.55656
280.77        44.94727
281.22        44.20148
281.68        43.40229
282.13        42.62155
282.59        42.05766
283.04        41.68242
283.50        41.44067
283.95         41.1824
284.41         40.7275
284.86        40.02442
285.32        39.20797
285.77        38.32756
286.22        37.54204
286.68        36.90904
287.13        36.34663
287.59        35.89297
288.04        35.53392
288.50        35.27835
288.95        35.08349
289.41         34.9131
289.86         34.6477
290.32        34.28973
290.77        33.85318
291.22        33.37806
291.68        32.93494
292.13        32.54057
292.59          32.207
293.04        31.96747
293.50        31.90395
293.95        32.00699
294.40         32.2654
294.86        32.56411
295.31        32.73907
295.77        32.74963
296.22        32.62245
296.68        32.48722
297.13        32.52554
297.58        32.78147
298.04        33.17105
298.49        33.55449
298.95        33.71324
299.40         33.6026
299.85        33.30843
300.31        32.97154
300.76        32.74597
301.21        32.70126
301.67        32.78542
302.12        32.90306
302.58        33.05311
303.03        33.19754
303.48        33.21695
303.94        33.09375
304.39        33.49649
304.84        33.25575
305.30        33.31143
305.75        33.28941
306.20        33.22909
306.66        33.14017
307.11        33.02254
307.57        32.91823
308.02        32.81092
308.47        32.71005
308.93        32.61575
309.38        32.50688
309.83        32.40016
310.29        32.29429
310.74        32.18496
311.19        32.04193
311.65        31.81085
312.10        31.48928
312.55        31.10419
313.00        30.73251
313.46        30.49153
313.91        30.39302
314.36        30.40296
314.82        30.44706
315.27         30.4231
315.72        30.28818
316.18        30.07883
316.63        29.81622
317.08        29.54788
317.53        29.30014
317.99        29.06929
318.44        28.85923
318.89        28.68191
319.35        28.53895
319.80        28.42803
320.25         28.3626
320.70         28.3601
321.16        28.40337
321.61        28.49289
322.06        28.56103
322.51        28.50801
322.97        28.31362
323.42        28.01251
323.87        27.67805
324.32        27.43471
324.78        27.30648
325.23        27.27167
325.68        27.27285
326.13        27.21368
326.59          27.061
327.04        26.86103
327.49        26.64246
327.94        26.46122
328.39        26.33091
328.85        26.21496
329.30        26.11974
329.75        26.01875
330.20        25.90694
330.66        25.80109
331.11        25.69364
331.56        25.54616
332.01        25.35905
332.46        25.13645
332.92        24.93505
333.37         24.8843
333.82        24.99935
334.27        25.24203
334.72        25.50741
335.17         25.6185
335.63        25.52662
336.08        25.29408
336.53        24.99656
336.98        24.78154
337.43        24.70232
337.88        24.71236
338.34        24.78727
338.79        24.91071
339.24        25.05268
339.69        25.22461
340.14        25.37724
340.59        25.42323
341.05        25.35015
341.50        25.18013
341.95        24.97947
342.40        24.86489
342.85        24.86497
343.30        24.94188
343.75        25.05046
344.20         25.1168
344.66        25.12472
345.11        25.09319
345.56        25.02771
346.01        24.93151
346.46        24.81983
346.91        24.69389
347.36        24.58895
347.81        24.56219
348.26        24.61832
348.72        24.73386
349.17        24.86819
349.62        24.94879
350.07        24.94979
350.52        24.89275
350.97        24.79007
351.42        24.65967
351.87        24.52124
352.32        24.38267
352.77        24.26898
353.22        24.22129
353.67        24.24602
354.13        24.32059
354.58        24.43773
355.03        24.58413
355.48         24.7345
355.93          24.879
356.38        24.95304
356.83        24.86358
357.28         24.6066
357.73        24.22044
358.18        23.79832
358.63        23.48911
359.08        23.33013
359.53        23.27886
359.98        23.27885
360.43        23.23355
360.88        23.11378
361.33         22.9569
361.78        22.77495
362.23        22.58373
362.68        22.39771
363.13        22.20847
363.58        22.04295
364.03        21.94958
364.48        21.92906
364.93        21.95922
365.38        21.99931
365.83        21.98119
366.28        21.88652
366.73        21.74065
367.18        21.55213
367.63        21.33647
368.08        21.10849
368.53        20.86351
368.98        20.64699
369.43        20.53121
369.88        20.52764
370.33        20.62169
370.78          20.736
371.23        20.74032
371.68        20.60167
372.13        20.34775
372.58        20.06512
373.03        19.89834
373.48        19.87712
373.93        19.95376
374.38        20.03267
374.83        19.95849
375.28        19.70298
375.72        19.32738
376.17        18.94328
376.62        18.66842
377.07        18.53181
377.52        18.48823
377.97        18.50541
378.42        18.53163
378.87        18.54336
379.32        18.55924
379.77        18.56157
380.22        18.52317
380.67        18.43904
381.11        18.30178
381.56        18.15438
382.01        18.07021
382.46         18.0679
382.91        18.13987
383.36         18.2131
383.81        18.17336
384.26        18.00523
384.71        17.73929
385.15        17.48431
385.60        17.43662
386.05        17.60994
386.50        17.93246
386.95        18.24621
387.40        18.30595
387.85        18.07346
388.29        17.63884
388.74        17.17515
389.19        16.85952
389.64        16.73346
390.09        16.72977
390.54        16.80096
390.98        16.86716
391.43        16.89915
391.88        16.92382
392.33        16.92088
392.78        16.87342
393.23        16.78787
393.67        16.62646
394.12        16.44661
394.57        16.44459
395.02        16.39095
395.47        16.45568
395.91        16.52776
396.36        16.52768
396.81        16.44279
397.26        16.30459
397.71        16.15117
398.15        16.02995
398.60         15.9767
399.05        15.93886
399.50        15.90435
399.95        15.92652
400.39        15.91676
400.84        15.87628
401.29        15.79194
401.74        15.73741
402.18        15.72188
402.63        15.69398
403.08         15.6689
403.53        15.68296
403.97         15.7352
404.42        15.81576
404.87        15.88025
405.32         15.8572
405.76        15.73168
406.21        15.53262
406.66        15.32477
407.11        15.21218
407.55        15.22215
408.00        15.32455
408.45         15.4489
408.90        15.46572
409.34        15.34225
409.79         15.1221
410.24        14.90025
410.68        14.81733
411.13        14.90373
411.58        15.11485
412.03        15.35635
412.47        15.46894
412.92        15.39914
413.37        15.20834
413.81        14.98379
414.26        14.87974
414.71        14.91604
415.15        15.04705
415.60        15.19833
416.05         15.2663
416.49        15.21943
416.94         15.0994
417.39        14.94339
417.83        14.80443
418.28        14.70891
418.73         14.6346
419.17        14.59143
419.62        14.59669
420.07        14.64599
420.51        14.73594
420.96        14.82898
421.41        14.85561
421.85        14.80029
422.30        14.69712
422.74        14.58373
423.19        14.54352
423.64        14.58412
424.08        14.68598
424.53        14.80113
424.98        14.87241
425.42        14.88068
425.87         14.8339
426.31        14.74605
426.76        14.66237
427.21        14.54852
427.65        14.42474
428.10        14.30298
428.54        14.18214
428.99        14.08041
429.44        14.09058
429.88        14.16348
430.33        14.04079
430.77        13.81364
431.22        13.93901
431.66        14.35977
432.11        14.54779
432.56        14.42958
433.00         14.2825
433.45         14.1406
433.89        13.88811
434.34         13.6481
434.78          13.667
435.23        13.88331
435.67        13.97417
436.12        13.91267
436.57        13.87188
437.01        13.87969
437.46        13.90529
437.90        13.95064
438.35        14.01413
438.79        14.07285
439.24        14.06853
439.68        14.01413
440.13        13.98421
440.57        13.96234
441.02        13.92601
441.46        13.88034
441.91        13.74083
442.35        13.56736
442.80        13.72908
443.24        14.10164
443.69        14.02511
444.13        13.56615
444.58        13.38968
445.02        13.50268
445.47        13.55171
445.91        13.51922
446.36        13.55278
446.80        13.64126
447.24        13.74797
447.69        13.84017
448.13        13.86789
448.58        13.82503
449.02        13.73046
449.47        13.62904
449.91        13.58327
450.36        13.60991
450.80        13.68766
451.25        13.78279
451.69        13.83908
452.13        13.83915
452.58        13.80822
453.02        13.76023
453.47        13.71654
453.91        13.68267
454.36         13.6903
454.80        13.67294
455.24        13.68291
455.69        13.70257
456.13        13.73124
456.58        13.76876
457.02         13.8001
457.46        13.82459
457.91        13.84018
458.35         13.8489
458.79          13.861
459.24        13.88611
459.68        13.92759
460.13        13.97611
460.57        13.95189
461.01        13.96044
461.46        13.87199
461.90        13.76802
462.34         13.8516
462.79        14.06825
463.23        14.10373
463.68        13.96185
464.12         13.9095
464.56        13.95169
465.01        13.95308
465.45        13.90105
465.89        13.83806
466.34        13.79171
466.78        13.81415
467.22         13.9254
467.67        13.93607
468.11        13.85004
468.55        13.74131
468.99        13.65269
469.44        13.61265
469.88        13.63185
470.32        13.70611
470.77        13.79747
471.21        13.85878
471.65        13.86906
472.10        13.84674
472.54        13.81474
472.98        13.82516
473.42        13.88613
473.87        13.97715
474.31          14.062
474.75        14.08801
475.20        14.05107
475.64        13.96946
476.08        13.87784
476.52        13.82545
476.97        13.82596
477.41        13.85913
477.85        13.91759
478.29        13.98751
478.74        14.06197
479.18        14.13492
479.62        14.18388
480.06        14.20858
480.50        14.21536
480.95        14.07957
481.39         14.0459
481.83        14.02662
482.27        14.10504
482.72        14.14209
483.16         14.3018
483.60        14.37887
484.04        14.42094
484.48        14.41535
484.93         14.3955
485.37        14.46888
485.81        14.57222
486.25        14.53015
486.69        14.20874
487.14        14.23647
487.58        14.88261
488.02        14.95274
488.46        14.86714
488.90        15.18879
489.34        14.71379
489.79          14.632
490.23        14.58188
490.67        14.77847
491.11         15.1102
491.55        15.15514
491.99        14.96394
492.43         14.9865
492.88        15.23377
493.32        15.40686
493.76        15.47694
494.20        15.56853
494.64        15.68428
495.08        15.78386
495.52        15.85665
495.96         15.9292
496.41        16.00925
496.85        16.00258
497.29        15.94067
497.73        16.15459
498.17        16.38953
498.61        16.39461
499.05        16.15728
499.49        16.08237
499.93        16.20607
500.37        16.36887
500.82        16.52186
501.26        16.62557
501.70        16.66232
502.14         16.6702
502.58        16.68162
503.02        16.72724
503.46        16.81838
503.90        16.94529
504.34        17.08525
504.78        17.19882
505.22        17.27232
505.66        17.31423
506.10        17.32912
506.54        17.34445
506.98        17.37101
507.42        17.36751
507.86        17.32434
508.30        17.42322
508.74        17.34844
509.18        17.36001
509.62        17.37479
510.06        17.41729
510.50        17.48695
510.94        17.58052
511.38        17.68008
511.82        17.74704
512.26        17.77135
512.70        17.76064
513.14         17.7351
513.58        17.72753
514.02        17.74694
514.46        17.78578
514.90        17.82646
515.34        17.83982
515.78        17.82081
516.22        17.78111
516.66         17.7436
517.10        17.74313
517.54        17.78432
517.98        17.85034
518.42        17.91777
518.86        17.94956
519.30        17.93534
519.74        17.89007
520.18        17.82229
520.62        17.74381
521.06        17.66514
521.50        17.58693
521.93        17.52829
522.37        17.51507
522.81        17.55192
523.25        17.62683
523.69        17.71644
524.13        17.78437
524.57        17.81702
525.01        17.81955
525.45        17.79309
525.89        17.74301
526.32        17.67323
526.76         17.5892
527.20        17.49901
527.64        17.41648
528.08        17.34698
528.52        17.29079
528.96         17.2493
529.40         17.2217
529.83        17.20484
530.27        17.19961
530.71        17.19673
531.15        17.18408
531.59        17.15756
532.03        17.11789
532.46        17.06977
532.90        17.02734
533.34        16.99411
533.78        16.97038
534.22        16.94968
534.66        16.92109
535.09        16.88243
535.53        16.84275
535.97        16.81457
536.41        16.82278
536.85        16.86837
537.28        16.93874
537.72         17.0094
538.16        17.04513
538.60        17.03763
539.04        17.00297
539.47        16.94857
539.91        16.90359
540.35        16.87416
540.79        16.85845
541.22        16.86855
541.66        16.92686
542.10        17.03083
542.54        17.17237
542.97        17.32722
543.41        17.45614
543.85        17.55023
544.29        17.62562
544.72        17.68337
545.16        17.74125
545.60        17.80475
546.04        17.85859
546.47        17.92892
546.91        18.08548
547.35        18.31672
547.79        18.54811
548.22        18.72837
548.66         18.8792
549.10         18.9966
549.53        18.99727
549.97        18.89966
550.41        19.12363
550.84        19.11469
551.28         19.2832
551.72        19.42275
552.15        19.64794
552.59        19.69945
553.03        19.78994
553.46        19.86356
553.90        19.94102
554.34        20.02326
554.77        20.12236
555.21        20.22654
555.65        20.26383
556.08         20.2494
556.52        20.29046
556.96        20.38437
557.39        20.47717
557.83         20.5614
558.27        20.62143
558.70         20.6736
559.14        20.76919
559.57        20.89103
560.01        21.00871
560.45        21.09653
560.88        21.05616
561.32        21.02134
561.75        21.00712
562.19        21.06213
562.63        21.11401
563.06        21.16294
563.50        21.26737
563.93        21.39935
564.37        21.50524
564.80        21.56912
565.24         21.6097
565.68        21.64128
566.11        21.70265
566.55        21.80429
566.98        21.89362
567.42        21.98097
567.85        22.07095
568.29        22.16767
568.72        22.22255
569.16        22.50224
569.60        22.39167
570.03        22.64015
570.47        22.85356
570.90        23.03277
571.34         23.0325
571.77        23.22941
572.21         23.2946
572.64        23.34792
573.08        23.41328
573.51         23.5433
573.95         23.6091
574.38        23.82746
574.82        23.97364
575.25        24.04014
575.69        23.91837
576.12        23.64127
576.56        23.95813
576.99        23.96922
577.42        24.12956
577.86        23.94618
578.29        23.86602
578.73        23.88326
579.16         23.7497
579.60        23.76397
580.03        23.68957
580.47        23.78651
580.90        23.69124
581.33        23.42556
581.77        23.75965
582.20          23.408
582.64        23.37149
583.07        23.19308
583.51        23.05971
583.94        23.03076
584.37        22.89481
584.81        22.70557
585.24        22.76049
585.68        22.88726
586.11        22.71358
586.54        22.40558
586.98        22.32605
587.41        22.82906
587.85        22.59156
588.28        22.21598
588.71        22.57758
589.15        22.33385
589.58        22.38259
590.01        22.46874
590.45        22.43037
590.88        22.36479
591.31        22.40839
591.75        22.53531
592.18        22.59693
592.61        22.60714
593.05        22.41667
593.48        22.60812
593.91        22.67907
594.35        22.50918
594.78        22.57989
595.21        22.80431
595.65        22.82744
596.08        22.67141
596.51        23.07059
596.94        23.28211
597.38         23.5715
597.81        23.68734
598.24        23.70213
598.68        23.91452
599.11        24.07627
599.54        24.39413
599.97        24.71157
600.41           24.78
600.84        25.05205
601.27        25.38423
601.70        25.78856
602.14        26.19577
602.57        26.39867
603.00        26.57831
603.43        26.80759
603.87        27.09261
604.30         27.5227
604.73        27.81456
605.16        28.28276
605.60        28.80376
606.03        29.18505
606.46        29.36792
606.89         29.8755
607.32        30.16863
607.76        30.53889
608.19        30.81992
608.62        31.08754
609.05        31.47952
609.48        31.77742
609.92        31.98803
610.35        32.39149
610.78        32.75143
611.21        32.78079
611.64        33.14405
612.07        33.55508
612.50        33.71574
612.94        33.93034
613.37        34.57176
613.80        34.55585
614.23        35.15459
614.66        35.35943
615.09        35.51641
615.52        35.61571
615.96        35.71239
616.39         35.8466
616.82        35.98903
617.25        36.39829
617.68        36.38651
618.11        36.69447
618.54        37.06945
618.97         37.2846
619.40        37.35532
619.84        37.49533
620.27        37.73924
620.70        37.97507
621.13        38.17206
621.56        38.25992
621.99        38.35923
622.42        38.35114
622.85        38.60273
623.28        38.54737
623.71        39.08527
624.14        38.29174
624.57        38.82338
625.00        38.68291
625.43        38.60685
625.86        38.45488
626.29        38.22001
626.72        38.33136
627.15        38.02678
627.58        37.92614
628.01        37.79584
628.44        37.65069
628.87        37.48355
629.30        37.28501
629.73        37.05904
630.16        36.90212
630.59        36.59628
631.02        36.40113
631.45         36.0865
631.88        35.78741
632.31        35.45318
632.74        35.09293
633.17         34.7049
633.60        34.28468
634.03        33.83907
634.46        33.37153
634.89        32.90548
635.32        32.47997
635.75        32.10381
636.18        31.76533
636.61        31.44731
637.04        31.12374
637.47        30.79254
637.89        30.44364
638.32        30.06805
638.75        29.74347
639.18        29.49147
639.61        29.00575
640.04         28.8294
640.47        28.56626
640.90        28.37455
641.33        28.24067
641.76        28.13576
642.18         28.0033
642.61        27.82008
643.04        27.60924
643.47        27.42281
643.90        27.33438
644.33        27.35625
644.76        27.50038
645.18        27.69514
645.61        27.74695
646.04        27.60892
646.47        27.63435
646.90        27.81558
647.33        27.94921
647.75        28.03667
648.18         28.2239
648.61        28.50514
649.04        28.80217
649.47        29.11279
649.89        29.46658
650.32        29.86065
650.75        30.30204
651.18        30.77298
651.61        31.25215
652.03        31.73218
652.46        32.16928
652.89        32.52518
653.32        32.86992
653.74        33.30269
654.17         33.4147
654.60        33.72258
655.03        34.91866
655.46        34.73812
655.88         36.0914
656.31        37.82782
656.74         38.2039
657.16         37.6118
657.59        37.07418
658.02        37.60979
658.45        38.57102
658.87        38.92279
659.30        39.32738
659.73         39.4865
660.15        39.75076
660.58        40.40955
661.01        40.68567
661.44        40.74701
661.86        40.84983
662.29         41.0735
662.72        41.47671
663.14        41.99685
663.57        42.21946
664.00        42.19457
664.42        42.37571
664.85        42.80318
665.27        43.19936
665.70        43.50464
666.13          43.776
666.55        44.00369
666.98        44.17109
667.41         44.2986
667.83        44.41364
668.26        44.52346
668.69        44.62833
669.11        44.74131
669.54        44.87855
669.96        45.04068
670.39        45.24516
670.82         45.4601
671.24        45.58245
671.67        45.61992
672.09         45.7087
672.52        45.86617
672.94        46.05637
673.37        45.92867
673.80        46.35648
674.22        46.31904
674.65        46.57516
675.07        46.85136
675.50        47.15169
675.92        47.43068
676.35        47.62728
676.77        47.74202
677.20        47.74254
677.62         47.7042
678.05        47.81579
678.47        48.06818
678.90        48.28768
679.32        48.42021
679.75        48.51486
680.17        48.55272
680.60        48.49146
681.02        48.39642
681.45        48.39592
681.87        48.51622
682.30        48.75078
682.72        49.05138
683.15        49.19125
683.57        49.21268
684.00        49.41413
684.42        49.75513
684.85         49.9675
685.27        50.04356
685.70        50.02821
686.12        50.00539
686.54        50.33933
686.97        50.90807
687.39        51.11205
687.82        50.92932
688.24        50.90521
688.66        51.06153
689.09        51.08115
689.51        50.96695
689.94        50.91987
690.36        50.96392
690.78        50.95889
691.21        50.96099
691.63        51.27876
692.06        51.80655
692.48        52.03823
692.90        51.97544
693.33         52.0425
693.75        52.25381
694.17        52.33792
694.60        52.31783
695.02         52.3733
695.44        52.51785
695.87        52.72754
696.29        52.97001
696.71        53.10319
697.14        53.14346
697.56        53.24919
697.98         53.4277
698.41         53.5657
698.83        53.65829
699.25        53.78405
699.68        53.91096
700.10        54.01084
700.52        54.07198
700.94        54.07696
701.37        54.03352
701.79        54.17839
702.21        54.18404
702.64        54.31075
703.06        54.44953
703.48        54.59914
703.90         54.7544
704.33         54.9327
704.75        55.10207
705.17        55.25729
705.59        55.37425
706.01        55.45628
706.44        55.52461
706.86        55.60192
707.28        55.68485
707.70        55.83304
708.12        56.03448
708.55        56.09514
708.97        56.03809
709.39        56.37867
709.81        56.58493
710.23        56.87223
710.66        57.05569
711.08         57.2742
711.50        57.49371
711.92        57.64679
712.34        57.73735
712.76         57.7808
713.19        57.78834
713.61        57.81777
714.03         57.8681
714.45        57.92828
714.87        58.00422
715.29        58.10335
715.71        58.22248
716.13        58.36214
716.56        58.47758
716.98        58.56353
717.40        58.58826
717.82        58.56108
718.24        58.51964
718.66        58.52723
719.08        58.59838
719.50         58.7141
719.92        58.84126
720.34        58.92453
720.76        58.95054
721.19        58.93419
721.61        58.90996
722.03        58.90761
722.45        58.93763
722.87        58.99012
723.29        59.06425
723.71        59.12867
724.13        59.22784
724.55        59.33033
724.97        59.43027
725.39        59.48949
725.81         59.5078
726.23        59.49822
726.65        59.50342
727.07        59.59668
727.49        59.78743
727.91        60.04045
728.33        60.31271
728.75        60.53069
729.17        60.66527
729.59        60.74313
730.01        60.75344
730.43        60.67917
730.85        60.54286
731.27        60.36537
731.69        60.22878
732.10        60.26552
732.52        60.49436
732.94        60.87157
733.36        61.31929
733.78        61.67575
734.20        61.87822
734.62        62.00201
735.04        62.05982
735.46        62.01096
735.88        61.92986
736.30        61.94344
736.72        62.03581
737.13        62.19077
737.55        62.26131
737.97        61.95584
738.39        61.41773
738.81          61.113
739.23        61.16208
739.65        61.56297
740.06        62.10601
740.48        62.38953
740.90        62.33517
741.32        62.14853
741.74        61.95483
742.16        61.87988
742.57        61.98267
742.99        62.21957
743.41        62.50935
743.83        62.66858
744.25        62.68319
744.67        62.70419
745.08        62.75912
745.50        62.78486
745.92        62.79979
746.34        62.82948
746.75        62.90673
747.17        63.04202
747.59        63.22237
748.01         63.5232
748.42        63.86126
748.84        63.86346
749.26        63.56771
749.68        63.61029
750.09        63.50657
750.51        63.54019
750.93        63.51952
751.35        63.42517
751.76        63.30841
752.18        63.31144
752.60        63.44022
753.01        63.74357
753.43        63.87497
753.85        64.02816
754.27        64.10824
754.68        64.15477
755.10        64.17494
755.52        64.19137
755.93        64.19888
756.35        64.16352
756.77         64.1861
757.18        64.33345
757.60        64.61051
758.02        65.25977
758.43        65.95962
758.85         65.6608
759.26        64.61333
759.68        64.05235
760.10         64.4637
760.51        64.75777
760.93        64.90963
761.34        65.13268
761.76        65.30356
762.18        65.16814
762.59        64.78915
763.01        64.37271
763.42        64.07085
763.84        63.94417
764.26        64.05553
764.67        64.27652
765.09        64.59525
765.50        65.21053
765.92        65.92361
766.33        66.04899
766.75        65.53561
767.16        65.20757
767.58         65.0908
768.00        64.91104
768.41        64.72307
768.83         64.9969
769.24        65.53738
769.66        65.61716
770.07        65.27654
770.49        65.10873
770.90        65.21329
771.32        65.52457
771.73         65.9283
772.15        66.03914
772.56        65.82669
772.97        65.69501
773.39        65.32467
773.80        65.43307
774.22        65.83511
774.63        66.22164
775.05        66.42568
775.46        66.55022
775.88        66.53113
776.29        66.28687
776.70        65.91922
777.12        65.70679
777.53        65.71335
777.95        65.83287
778.36        66.03258
778.77        66.24654
779.19        66.46606
779.60        66.72617
780.02        66.89963
780.43        67.03281
780.84        67.23872
781.26         66.4726
781.67        66.84176
782.09        67.18134
782.50        67.85728
782.91        67.77567
783.33        67.01051
783.74        66.63134
784.15        66.68272
784.57        66.55198
784.98        66.27505
785.39        66.22635
785.81        66.43224
786.22        66.78534
786.63        67.21346
787.04        67.60354
787.46        67.90317
787.87        68.10512
788.28        68.25957
788.70        68.39542
789.11        68.51472
789.52        68.73899
789.93        68.96727
790.35        68.67775
790.76        68.32664
791.17        67.90186
791.58        67.70059
792.00        67.85633
792.41        68.32335
792.82        68.84713
793.23        69.24951
793.65          69.293
794.06        69.05025
794.47        68.97651
794.88        69.05795
795.29         68.8927
795.71        68.47074
796.12        68.10626
796.53        67.91563
796.94        67.95466
797.35         68.2524
797.76        68.79663
798.18        69.40258
798.59        69.80241
799.00        69.89951
799.41        69.76407
799.82         69.4955
800.23        69.28171
800.64        69.19186
801.06        69.14766
801.47         69.1935
801.88        69.29292
802.29        69.41902
802.70        69.64333
803.11        69.92571
803.52         69.8402
803.93        69.91522
804.34        69.74271
804.75         69.5369
805.17        69.42307
805.58        69.48027
805.99        69.50375
806.40          69.507
806.81        69.89731
807.22        70.48293
807.63        70.40221
808.04        69.78606
808.45        69.61346
808.86        69.96786
809.27        70.37148
809.68        70.64072
810.09        70.57067
810.50        70.18066
810.91          69.846
811.32        69.70681
811.73        69.66298
812.14          69.753
812.55        70.12299
812.96        70.62486
813.37        70.86712
813.78        70.76415
814.19        70.44942
814.60        70.07744
815.01        69.86652
815.42        69.87171
815.83        70.01379
816.24        70.23416
816.65        70.42449
817.05        70.52911
817.46        70.55016
817.87        70.50875
818.28        70.37635
818.69        70.16617
819.10        69.88997
819.51        69.61832
819.92        69.48866
820.33        69.54636
820.74        69.75293
821.14        70.06018
821.55        70.39814
821.96        70.72334
822.37        71.04608
822.78         71.3187
823.19        71.46135
823.60        71.44378
824.00        71.26611
824.41        70.98358
824.82        70.72549
825.23        70.52818
825.64        70.38799
826.04        70.26473
826.45        70.00772
826.86        69.63638
827.27        69.21964
827.68        68.89288
828.08        68.87919
828.49         69.1732
828.90        69.72687
829.31        70.41505
829.72        71.01794
830.12        71.47484
830.53        71.75499
830.94        71.91818
831.35        72.04136
831.75        72.16586
832.16        72.17657
832.57        72.10439
832.97        71.97251
833.38        71.80324
833.79        71.67527
834.20        71.52666
834.60        71.22479
835.01        70.80505
835.42        70.28231
835.82          69.924
836.23        70.10772
836.64        70.90988
837.04        72.22939
837.45        73.56039
837.86        74.19739
838.26        73.94093
838.67        73.00845
839.08        71.81783
839.48         71.0075
839.89        70.80658
840.29        71.02763
840.70        71.48167
841.11        71.87698
841.51        72.12721
841.92        72.29326
842.33        72.45248
842.73        72.69729
843.14        72.99212
843.54        73.30726
843.95        73.54716
844.35        73.64802
844.76        73.57152
845.17        73.33096
845.57        73.03738
845.98        72.83451
846.38        72.77721
846.79        72.83112
847.19        72.85278
847.60        72.54701
848.00        71.90474
848.41        71.06548
848.81         70.3064
849.22        70.02837
849.62        70.34614
850.03        71.08153
850.43        72.08092
850.84        72.86681
851.24        73.31741
851.65        73.44881
852.05        73.33878
852.46        73.07811
852.86         72.7267
853.27         72.3398
853.67        71.89675
854.07        71.54403
854.48        71.25352
854.88         71.0374
855.29        70.86247
855.69        70.85047
856.10        70.92056
856.50         71.1471
856.90        71.35766
857.31        71.33423
857.71        71.09128
858.12        70.64629
858.52        70.21436
858.92        70.11186
859.33         70.3868
859.73        70.97244
860.13        71.65216
860.54        72.07994
860.94        72.19644
861.34         72.0265
861.75        71.62276
862.15        71.14505
862.55        70.64408
862.96        70.11824
863.36        69.56868
863.76        69.01067
864.17        68.48886
864.57        68.06194
864.97        67.77881
865.38        67.65511
865.78        67.71507
866.18        67.90225
866.58        68.24035
866.99        68.74655
867.39        69.41724
867.79        70.17695
868.19        70.77687
868.60        70.86447
869.00        70.40856
869.40        69.51074
869.80        68.56886
870.21        68.26135
870.61        68.79353
871.01        69.92236
871.41        71.17207
871.81        71.78481
872.22        71.55427
872.62        70.69937
873.02        69.58587
873.42        68.82309
873.82        68.62068
874.22        68.84614
874.63        69.21503
875.03         69.2929
875.43         68.9892
875.83        68.43611
876.23        68.01633
876.63        68.34641
877.03        69.50288
877.44         71.1856
877.84        72.84901
878.24        73.51899
878.64        72.99852
879.04        71.68008
879.44        70.07765
879.84        68.93688
880.24        68.47253
880.64        68.43964
881.04        68.78715
881.44        69.42449
881.84        70.25006
882.24        71.32665
882.65        72.30595
883.05        72.69022
883.45        72.32294
883.85        71.36678
884.25        70.29539
884.65        69.86394
885.05        70.21981
885.45        71.09271
885.85        72.17844
886.25        72.94006
886.65        73.16242
887.05        73.04281
887.45        72.53271
887.85        71.56557
888.25        70.29762
888.65        68.84775
889.04        67.60715
889.44        67.16064
889.84        67.53226
890.24        68.59393
890.64        70.02687
891.04        71.10199
891.44        71.50529
891.84        71.42014
892.24        71.07668
892.64        70.83096
893.04        70.78082
893.44        70.78069
893.83        70.85603
894.23        70.99461
894.63        71.20448
895.03        71.53585
895.43        71.84653
895.83        71.89115
896.23         71.6367
896.63        71.12057
897.02        70.58942
897.42        70.52364
897.82        70.98937
898.22        71.86951
898.62        72.76748
899.01        73.03326
899.41        72.51566
899.81         71.4343
900.21        70.25856
900.61        69.71193
901.00        69.94984
901.40        70.74313
901.80        71.66842
902.20        72.03005
902.59        71.64619
902.99        70.76074
903.39        69.72814
903.79        69.06162
904.18         68.9044
904.58        69.12077
904.98        69.50175
905.38         69.7484
905.77         69.7459
906.17        69.57511
906.57        69.39476
906.96        69.47517
907.36        69.83032
907.76        70.39452
908.15        70.88374
908.55        70.72078
908.95        69.88859
909.34        68.59206
909.74        67.40467
910.14        67.06205
910.53        67.74847
910.93        69.17648
911.33        70.96001
911.72        72.48574
912.12         73.4372
912.52        73.97131
912.91        74.19286
913.31        74.28542
913.70        74.33184
914.10        74.21629
914.49        73.89812
914.89        73.32687
915.29        72.55182
915.68        71.67507
916.08        70.89742
916.47        70.36458
916.87        70.17163
917.26        70.23964
917.66        70.51629
918.05        70.92648
918.45        71.35959
918.84        71.86235
919.24        72.26624
919.64        72.43996
920.03        72.35938
920.42        72.03168
920.82        71.62804
921.21        71.33033
921.61        71.21201
922.00        71.24967
922.40          71.382
922.79        71.58098
923.19        71.78046
923.58        72.00252
923.98        72.21805
924.37        72.39037
924.77        72.50111
925.16        72.56255
925.55        72.54816
925.95        72.43195
926.34        72.24149
926.74        71.96812
927.13          71.704
927.52        71.56005
927.92        71.56477
928.31        71.67777
928.70        71.79931
929.10         71.7439
929.49        71.47385
929.89        71.01989
930.28        70.52338
930.67        70.16302
931.07        69.99699
931.46        69.98296
931.85        70.03735
932.24        70.03452
932.64        69.96402
933.03        69.91077
933.42        69.90925
933.82        69.99122
934.21        70.18571
934.60        70.39001
934.99        70.71298
935.39        71.32967
935.78        72.27275
936.17        73.44765
936.56        74.36398
936.96        74.24617
937.35         73.0173
937.74        71.03164
938.13        69.04116
938.53        68.00197
938.92        68.05979
939.31         69.0027
939.70        70.37238
940.09        71.26015
940.49         71.3287
940.88        70.84589
941.27        70.21092
941.66        70.03962
942.05         70.4771
942.44        71.33503
942.84        72.21616
943.23        72.51579
943.62        72.02235
944.01         70.9623
944.40        69.87284
944.79        69.51573
945.18        70.04531
945.57          71.255
945.97        72.54225
946.36        73.10438
946.75        72.60072
947.14        71.29459
947.53        69.83602
947.92        69.19891
948.31        69.62016
948.70        70.86681
949.09         72.2915
949.48         72.7368
949.87        71.91293
950.26        70.21803
950.65        68.51231
951.04        67.98729
951.43        68.87318
951.82        70.83775
952.21        73.07427
952.60        74.09411
952.99        73.44807
953.38        71.60826
953.77        69.54032
954.16        68.52441
954.55        68.81824
954.94         70.1397
955.33        71.70651
955.72        71.89965
956.11        70.26798
956.50        67.48404
956.89        64.79561
957.28        63.76542
957.66        64.70343
958.05        67.07327
958.44         70.0175
958.83        71.76147
959.22        71.64635
959.61         70.2707
960.00        68.46069
960.39         67.2733
960.78        66.93916
961.16         67.1256
961.55        67.52972
961.94        67.68636
962.33        67.42649
962.72        67.04449
963.11         66.6617
963.49        66.36876
963.88        66.21702
964.27        66.13251
964.66        66.23603
965.04         66.8192
965.43         67.8054
965.82        69.08639
966.21        70.34058
966.60        70.97966
966.98        70.85291
967.37        70.20551
967.76        69.23575
968.15        68.18866
968.53        67.15939
968.92        66.02444
969.31        65.11699
969.69        65.08494
970.08        66.03123
970.47         67.9358
970.86        69.97793
971.24        70.69981
971.63        69.74294
972.02         67.5609
972.40        65.28919
972.79        64.73193
973.17        66.20866
973.56        69.04781
973.95        72.25385
974.33        73.94688
974.72        73.46416
975.11        71.47579
975.49         68.9337
975.88        67.59121
976.26        67.88997
976.65        69.24947
977.04        71.10963
977.42        72.45138
977.81        72.73276
978.19        72.40087
978.58        71.69093
978.96        70.84329
979.35        70.06915
979.74        69.26427
980.12        68.67663
980.51        68.72665
980.89        69.53616
981.28        70.86054
981.66        72.50823
982.05          73.827
982.43        74.68586
982.82        75.15668
983.20        75.10394
983.59        74.26434
983.97        72.75301
984.35        70.69414
984.74        68.88078
985.12        68.38385
985.51        69.29369
985.89        71.42721
986.28        73.76846
986.66        74.94567
987.04        74.39063
987.43        72.52653
987.81        70.10378
988.20         68.7624
988.58        68.90955
988.96        70.14568
989.35        71.46291
989.73        71.45763
990.12          69.744
990.50        66.91912
990.88        63.88451
991.27        62.07175
991.65        61.82571
992.03         62.7394
992.42         64.2606
992.80        65.84463
993.18        67.15686
993.56        68.40482
993.95        69.45873
994.33        70.20132
994.71        70.51262
995.10        70.39327
995.48        70.07982
995.86         70.0694
996.24        70.49353
996.63         71.1709
997.01        72.05044
997.39        72.78635
997.77        73.20089
998.15        73.38107
998.54        73.26971
998.92        72.79038
999.30        71.96129
999.68        70.84843
1000.06         69.6746
1000.45        68.83314
1000.83        68.53887
1001.21        68.70597
1001.59        69.33011
1001.97        70.33337
1002.35        71.59061
1002.73        73.08466
1003.12        74.42689
1003.50        74.94542
1003.88        74.58804
1004.26         73.5507
1004.64        72.35577
1005.02        71.94838
1005.40        72.51935
1005.78         73.6601
1006.16        74.99393
1006.54        76.00848
1006.92        76.55866
1007.30        76.88908
1007.69        76.78419
1008.07        75.93026
1008.45         74.3428
1008.83        72.19118
1009.21        70.30743
1009.59        70.08665
1009.97        71.76106
1010.35        74.74739
1010.73        78.22214
1011.11        80.79082
1011.49        81.92052
1011.86        82.11226
1012.24        81.07508
1012.62        78.55616
1013.00        74.67753
1013.38        69.37132
1013.76        63.89054
1014.14        61.00784
1014.52        61.74618
1014.90        65.57054
1015.28        70.52753
1015.66        73.36492
1016.04        73.19698
1016.41        70.94743
1016.79        67.58693
1017.17        65.30172
1017.55        64.99417
1017.93        65.78581
1018.31         67.2657
1018.69         69.3676
1019.06        72.29747
1019.44        76.43027
1019.82        81.94186
1020.20        87.02805
1020.58        89.52055
1020.95         89.1237
1021.33        86.84602
1021.71        83.94435
1022.09        80.48985
1022.46        75.64484
1022.84        69.73675
1023.22        64.49516
1023.60        61.84502
1023.97        62.01312
1024.35         63.5282
1024.73        64.47032
