SpectraSmart Spectrum 2.9.0.0
--------- Device Information -----------
Spectrum Name :  反射率_0
Saving Time :  2024/04/30 01:09:42
Spectro-Module Model Name : SE2030-DUVN
Spectro-Module Serial Number : OS361AC55029948
Wavelength Start : 200
Wavelength End : 1025
Wavelength Unit : Wavelength(nm)
Spectrum Unit : Reflectance(%)
-----------Spectrum Setting ------------
Integration Time : 20ms
Average : 10
Boxcar : 0
Background removal :  enabled
linearity correction :  enabled
SC :  disabled
Intensity correction :  disabled
DWT denoise :  enabled
savitzky-golay :  disabled
FFT :  disabled
Running average :  disabled
Kalman :  disabled
High pass :  disabled
---------------BEGIN--------------------
Wavelength(nm)             Reflectance(%)
200.29               0
200.75        80.75066
201.21         62.3116
201.67        39.62489
202.13        20.43104
202.58         8.53548
203.04        2.120111
203.50        1.498255
203.96         6.79743
204.42        16.70412
204.88         31.1937
205.34        44.74312
205.80        48.69154
206.26         44.0263
206.72        36.01794
207.18        28.08744
207.64        22.26605
208.10        18.10315
208.55        13.93737
209.01        11.30982
209.47        13.96152
209.93        21.22647
210.39        30.85176
210.85        38.15423
211.31        39.09908
211.77        33.39774
212.23        20.09573
212.69        1.888483
213.14         -4.9308
213.60         7.01096
214.06        27.70948
214.52        45.15023
214.98        51.99091
215.44        49.84247
215.90        41.87415
216.36        31.68075
216.81        26.01353
217.27        28.44926
217.73        38.29503
218.19        54.72946
218.65        69.06263
219.11        73.46331
219.57        70.14734
220.02        64.46758
220.48        60.98366
220.94        59.39136
221.40        58.04963
221.86          54.979
222.32        47.83003
222.77        38.97702
223.23        32.44733
223.69        28.51455
224.15        26.15811
224.61        24.67948
225.06        23.67706
225.52        24.11793
225.98        27.15763
226.44        31.78214
226.90        36.38764
227.36        39.68032
227.81        41.09709
228.27        41.01113
228.73        39.73389
229.19        37.83936
229.65        36.65201
230.10        36.62693
230.56        37.28112
231.02        37.96469
231.48        38.08667
231.93        37.56971
232.39        36.71138
232.85        35.80758
233.31        35.44889
233.77        35.81215
234.22        36.77934
234.68         37.8533
235.14        38.17149
235.60        37.54868
236.05        36.28536
236.51        35.11135
236.97        34.91934
237.43         35.9617
237.88        38.32916
238.34        41.58464
238.80        44.41526
239.26        45.68788
239.71        45.60159
240.17        44.77892
240.63        44.60112
241.08         45.6071
241.54        47.76234
242.00         51.5765
242.46        56.43513
242.91        60.40447
243.37        62.36924
243.83        62.24497
244.28        60.84292
244.74        58.32531
245.20        53.95462
245.66        49.12591
246.11        47.52663
246.57        51.05231
247.03        59.55344
247.48        69.10989
247.94        70.15541
248.40        63.04333
248.85         53.6011
249.31         46.8566
249.77        44.76199
250.22        46.90188
250.68        53.04458
251.14        64.00494
251.59        73.71299
252.05        74.67704
252.51        70.77189
252.96        66.03861
253.42         62.4261
253.88        59.25623
254.33        55.53604
254.79         52.3358
255.25        51.51503
255.70        52.85795
256.16         55.3349
256.62        57.45301
257.07        58.24822
257.53        58.27917
257.99        57.79119
258.44        57.01066
258.90        56.87857
259.35        57.01138
259.81        57.35458
260.27        57.50683
260.72        57.19912
261.18        56.64561
261.63        55.73087
262.09        54.73197
262.55        53.66256
263.00        52.55013
263.46        51.62418
263.91        50.65266
264.37        49.64814
264.83         48.5331
265.28        47.26315
265.74        46.20766
266.19        45.69562
266.65        45.79917
267.11        46.31959
267.56        46.77755
268.02        46.50374
268.47        45.36865
268.93        43.58166
269.38        41.60732
269.84        40.37467
270.30        40.09951
270.75        40.47843
271.21         40.9907
271.66        40.85044
272.12        39.90619
272.57        38.40739
273.03        36.75902
273.48        35.50434
273.94        34.85833
274.39        34.58008
274.85        34.47842
275.31          34.222
275.76        33.71141
276.22        33.09037
276.67        32.44767
277.13        31.99256
277.58        31.70344
278.04        31.53817
278.49        31.31567
278.95         30.8892
279.40        30.20454
279.86        29.41049
280.31        28.62001
280.77        28.11482
281.22        27.89862
281.68         27.9023
282.13        27.98928
282.59        28.02199
283.04        27.93432
283.50        27.77282
283.95        27.53752
284.41        27.24482
284.86        26.90393
285.32         26.5521
285.77        26.18639
286.22        25.87828
286.68        25.65476
287.13        25.46983
287.59        25.36045
288.04        25.31714
288.50        25.34333
288.95        25.40473
289.41        25.45934
289.86        25.40361
290.32         25.2521
290.77        25.03917
291.22        24.83453
291.68         24.7449
292.13        24.79222
292.59        24.96486
293.04        25.27447
293.50        25.76668
293.95        26.42459
294.40        27.23616
294.86        28.08495
295.31        28.80334
295.77        29.34741
296.22        29.74653
296.68        30.12259
297.13        30.64892
297.58        31.37283
298.04        32.21283
298.49        33.06096
298.95        33.74698
299.40        34.23005
299.85        34.57748
300.31        34.87956
300.76        35.21137
301.21        35.62703
301.67        36.09981
302.12        36.57948
302.58        37.13619
303.03        37.74146
303.48        38.25943
303.94        38.64305
304.39        39.44743
304.84        39.59399
305.30        39.96089
305.75        40.21684
306.20        40.41857
306.66         40.5872
307.11        40.70931
307.57        40.83678
308.02        40.95955
308.47        41.09445
308.93        41.24396
309.38        41.37831
309.83        41.50244
310.29        41.61307
310.74        41.70742
311.19        41.75558
311.65        41.70547
312.10         41.5494
312.55        41.30626
313.00        41.06573
313.46        40.96685
313.91        41.02086
314.36        41.19268
314.82        41.36478
315.27        41.36655
315.72        41.14803
316.18        40.77174
316.63        40.33619
317.08        40.01044
317.53        39.84723
317.99        39.80748
318.44        39.81499
318.89        39.75484
319.35        39.59356
319.80        39.36249
320.25        39.13834
320.70        39.04222
321.16        39.08189
321.61        39.23111
322.06        39.36242
322.51           39.28
322.97        38.94501
323.42        38.43609
323.87        37.89259
324.32        37.53842
324.78        37.41888
325.23        37.48051
325.68        37.61983
326.13        37.66407
326.59        37.54668
327.04        37.33732
327.49        37.06956
327.94        36.81264
328.39        36.58918
328.85        36.35069
329.30        36.12587
329.75        35.91446
330.20        35.72037
330.66        35.55439
331.11        35.40276
331.56        35.20341
332.01        34.94821
332.46           34.65
332.92        34.34911
333.37        34.16376
333.82        34.10833
334.27        34.15164
334.72        34.22896
335.17         34.2319
335.63        34.12238
336.08        33.94522
336.53        33.72891
336.98        33.54251
337.43        33.41342
337.88        33.31971
338.34        33.25162
338.79        33.21663
339.24        33.20215
339.69        33.21603
340.14        33.23485
340.59        33.21729
341.05         33.1554
341.50        33.05117
341.95        32.93652
342.40        32.87216
342.85        32.86501
343.30        32.89019
343.75        32.89491
344.20        32.79677
344.66        32.59236
345.11        32.31164
345.56        32.00702
346.01        31.75793
346.46        31.59513
346.91        31.49548
347.36        31.45628
347.81        31.47185
348.26         31.5258
348.72        31.61218
349.17        31.68977
349.62        31.68374
350.07        31.57933
350.52        31.40082
350.97        31.19552
351.42        31.03679
351.87        30.94925
352.32        30.91873
352.77        30.93232
353.22        30.96734
353.67        31.00803
354.13        31.04851
354.58        31.08687
355.03         31.1218
355.48        31.14111
355.93        31.13482
356.38        31.06633
356.83        30.88424
357.28        30.59204
357.73          30.221
358.18        29.83335
358.63        29.52531
359.08        29.32189
359.53         29.1939
359.98        29.11316
360.43        29.02978
360.88         28.9233
361.33        28.81201
361.78         28.6779
362.23        28.49201
362.68        28.25708
363.13        27.97972
363.58         27.7112
364.03        27.53603
364.48        27.46891
364.93        27.48353
365.38        27.52163
365.83        27.48803
366.28         27.3567
366.73        27.15428
367.18        26.92159
367.63        26.72365
368.08        26.57854
368.53        26.46659
368.98        26.36366
369.43        26.23066
369.88        26.06198
370.33        25.88035
370.78        25.70761
371.23        25.57712
371.68        25.49424
372.13        25.43373
372.58         25.3884
373.03        25.35047
373.48        25.30364
373.93        25.24529
374.38        25.13111
374.83        24.89256
375.28        24.53625
375.72        24.09767
376.17        23.67633
376.62        23.36671
377.07         23.1903
377.52        23.11294
377.97         23.1136
378.42        23.15304
378.87        23.20601
379.32        23.27949
379.77        23.33102
380.22        23.30106
380.67        23.17767
381.11        22.96047
381.56        22.71504
382.01        22.55583
382.46        22.51198
382.91         22.5647
383.36          22.619
383.81        22.52425
384.26        22.26149
384.71        21.88226
385.15        21.51518
385.60        21.38835
386.05        21.52296
386.50        21.83043
386.95        22.15664
387.40        22.26157
387.85        22.09886
388.29        21.75428
388.74        21.36452
389.19        21.04648
389.64        20.83734
390.09        20.68353
390.54        20.60224
390.98        20.62278
391.43        20.73564
391.88        20.92529
392.33         21.0868
392.78        21.08872
393.23        20.92304
393.67        20.58848
394.12        20.21322
394.57        20.11847
395.02        20.04302
395.47        20.16825
395.91        20.32997
396.36        20.38409
396.81        20.29974
397.26         20.1364
397.71        19.95263
398.15        19.82241
398.60        19.79206
399.05        19.78281
399.50        19.78297
399.95        19.86942
400.39        19.92924
400.84        19.96032
401.29        19.91905
401.74        19.84944
402.18        19.75426
402.63        19.58866
403.08        19.40994
403.53        19.32117
403.97        19.33701
404.42         19.4302
404.87        19.53213
405.32           19.53
405.76         19.3947
406.21        19.16965
406.66        18.92791
407.11        18.78518
407.55        18.77537
408.00        18.86373
408.45        18.97952
408.90        18.99506
409.34        18.87674
409.79        18.66379
410.24        18.45811
410.68        18.41058
411.13        18.54916
411.58        18.82525
412.03        19.11511
412.47        19.21043
412.92        19.05129
413.37        18.72192
413.81        18.35452
414.26        18.17061
414.71        18.20236
415.15        18.38515
415.60        18.61584
416.05        18.74169
416.49        18.71374
416.94        18.58721
417.39        18.40874
417.83        18.24681
418.28        18.13318
418.73        18.03603
419.17        17.96807
419.62        17.95472
420.07        17.99184
420.51        18.07717
420.96        18.16381
421.41        18.16315
421.85        18.05894
422.30        17.89761
422.74         17.7314
423.19        17.66971
423.64        17.72284
424.08        17.86207
424.53        18.02829
424.98        18.14738
425.42        18.19234
425.87        18.17379
426.31        18.09903
426.76        18.00866
427.21        17.85861
427.65        17.67541
428.10        17.49341
428.54        17.34336
428.99        17.25331
429.44        17.33251
429.88        17.49117
430.33        17.36182
430.77        17.04921
431.22        17.13164
431.66        17.57723
432.11        17.79589
432.56        17.70853
433.00        17.69031
433.45        17.71607
433.89        17.37861
434.34        16.87283
434.78        16.84273
435.23         17.2056
435.67        17.31008
436.12        17.12757
436.57        17.03008
437.01        17.05635
437.46        17.10197
437.90        17.16755
438.35        17.27029
438.79        17.38259
439.24        17.43297
439.68        17.43136
440.13        17.46238
440.57        17.49156
441.02        17.45823
441.46        17.36545
441.91        17.15319
442.35        16.90796
442.80        17.03618
443.24        17.41847
443.69        17.38985
444.13        16.99255
444.58        16.85682
445.02        16.98048
445.47        17.02271
445.91        16.96719
446.36        16.96498
446.80        17.00939
447.24        17.06315
447.69        17.11076
448.13        17.12863
448.58        17.11475
449.02        17.07902
449.47         17.0438
449.91         17.0324
450.36        17.05362
450.80        17.09718
451.25        17.14804
451.69        17.17897
452.13        17.17992
452.58        17.16462
453.02         17.1375
453.47        17.10443
453.91        17.06445
454.36        17.06514
454.80         17.0194
455.24        16.98608
455.69        16.94439
456.13        16.89412
456.58        16.85308
457.02        16.83071
457.46        16.83308
457.91        16.85664
458.35        16.87938
458.79        16.87671
459.24        16.85452
459.68        16.82605
460.13        16.81631
460.57        16.78875
461.01        16.87573
461.46        16.89865
461.90        16.89807
462.34        17.03574
462.79        17.22652
463.23        17.11569
463.68        16.77082
464.12        16.60639
464.56        16.64927
465.01          16.705
465.45         16.7268
465.89        16.72101
466.34        16.70613
466.78        16.76034
467.22        16.90589
467.67        16.90627
468.11        16.76878
468.55        16.58281
468.99         16.4147
469.44        16.32573
469.88        16.33534
470.32        16.43202
470.77        16.56133
471.21        16.64662
471.65        16.65803
472.10        16.62502
472.54        16.57644
472.98        16.57467
473.42        16.63221
473.87        16.72364
474.31         16.8155
474.75        16.86304
475.20        16.86107
475.64        16.82298
476.08        16.77316
476.52        16.74361
476.97         16.7448
477.41        16.76276
477.85        16.79775
478.29        16.84861
478.74        16.91564
479.18        16.98814
479.62        17.04602
480.06        17.09901
480.50        17.15299
480.95        17.05293
481.39         17.0827
481.83        17.11008
482.27        17.23392
482.72        17.30139
483.16        17.51253
483.60        17.61205
484.04        17.65641
484.48        17.63233
484.93        17.60615
485.37        17.70894
485.81        17.87788
486.25        17.97749
486.69         17.7607
487.14        17.81022
487.58        18.00333
488.02        18.24842
488.46        18.64484
488.90        18.67053
489.34        18.18012
489.79        18.03535
490.23        18.22323
490.67         18.5933
491.11        19.00105
491.55        19.03807
491.99        18.78096
492.43        18.82619
492.88        19.19531
493.32        19.48503
493.76        19.64757
494.20        19.83541
494.64        20.04576
495.08        20.22984
495.52        20.36007
495.96        20.44945
496.41        20.50823
496.85        20.42462
497.29        20.27844
497.73        20.54156
498.17        20.90655
498.61        21.06178
499.05        20.92931
499.49         20.9148
499.93        21.04719
500.37        21.16083
500.82        21.25254
501.26        21.36275
501.70        21.48995
502.14        21.64726
502.58        21.82811
503.02         21.9963
503.46        22.14393
503.90        22.28595
504.34        22.40981
504.78        22.49184
505.22        22.52996
505.66        22.52562
506.10        22.50215
506.54        22.52405
506.98        22.60784
507.42        22.69514
507.86        22.73938
508.30        22.92109
508.74        22.81149
509.18        22.76701
509.62         22.7128
510.06        22.73758
510.50         22.8547
510.94        23.04304
511.38        23.24999
511.82        23.37658
512.26        23.39701
512.70        23.33873
513.14        23.25454
513.58        23.22654
514.02        23.27642
514.46        23.38066
514.90        23.49556
515.34        23.55114
515.78        23.52929
516.22        23.45181
516.66        23.36512
517.10        23.33934
517.54        23.38811
517.98        23.48723
518.42        23.58343
518.86        23.59286
519.30        23.49857
519.74        23.33131
520.18        23.14879
520.62        23.03737
521.06        23.02019
521.50        23.07456
521.93        23.15896
522.37        23.19714
522.81        23.17114
523.25        23.10212
523.69        23.02917
524.13        23.01182
524.57        23.05919
525.01        23.14503
525.45        23.22456
525.89        23.22905
526.32         23.1395
526.76        22.98775
527.20         22.8117
527.64        22.66896
528.08        22.57711
528.52        22.52125
528.96        22.48349
529.40        22.43578
529.83        22.36752
530.27        22.28948
530.71        22.21186
531.15        22.15157
531.59        22.11015
532.03        22.07958
532.46         22.0386
532.90        21.96317
533.34        21.85129
533.78        21.71955
534.22        21.59344
534.66        21.50981
535.09        21.47541
535.53         21.4831
535.97        21.51856
536.41        21.56467
536.85        21.60975
537.28        21.65396
537.72        21.68654
538.16        21.69357
538.60        21.67395
539.04        21.63559
539.47         21.5829
539.91        21.54478
540.35        21.52583
540.79        21.52965
541.22        21.56458
541.66        21.64555
542.10        21.76965
542.54        21.93029
542.97        22.11309
543.41        22.29758
543.85        22.47385
544.29        22.64821
544.72        22.80319
545.16         22.9303
545.60         23.0292
546.04        23.09404
546.47        23.16019
546.91         23.3206
547.35        23.56864
547.79        23.80876
548.22        24.00265
548.66        24.22001
549.10        24.45958
549.53        24.60243
549.97        24.62663
550.41        25.00563
550.84        24.99591
551.28        25.15236
551.72        25.24827
552.15        25.50106
552.59         25.5908
553.03        25.77311
553.46        25.94067
553.90        26.06628
554.34        26.14232
554.77        26.20995
555.21        26.28559
555.65        26.32607
556.08        26.36034
556.52        26.50241
556.96        26.73126
557.39         26.9439
557.83        27.11825
558.27        27.26624
558.70        27.39108
559.14        27.48643
559.57         27.5554
560.01        27.66484
560.45        27.79931
560.88        27.78734
561.32        27.79691
561.75        27.85037
562.19        27.98812
562.63        28.08579
563.06        28.13402
563.50        28.20721
563.93        28.29325
564.37        28.37182
564.80        28.43449
565.24        28.49368
565.68        28.55285
566.11        28.63721
566.55        28.75138
566.98        28.84792
567.42        28.96094
567.85        29.08843
568.29        29.23566
568.72        29.47424
569.16        29.82523
569.60        29.75169
570.03        30.17485
570.47         30.3045
570.90        30.37199
571.34        30.68596
571.77        30.68231
572.21        30.83304
572.64        30.97132
573.08        31.05737
573.51        31.08143
573.95        31.35569
574.38        31.38813
574.82        31.36654
575.25        31.64038
575.69         31.5607
576.12        31.27601
576.56        31.67707
576.99        31.61347
577.42        31.64325
577.86        31.61126
578.29         31.5916
578.73        31.65288
579.16        31.49005
579.60        31.38356
580.03        31.10665
580.47        31.28833
580.90        31.25002
581.33        31.11565
581.77        31.23383
582.20        31.06553
582.64        30.86556
583.07        30.57218
583.51        30.26655
583.94        30.11989
584.37        29.93563
584.81         29.7826
585.24        29.82895
585.68        29.97945
586.11        29.88137
586.54        29.42067
586.98        29.34835
587.41        29.73679
587.85         29.9154
588.28         29.2496
588.71        29.62251
589.15        29.38232
589.58        29.21691
590.01        29.21605
590.45          29.093
590.88        29.04819
591.31        29.19785
591.75        29.45453
592.18        29.40495
592.61        29.13941
593.05        29.01621
593.48        29.50484
593.91        29.69076
594.35        29.37598
594.78        29.37475
595.21        29.61515
595.65        29.63736
596.08        29.45983
596.51        30.00069
596.94        30.31434
597.38        30.70542
597.81         30.8178
598.24        31.17454
598.68        31.36704
599.11        31.54082
599.54        32.31204
599.97        32.47973
600.41        32.37804
600.84          32.642
601.27        33.06237
601.70        33.59859
602.14        34.09346
602.57        34.45549
603.00         34.6821
603.43        35.07594
603.87        35.55661
604.30         36.0224
604.73        36.46466
605.16        36.91821
605.60        37.36703
606.03        37.90279
606.46        38.41264
606.89        38.77077
607.32        39.02633
607.76        39.34895
608.19        39.76754
608.62        40.15836
609.05        40.52449
609.48        40.95764
609.92        41.30405
610.35        41.53184
610.78        42.04469
611.21        41.95002
611.64        42.37563
612.07        42.62298
612.50        42.87545
612.94        43.26361
613.37        43.82851
613.80        43.73924
614.23        44.44586
614.66        44.66207
615.09        44.81525
615.52        44.91585
615.96        45.02814
616.39        45.15353
616.82         45.2511
617.25        45.74141
617.68        45.73816
618.11        46.03888
618.54        46.33406
618.97        46.51758
619.40        46.50892
619.84        46.63892
620.27        46.92608
620.70        47.22433
621.13         47.4532
621.56        47.63902
621.99        47.58321
622.42        47.41324
622.85        47.75036
623.28        47.47356
623.71        47.95972
624.14        47.35315
624.57        47.78997
625.00        47.69262
625.43        47.59658
625.86         47.4073
626.29        47.14027
626.72        47.17444
627.15        46.90962
627.58        46.87281
628.01        46.82194
628.44        46.58496
628.87        46.20392
629.30        45.92043
629.73        45.72531
630.16        45.69464
630.59        45.20744
631.02        45.01535
631.45         44.7258
631.88        44.42797
632.31        44.05106
632.74        43.63435
633.17        43.19067
633.60        42.72908
634.03        42.26232
634.46        41.78259
634.89        41.30735
635.32        40.87069
635.75        40.47664
636.18        40.11297
636.61        39.75861
637.04         39.3836
637.47        38.98722
637.89        38.55523
638.32        38.08154
638.75        37.67374
639.18         37.3633
639.61        36.76551
640.04        36.56219
640.47        36.23888
640.90        35.99577
641.33         35.8194
641.76        35.69091
642.18        35.56762
642.61        35.42227
643.04        35.27142
643.47        35.15268
643.90        35.11555
644.33        35.16547
644.76        35.33229
645.18        35.54607
645.61        35.59565
646.04        35.43468
646.47        35.50517
646.90        35.78927
647.33        36.01866
647.75        36.18361
648.18        36.45074
648.61        36.81506
649.04        37.20962
649.47        37.61875
649.89        38.02301
650.32        38.41189
650.75        38.85207
651.18        39.35373
651.61        39.84344
652.03        40.36017
652.46        41.05745
652.89        41.81044
653.32        42.36201
653.74        42.82705
654.17        43.00465
654.60        43.17207
655.03        44.96692
655.46        44.02223
655.88        45.74469
656.31        48.95021
656.74        49.48262
657.16        48.61531
657.59        47.30904
658.02        47.62973
658.45         48.7806
658.87         49.3503
659.30        49.38361
659.73        49.82324
660.15           50.47
660.58        50.71941
661.01        51.03838
661.44        51.18747
661.86        51.18089
662.29        51.12937
662.72        51.47627
663.14        52.14304
663.57        52.32154
664.00        52.08384
664.42        52.17641
664.85        52.64564
665.27        53.05402
665.70        53.32673
666.13        53.57442
666.55        53.78334
666.98         53.9154
667.41        53.99557
667.83        54.06049
668.26        54.11931
668.69         54.1762
669.11        54.23519
669.54        54.29943
669.96        54.36929
670.39        54.45475
670.82        54.55124
671.24        54.60926
671.67        54.67648
672.09        54.73438
672.52        54.80849
672.94        54.93605
673.37        54.69637
673.80        55.07799
674.22        54.87671
674.65        55.04223
675.07        55.26094
675.50        55.53241
675.92        55.80645
676.35        55.99534
676.77        56.09161
677.20        56.09844
677.62        56.07224
678.05        56.10515
678.47         56.2151
678.90         56.3801
679.32        56.54004
679.75         56.6098
680.17        56.56862
680.60        56.45845
681.02        56.34162
681.45        56.31655
681.87        56.41275
682.30         56.5899
682.72        56.81354
683.15        56.98205
683.57        57.09023
684.00        57.18294
684.42         57.2742
684.85        57.38897
685.27        57.53316
685.70        57.63088
686.12        57.70504
686.54        57.99787
686.97        58.41196
687.39        58.59175
687.82        58.49463
688.24        58.43211
688.66        58.41692
689.09        58.26381
689.51        58.03823
689.94        57.95565
690.36        58.04546
690.78        58.21531
691.21        58.42328
691.63         58.6924
692.06        58.94753
692.48        59.00988
692.90        58.92233
693.33        58.92944
693.75        59.05735
694.17        59.16252
694.60        59.23039
695.02        59.29858
695.44         59.3573
695.87        59.44674
696.29        59.55704
696.71        59.53055
697.14        59.42376
697.56         59.4874
697.98        59.70754
698.41        59.84518
698.83        59.88369
699.25        59.98093
699.68        60.10771
700.10        60.17955
700.52        60.17524
700.94        60.13654
701.37        60.06986
701.79        59.99867
702.21        59.93091
702.64        59.87641
703.06          59.859
703.48        59.92416
703.90        60.07712
704.33        60.31038
704.75        60.55809
705.17        60.77102
705.59        60.90762
706.01        60.98692
706.44        61.02204
706.86        61.05438
707.28        61.09841
707.70        61.11322
708.12        61.13402
708.55        61.27797
708.97        61.51615
709.39        61.66457
709.81        61.72121
710.23        61.85567
710.66        62.05864
711.08        62.22748
711.50        62.34028
711.92        62.44847
712.34        62.55395
712.76         62.6473
713.19        62.69427
713.61        62.68191
714.03        62.59659
714.45        62.45602
714.87        62.33343
715.29         62.3347
715.71        62.47569
716.13         62.7278
716.56        62.98046
716.98        63.11915
717.40        63.07803
717.82        62.90144
718.24        62.68381
718.66        62.57932
719.08        62.63026
719.50        62.78747
719.92        62.98206
720.34        63.11745
720.76        63.16435
721.19         63.1089
721.61        63.00627
722.03        63.02026
722.45        63.12222
722.87        63.05755
723.29        62.85858
723.71        62.78658
724.13        62.85985
724.55        62.94738
724.97        63.00991
725.39        63.03987
725.81        63.02939
726.23        62.98484
726.65        62.95492
727.07        63.02039
727.49        63.19158
727.91        63.42953
728.33        63.68606
728.75         63.8799
729.17        63.98055
729.59        64.01839
730.01        63.98675
730.43        63.87568
730.85        63.70897
731.27        63.50377
731.69        63.34269
732.10        63.35775
732.52        63.57041
732.94        63.94216
733.36        64.38283
733.78        64.72607
734.20        64.90697
734.62        64.95014
735.04          64.909
735.46        64.89709
735.88        64.93285
736.30        64.94354
736.72        64.91322
737.13        64.86442
737.55        64.76463
737.97        64.65504
738.39        64.56144
738.81        64.42779
739.23        64.31121
739.65        64.45267
740.06        64.74205
740.48        64.84106
740.90        64.70218
741.32        64.49619
741.74        64.32087
742.16        64.26597
742.57        64.37314
742.99        64.61452
743.41        64.89622
743.83        65.01503
744.25        64.95451
744.67         64.8569
745.08        64.79787
745.50         64.7994
745.92        64.89447
746.34         65.0837
746.75        65.31831
747.17         65.4953
747.59        65.58756
748.01        65.65619
748.42         65.7012
748.84        65.64276
749.26        65.53578
749.68        65.49033
750.09        65.50243
750.51        65.57226
750.93        65.63812
751.35        65.55367
751.76        65.37278
752.18        65.32146
752.60         65.4001
753.01        65.53569
753.43        65.67785
753.85        65.65347
754.27        65.42485
754.68         65.7614
755.10        65.44261
755.52        65.53162
755.93        65.64072
756.35        65.73611
756.77        65.87937
757.18        66.10033
757.60        66.39632
758.02        67.04855
758.43        67.71374
758.85        67.26972
759.26         65.8933
759.68        65.26601
760.10        65.53004
760.51        65.93192
760.93        66.22552
761.34        66.56931
761.76        66.78062
762.18        66.68824
762.59        66.41962
763.01        65.90423
763.42        65.96639
763.84         65.8013
764.26         65.6863
764.67        65.63467
765.09        65.72375
765.50        66.23226
765.92        66.96239
766.33        67.13018
766.75        66.68326
767.16        66.49759
767.58        66.63555
768.00        66.60413
768.41        66.43475
768.83        66.57766
769.24        66.88157
769.66        66.76039
770.07        66.29781
770.49        66.00782
770.90        66.01595
771.32        66.39515
771.73        66.98476
772.15        67.18302
772.56        66.92307
772.97        66.75275
773.39        66.35103
773.80        66.29546
774.22        66.47282
774.63        66.87862
775.05         67.3119
775.46        67.53997
775.88        67.46647
776.29        67.19763
776.70        66.84219
777.12        66.59988
777.53        66.54052
777.95        66.58735
778.36        66.71199
778.77        66.86049
779.19        67.01263
779.60        67.22295
780.02        67.42764
780.43        67.64539
780.84        67.86201
781.26        67.80433
781.67        67.60863
782.09        68.06904
782.50        68.94099
782.91        68.86118
783.33        67.91407
783.74        67.41835
784.15        67.45512
784.57        67.32904
784.98        67.07642
785.39        66.88869
785.81        67.12843
786.22        67.41844
786.63        67.80412
787.04        68.18105
787.46        68.50508
787.87        68.76604
788.28        68.97772
788.70        69.13818
789.11        69.23615
789.52        69.36754
789.93        69.47149
790.35        69.25227
790.76        68.81231
791.17        68.63514
791.58        68.76283
792.00        68.80114
792.41        68.75777
792.82        68.98138
793.23        69.37879
793.65        69.39737
794.06        69.12186
794.47        69.19377
794.88        69.57001
795.29        69.66975
795.71        69.44131
796.12        69.36181
796.53        69.43659
796.94        69.21182
797.35         68.8186
797.76        69.00986
798.18        69.65652
798.59        69.93527
799.00        69.75962
799.41        69.58599
799.82        69.50217
800.23        69.45882
800.64        69.48852
801.06        69.56412
801.47        69.70431
801.88        69.86816
802.29        70.02711
802.70        70.17269
803.11        70.26167
803.52        70.22795
803.93        70.08517
804.34        69.87075
804.75        69.63589
805.17        69.57036
805.58        69.75732
805.99        69.81181
806.40        69.79372
806.81        70.55977
807.22        71.73615
807.63        71.55751
808.04        70.23586
808.45        69.74072
808.86        70.24974
809.27        70.66304
809.68         70.7859
810.09        70.82264
810.50        70.72139
810.91        70.44203
811.32        70.13278
811.73        70.02361
812.14        70.16425
812.55        70.49438
812.96          70.882
813.37        71.07221
813.78        70.99398
814.19        70.75156
814.60        70.44141
815.01        70.19121
815.42        70.04199
815.83        69.94024
816.24        69.91402
816.65        70.02047
817.05        70.25231
817.46         70.5582
817.87        70.83965
818.28         70.8914
818.69        70.68481
819.10        70.27857
819.51        69.81748
819.92        69.58054
820.33         69.6554
820.74        69.94586
821.14        70.35258
821.55        70.72829
821.96        71.00806
822.37        71.24834
822.78         71.3973
823.19        71.36389
823.60        71.14137
824.00        70.73539
824.41        70.29595
824.82        70.10092
825.23         70.2021
825.64        70.54842
826.04         70.9538
826.45        71.00118
826.86        70.62596
827.27        69.96692
827.68        69.27844
828.08        68.98507
828.49        69.14754
828.90        69.66008
829.31        70.36218
829.72        70.97217
830.12        71.40317
830.53        71.66132
830.94        71.79972
831.35        71.86746
831.75        71.90982
832.16        71.81903
832.57           71.66
832.97        71.52339
833.38        71.44122
833.79        71.45387
834.20        71.47878
834.60        71.35597
835.01        71.10198
835.42        70.74072
835.82        70.48574
836.23        70.62508
836.64        71.22639
837.04        72.21484
837.45        73.19846
837.86        73.67186
838.26        73.49249
838.67        72.82875
839.08        71.97943
839.48        71.39126
839.89        71.24061
840.29        71.38728
840.70        71.72418
841.11        72.09523
841.51        72.44707
841.92        72.79243
842.33        73.12437
842.73        73.40009
843.14        73.55244
843.54         73.6049
843.95        73.55509
844.35        73.48322
844.76        73.38806
845.17        73.23624
845.57        73.07427
845.98        72.93778
846.38        72.85243
846.79        72.82926
847.19        72.74637
847.60        72.34726
848.00        71.63755
848.41        70.72157
848.81        69.91622
849.22         69.6876
849.62        70.15488
850.03        71.14591
850.43        72.37621
850.84        73.12858
851.24        73.23351
851.65        72.76955
852.05        72.07128
852.46         71.6584
852.86        71.65446
853.27        71.93636
853.67        72.18134
854.07        72.14503
854.48        71.73044
854.88        71.06207
855.29        70.27143
855.69        69.83118
856.10        69.81537
856.50        70.19736
856.90        70.67871
857.31        70.84496
857.71        70.64552
858.12        70.16521
858.52        69.66878
858.92        69.54046
859.33        69.85587
859.73        70.52285
860.13         71.2826
860.54        71.73404
860.94        71.80733
861.34        71.54222
861.75        71.07438
862.15        70.69791
862.55        70.47871
862.96        70.35891
863.36        70.19584
863.76        69.78423
864.17        69.12991
864.57        68.37096
864.97        67.68955
865.38        67.30171
865.78        67.28629
866.18        67.53071
866.58         68.0023
866.99         68.6021
867.39        69.27509
867.79        69.99106
868.19        70.51533
868.60        70.50801
869.00        69.95147
869.40        68.93761
869.80        67.89159
870.21        67.54861
870.61        68.12438
871.01        69.35915
871.41        70.75034
871.81        71.48992
872.22        71.35951
872.62        70.60193
873.02        69.57179
873.42        68.86377
873.82        68.68725
874.22        68.89256
874.63        69.25864
875.03        69.45836
875.43        69.40269
875.83         69.1865
876.23        69.05334
876.63        69.38205
877.03        70.21119
877.44          71.342
877.84        72.39716
878.24         72.6822
878.64        72.08215
879.04        70.88512
879.44        69.54723
879.84        68.72865
880.24        68.58643
880.64         68.8994
881.04        69.49915
881.44        70.09781
881.84        70.56364
882.24        71.00118
882.65        71.26108
883.05         71.2206
883.45        70.83374
883.85        70.16167
884.25        69.49236
884.65        69.28651
885.05        69.61974
885.45        70.32478
885.85        71.18118
886.25        71.79269
886.65        71.99792
887.05        71.92601
887.45        71.53584
887.85        70.78064
888.25        69.78458
888.65        68.64901
889.04        67.66646
889.44        67.29213
889.84        67.53236
890.24        68.27715
890.64        69.30891
891.04        70.11939
891.44        70.48371
891.84        70.54765
892.24        70.40295
892.64        70.20339
893.04        70.02216
893.44        69.77993
893.83        69.65668
894.23        69.90298
894.63         70.5653
895.03        71.56484
895.43        72.55515
895.83        72.99814
896.23        72.78007
896.63        72.01826
897.02          71.061
897.42        70.56282
897.82        70.66585
898.22        71.22195
898.62        71.83035
899.01        71.82935
899.41        71.07954
899.81        69.84499
900.21        68.61401
900.61        68.11776
901.00        68.50186
901.40         69.5055
901.80        70.68669
902.20        71.32495
902.59        71.20852
902.99        70.57224
903.39         69.7123
903.79        69.06462
904.18        68.77331
904.58        68.73145
904.98        68.83554
905.38        68.95663
905.77        69.01721
906.17        69.05124
906.57        69.11902
906.96        69.32513
907.36        69.64337
907.76        70.06622
908.15        70.37532
908.55        70.10753
908.95        69.28235
909.34        68.05466
909.74        66.98456
910.14        66.79078
910.53         67.6412
910.93        69.26408
911.33        71.21284
911.72        72.77444
912.12        73.61363
912.52        73.89565
912.91        73.84322
913.31        73.84904
913.70        74.04241
914.10        74.25655
914.49         74.2729
914.89        73.76133
915.29        72.73089
915.68        71.38652
916.08         70.1356
916.47        69.44591
916.87         69.4798
917.26        70.04289
917.66         70.9054
918.05        71.70203
918.45        72.22601
918.84         72.6067
919.24        72.75792
919.64        72.69739
920.03        72.46407
920.42        72.01614
920.82        71.51727
921.21        71.14368
921.61        70.95818
922.00        70.95394
922.40        71.05714
922.79        71.19978
923.19        71.31801
923.58        71.46038
923.98        71.60336
924.37        71.72665
924.77        71.81249
925.16        71.83772
925.55         71.8353
925.95        71.87544
926.34        71.98396
926.74        72.13671
927.13        72.23039
927.52        72.06097
927.92        71.61956
928.31        70.96668
928.70        70.31979
929.10        70.01321
929.49        70.11703
929.89        70.49576
930.28        70.96836
930.67        71.13835
931.07        70.90144
931.46        70.43348
931.85        69.85159
932.24         69.3278
932.64        68.95703
933.03        68.69739
933.42        68.66084
933.82        69.02646
934.21        69.79964
934.60        70.84638
934.99        71.96213
935.39        72.78124
935.78        73.23033
936.17        73.37662
936.56        73.09766
936.96        72.28682
937.35        71.05877
937.74         69.5277
938.13        68.21888
938.53        67.78782
938.92        68.28705
939.31        69.62485
939.70         71.2525
940.09        72.07625
940.49        71.74783
940.88        70.56937
941.27        69.22492
941.66          68.754
942.05        69.37507
942.44        70.81936
942.84        72.40794
943.23         72.9825
943.62        72.17716
944.01        70.40188
944.40        68.52933
944.79        67.81693
945.18        68.52806
945.57        70.29391
945.97        72.28501
946.36        73.29342
946.75        72.85081
947.14        71.37513
947.53        69.65456
947.92        68.86952
948.31        69.31938
948.70        70.66047
949.09        72.26335
949.48         73.0103
949.87        72.56664
950.26        71.32156
950.65        69.93113
951.04        69.28337
951.43        69.57847
951.82        70.56213
952.21        71.72842
952.60        72.17908
952.99        71.64953
953.38        70.43893
953.77        69.16622
954.16        68.63582
954.55        68.99933
954.94        70.08727
955.33        71.30954
955.72         71.4501
956.11        70.17439
956.50        67.96745
956.89        65.81749
957.28        64.97164
957.66        65.69306
958.05        67.56733
958.44        69.88734
958.83        71.18892
959.22        70.94857
959.61        69.64964
960.00         68.0518
960.39         67.1328
960.78        67.08324
961.16        67.62027
961.55        68.32533
961.94        68.48183
962.33        67.88362
962.72        66.92438
963.11          65.967
963.49        65.45161
963.88        65.48387
964.27        65.86588
964.66        66.58704
965.04        67.69064
965.43        68.98557
965.82        70.44962
966.21         71.6871
966.60        71.99441
966.98         71.2816
967.37        69.87437
967.76        68.25144
968.15        67.04494
968.53        66.39388
968.92         66.0604
969.31        66.15644
969.69        66.87374
970.08        68.11931
970.47        69.98934
970.86        71.72401
971.24        72.01138
971.63        70.60938
972.02         67.9462
972.40        65.30717
972.79          64.717
973.17        66.50083
973.56        69.91933
973.95        73.79428
974.33        75.89057
974.72        75.41468
975.11        73.12655
975.49        70.05807
975.88        68.10101
976.26        67.77493
976.65        68.47725
977.04        69.73727
977.42        70.70699
977.81        70.89663
978.19        70.71587
978.58        70.32276
978.96        69.80478
979.35        69.30595
979.74        68.75882
980.12        68.33357
980.51        68.32478
980.89          68.867
981.28        69.76998
981.66        71.04553
982.05        72.41023
982.43        73.81268
982.82        75.17637
983.20         76.2081
983.59         76.3288
983.97        75.48046
984.35        73.87537
984.74        72.15259
985.12         71.1648
985.51        71.06435
985.89        71.75625
986.28         72.7058
986.66        73.35602
987.04        73.34351
987.43        72.90834
987.81        72.26778
988.20          72.068
988.58         72.3657
988.96        72.96072
989.35        73.27452
989.73        72.66268
990.12        70.97974
990.50        68.62308
990.88        66.12314
991.27        64.32866
991.65        63.47262
992.03        63.37266
992.42        63.95331
992.80        65.37719
993.18        67.44955
993.56         70.1605
993.95        72.83454
994.33        74.31976
994.71        74.17667
995.10        72.77383
995.48        70.90477
995.86         69.8848
996.24        70.05958
996.63        70.96443
997.01        72.42413
997.39        73.85186
997.77        74.90231
998.15        75.78084
998.54        76.18555
998.92        75.62798
999.30        74.09389
999.68        71.70612
1000.06        69.16977
1000.45        67.86283
1000.83        68.27246
1001.21        69.99054
1001.59        72.42607
1001.97        74.52492
1002.35        75.83624
1002.73        76.62581
1003.12        76.71234
1003.50        75.74451
1003.88        73.89101
1004.26        71.33437
1004.64        68.82719
1005.02         67.7346
1005.40        68.33903
1005.78        70.08825
1006.16        72.41994
1006.54        74.56375
1006.92        76.26335
1007.30        77.80152
1007.69        78.70848
1008.07        78.16571
1008.45        75.99249
1008.83        72.42699
1009.21          68.726
1009.59        67.05257
1009.97        67.92176
1010.35        70.65544
1010.73        74.25864
1011.11        76.97378
1011.49        78.13769
1011.86        78.36015
1012.24         77.4075
1012.62        75.10666
1013.00        71.59302
1013.38        66.73383
1013.76        61.66645
1014.14        58.97198
1014.52        59.59789
1014.90        63.05077
1015.28         67.5635
1015.66         70.1749
1016.04        70.06712
1016.41        68.08334
1016.79        65.04139
1017.17         62.8205
1017.55        62.26696
1017.93        62.67003
1018.31        63.74294
1018.69        65.47998
1019.06        68.06449
1019.44        71.83375
1019.82        76.96326
1020.20        81.80181
1020.58        84.32275
1020.95        84.19009
1021.33        82.37917
1021.71        80.18446
1022.09        77.75986
1022.46        74.42891
1022.84        70.31552
1023.22        66.18867
1023.60        63.42995
1023.97        62.54446
1024.35        62.99702
1024.73        63.88012
