SpectraSmart Spectrum 2.9.0.0
--------- Device Information -----------
Spectrum Name :  反射率_0
Saving Time :  2024/04/30 00:45:21
Spectro-Module Model Name : SE2030-DUVN
Spectro-Module Serial Number : OS361AC55029948
Wavelength Start : 200
Wavelength End : 1025
Wavelength Unit : Wavelength(nm)
Spectrum Unit : Reflectance(%)
-----------Spectrum Setting ------------
Integration Time : 20ms
Average : 10
Boxcar : 0
Background removal :  enabled
linearity correction :  enabled
SC :  disabled
Intensity correction :  disabled
DWT denoise :  enabled
savitzky-golay :  disabled
FFT :  disabled
Running average :  disabled
Kalman :  disabled
High pass :  disabled
---------------BEGIN--------------------
Wavelength(nm)             Reflectance(%)
200.29               0
200.75        45.23758
201.21        38.01575
201.67        30.96165
202.13        25.32526
202.58        21.79687
203.04        20.68468
203.50        23.00118
203.96        30.43211
204.42        42.29986
204.88         56.5052
205.34        67.30212
205.80          67.537
206.26        59.27813
206.72        48.39091
207.18        38.46731
207.64        31.06636
208.10        25.55046
208.55         20.5202
209.01        17.07583
209.47        18.47899
209.93         24.3073
210.39        32.38141
210.85         39.1226
211.31        41.75572
211.77         40.3459
212.23        34.78836
212.69        26.44308
213.14        23.46441
213.60        29.12665
214.06        38.71496
214.52        46.82342
214.98        50.21353
215.44        49.69683
215.90        46.88327
216.36           43.33
216.81         41.8687
217.27        44.16264
217.73        49.87224
218.19        59.03662
218.65        68.10014
219.11        72.76078
219.57         73.0897
220.02        70.95768
220.48         68.6612
220.94        65.98995
221.40         61.8834
221.86        55.78294
222.32        49.35941
222.77        45.20701
223.23        44.04504
223.69        43.89283
224.15         42.9415
224.61        41.05062
225.06        38.47737
225.52        36.71521
225.98        38.37063
226.44        43.00451
226.90        48.27173
227.36        52.46115
227.81        54.79312
228.27        55.67459
228.73        55.52683
229.19        54.62118
229.65        53.54943
230.10        52.72065
230.56        52.20883
231.02        51.80881
231.48        51.30961
231.93        50.59632
232.39        49.80113
232.85        49.17295
233.31        49.23284
233.77        50.09778
234.22        51.73208
234.68        53.40466
235.14        53.84335
235.60        52.80457
236.05        50.69309
236.51        48.70293
236.97        48.38046
237.43        50.12405
237.88        54.01317
238.34        59.25307
238.80        63.31603
239.26        64.21766
239.71        62.43466
240.17         59.2678
240.63        56.84025
241.08        55.71666
241.54        55.32608
242.00        55.81576
242.46        57.16125
242.91        59.15783
243.37        61.43701
243.83        63.71541
244.28        66.02653
244.74        68.43102
245.20        70.78156
245.66        72.52061
246.11        72.55272
246.57        70.45072
247.03        66.60339
247.48        61.86979
247.94        58.33702
248.40        57.26233
248.85        57.54269
249.31        58.64379
249.77        59.70575
250.22        60.83798
250.68        62.50871
251.14        64.85635
251.59        66.46194
252.05        66.04374
252.51        64.55063
252.96        63.09328
253.42        62.59063
253.88        62.65575
254.33         63.0299
254.79        63.81719
255.25        64.33292
255.70        64.27699
256.16        64.28056
256.62        64.49916
257.07        65.07382
257.53         66.3119
257.99        67.85699
258.44         68.9865
258.90        69.39068
259.35        68.69778
259.81        67.69042
260.27        66.71214
260.72        66.09404
261.18        65.97724
261.63        65.87247
262.09        65.61365
262.55        64.62576
263.00          62.944
263.46        61.13443
263.91        59.37164
264.37         58.1823
264.83        57.47734
265.28        57.01609
265.74         56.7917
266.19        56.54218
266.65         56.2738
267.11        55.99581
267.56        55.66077
268.02        55.22039
268.47        54.62885
268.93        53.89304
269.38        53.04313
269.84        52.26457
270.30        51.59773
270.75        51.01474
271.21        50.44934
271.66        49.73315
272.12         48.8507
272.57        47.82397
273.03        46.79474
273.48        45.88839
273.94        45.21088
274.39        44.66544
274.85        44.21228
275.31        43.68722
275.76        43.03413
276.22        42.34175
276.67        41.63874
277.13        41.09478
277.58        40.66333
278.04         40.3371
278.49        39.96581
278.95        39.46233
279.40        38.76558
279.86        38.01816
280.31        37.25344
280.77        36.66131
281.22        36.23051
281.68        35.93932
282.13        35.74428
282.59         35.6634
283.04        35.63087
283.50        35.63878
283.95        35.56545
284.41        35.25909
284.86        34.69524
285.32        33.99433
285.77         33.2395
286.22        32.63757
286.68        32.24903
287.13        31.97579
287.59        31.83304
288.04         31.7684
288.50        31.77236
288.95        31.82439
289.41        31.86334
289.86        31.74148
290.32        31.47173
290.77        31.08448
291.22        30.70007
291.68        30.51272
292.13        30.55489
292.59        30.79264
293.04         31.1567
293.50         31.5794
293.95        32.02378
294.40        32.52212
294.86        33.04575
295.31        33.56513
295.77        34.07232
296.22        34.55446
296.68        35.05535
297.13        35.62452
297.58        36.27269
298.04        36.94781
298.49        37.60419
298.95        38.17115
299.40        38.62552
299.85        39.00412
300.31        39.31855
300.76        39.52496
301.21         39.6655
301.67        39.76235
302.12         39.8764
302.58        40.23973
303.03        40.85334
303.48        41.54404
303.94        42.14668
304.39        42.99604
304.84        43.03928
305.30        43.15363
305.75        43.15847
306.20        43.31657
306.66         43.6786
307.11        44.15007
307.57        44.61562
308.02         44.8177
308.47        44.74176
308.93        44.48568
309.38        44.19038
309.83        44.12877
310.29        44.35635
310.74        44.77155
311.19        45.21077
311.65        45.41663
312.10        45.32352
312.55        45.02327
313.00        44.66445
313.46        44.47599
313.91        44.50113
314.36        44.66535
314.82        44.85383
315.27         44.9088
315.72        44.77286
316.18        44.51269
316.63        44.18294
317.08        43.87604
317.53          43.633
317.99        43.43704
318.44        43.27021
318.89        43.11413
319.35        42.95925
319.80        42.81007
320.25        42.69516
320.70        42.65608
321.16        42.67618
321.61        42.75282
322.06        42.79123
322.51         42.6526
322.97        42.31219
323.42        41.82484
323.87        41.30021
324.32        40.91814
324.78        40.71372
325.23        40.65776
325.68        40.66349
326.13        40.58554
326.59        40.37297
327.04        40.08829
327.49        39.78013
327.94        39.54334
328.39        39.39748
328.85        39.28297
329.30        39.18713
329.75         39.0286
330.20        38.79117
330.66        38.51248
331.11        38.22031
331.56        37.91956
332.01        37.62948
332.46        37.34732
332.92         37.1168
333.37        37.06427
333.82        37.18903
334.27        37.44652
334.72        37.73441
335.17        37.88081
335.63        37.82481
336.08        37.62848
336.53        37.31888
336.98        36.97517
337.43        36.64676
337.88        36.31812
338.34        36.04425
338.79        35.93118
339.24        35.97882
339.69        36.16546
340.14        36.38368
340.59        36.44483
341.05        36.30327
341.50         36.0108
341.95         35.6572
342.40        35.39775
342.85        35.27429
343.30        35.23139
343.75        35.22345
344.20        35.18051
344.66        35.08776
345.11        34.97176
345.56        34.83289
346.01        34.66054
346.46        34.47108
346.91        34.27244
347.36        34.11256
347.81        34.06831
348.26        34.14308
348.72        34.29608
349.17        34.47778
349.62        34.59571
350.07        34.61393
350.52        34.56197
350.97        34.43653
351.42        34.23248
351.87        33.97272
352.32        33.67273
352.77        33.40655
353.22         33.2952
353.67        33.35923
354.13        33.55132
354.58        33.80062
355.03        33.98857
355.48        34.06471
355.93         34.0528
356.38        33.94396
356.83        33.73001
357.28        33.42992
357.73        33.05696
358.18        32.67044
358.63        32.36748
359.08        32.17165
359.53        32.05746
359.98        31.99549
360.43        31.92966
360.88        31.83685
361.33        31.73558
361.78        31.60448
362.23        31.40997
362.68         31.1563
363.13        30.85385
363.58         30.5608
364.03        30.37321
364.48        30.30773
364.93        30.33169
365.38         30.3874
365.83        30.37898
366.28         30.2786
366.73        30.11715
367.18        29.91692
367.63        29.71436
368.08        29.52479
368.53        29.33251
368.98        29.15479
369.43        29.02119
369.88        28.93597
370.33         28.9002
370.78        28.87177
371.23        28.77781
371.68        28.60245
372.13        28.35902
372.58        28.10856
373.03        27.95281
373.48        27.90739
373.93        27.93572
374.38        27.95814
374.83        27.84494
375.28        27.57569
375.72        27.20135
376.17        26.82219
376.62         26.5295
377.07        26.34903
377.52        26.24334
377.97        26.20662
378.42         26.2293
378.87        26.29421
379.32         26.4038
379.77        26.50165
380.22        26.50491
380.67        26.39626
381.11         26.1816
381.56        25.93614
382.01        25.79077
382.46        25.77599
382.91        25.86315
383.36        25.94379
383.81        25.84877
384.26        25.55546
384.71        25.12388
385.15         24.6916
385.60         24.5015
386.05        24.58172
386.50        24.84263
386.95        25.13235
387.40        25.21485
387.85         25.0417
388.29        24.69235
388.74        24.30482
389.19        23.98896
389.64        23.78128
390.09        23.63505
390.54        23.55593
390.98        23.55479
391.43        23.62621
391.88        23.75965
392.33        23.88726
392.78         23.9328
393.23        23.88815
393.67        23.72133
394.12         23.5078
394.57        23.51628
395.02         23.4222
395.47        23.46963
395.91        23.52575
396.36        23.52704
396.81        23.46394
397.26         23.3662
397.71        23.25533
398.15        23.15075
398.60         23.0912
399.05        23.01623
399.50        22.93143
399.95        22.94724
400.39        22.94359
400.84        22.91208
401.29        22.81499
401.74        22.72625
402.18        22.65418
402.63        22.54239
403.08        22.43752
403.53        22.42761
403.97        22.51738
404.42        22.67607
404.87        22.82956
405.32        22.85852
405.76        22.73301
406.21        22.50215
406.66        22.23946
407.11        22.06275
407.55        22.01159
408.00        22.05141
408.45         22.1332
408.90        22.16347
409.34        22.11301
409.79        22.00882
410.24        21.91586
410.68        21.92954
411.13        22.06581
411.58        22.28959
412.03         22.5069
412.47        22.56512
412.92         22.4184
413.37        22.13165
413.81        21.81189
414.26        21.64738
414.71         21.6617
415.15         21.8073
415.60        21.98992
416.05        22.07192
416.49        22.01372
416.94        21.86488
417.39        21.68209
417.83        21.54986
418.28        21.49898
418.73        21.49146
419.17        21.51633
419.62        21.56174
420.07        21.61416
420.51        21.68042
420.96        21.73266
421.41        21.71255
421.85        21.61015
422.30        21.46338
422.74        21.31362
423.19        21.25924
423.64        21.30644
424.08        21.43742
424.53        21.59064
424.98        21.68655
425.42        21.70166
425.87        21.65569
426.31         21.5724
426.76        21.49687
427.21        21.38754
427.65        21.32244
428.10        21.28894
428.54        21.18771
428.99        21.03083
429.44         21.0084
429.88        21.05803
430.33        20.79376
430.77         20.3718
431.22         20.4757
431.66        21.03446
432.11        21.33926
432.56        21.29503
433.00        21.21284
433.45         21.1224
433.89        21.01118
434.34        20.92414
434.78        20.82433
435.23        20.72543
435.67        20.67052
436.12        20.67249
436.57        20.70964
437.01        20.77432
437.46        20.85005
437.90        20.92133
438.35        20.98642
438.79        21.04429
439.24        21.05911
439.68        21.05777
440.13        21.13344
440.57        21.22709
441.02         21.2408
441.46        21.16852
441.91        20.91274
442.35        20.59413
442.80        20.79557
443.24        21.34251
443.69        21.25742
444.13        20.61958
444.58        20.37236
445.02        20.52085
445.47        20.56353
445.91        20.47509
446.36        20.46592
446.80        20.52589
447.24        20.60312
447.69        20.68027
448.13         20.7289
448.58        20.74462
449.02        20.73595
449.47        20.72559
449.91        20.73499
450.36        20.77359
450.80        20.83176
451.25        20.89264
451.69        20.92387
452.13        20.91687
452.58        20.88964
453.02        20.85583
453.47        20.83372
453.91          20.824
454.36        20.88077
454.80        20.88749
455.24        20.90003
455.69        20.88753
456.13        20.85242
456.58        20.82049
457.02        20.81163
457.46        20.83406
457.91        20.87909
458.35        20.91806
458.79        20.91993
459.24        20.89284
459.68         20.8602
460.13        20.84873
460.57        20.80717
461.01        20.90064
461.46        20.91084
461.90          20.906
462.34        21.11762
462.79        21.44387
463.23        21.42928
463.68        21.11899
464.12        20.97646
464.56        21.02682
465.01        21.04618
465.45        21.00459
465.89        20.95124
466.34         20.9202
466.78        20.99557
467.22        21.20273
467.67        21.23998
468.11        21.11017
468.55        20.92869
468.99        20.76211
469.44           20.66
469.88        20.64416
470.32        20.70652
470.77        20.80514
471.21        20.88555
471.65        20.92227
472.10        20.93955
472.54        20.95146
472.98        20.99857
473.42        21.08706
473.87        21.19721
474.31        21.30202
474.75        21.37073
475.20        21.40058
475.64         21.3971
476.08        21.38153
476.52        21.36897
476.97        21.36664
477.41        21.38966
477.85        21.44637
478.29        21.43234
478.74        21.53598
479.18        21.59627
479.62        21.65732
480.06        21.74739
480.50        21.87267
480.95        21.83845
481.39        21.98417
481.83        22.06522
482.27        22.18551
482.72        22.32915
483.16        22.47497
483.60        22.59036
484.04        22.66485
484.48        22.70841
484.93        22.74942
485.37        22.85629
485.81        22.96633
486.25        23.08699
486.69         22.5269
487.14        22.82529
487.58        23.45181
488.02        23.50478
488.46        23.83132
488.90        24.16835
489.34        23.58555
489.79        23.64947
490.23        23.95317
490.67        24.29089
491.11        24.53482
491.55        24.50279
491.99        24.30071
492.43        24.36276
492.88        24.71749
493.32        25.07101
493.76        25.35824
494.20         25.6521
494.64        25.93445
495.08        26.16773
495.52        26.34238
495.96        26.48968
496.41        26.62021
496.85        26.65504
497.29        26.62024
497.73        26.83914
498.17        26.97612
498.61        27.08366
499.05        27.07605
499.49        27.11241
499.93        27.22454
500.37        27.42267
500.82        27.67331
501.26        27.86232
501.70        27.97268
502.14        28.07324
502.58        28.18721
503.02        28.31776
503.46         28.4731
503.90         28.6537
504.34        28.83813
504.78        28.99026
505.22        29.09888
505.66        29.16576
506.10        29.20657
506.54        29.28128
506.98        29.40528
507.42        29.50554
507.86        29.53248
508.30        29.74205
508.74        29.58508
509.18        29.51924
509.62        29.44452
510.06        29.47031
510.50        29.61172
510.94        29.84476
511.38        30.10105
511.82        30.25063
512.26         30.2609
512.70        30.16855
513.14        30.04289
513.58        29.99238
514.02        30.04527
514.46        30.16916
514.90        30.31136
515.34        30.38668
515.78        30.37308
516.22         30.3008
516.66        30.21788
517.10        30.19625
517.54        30.25137
517.98        30.35494
518.42         30.4638
518.86        30.51117
519.30        30.47969
519.74        30.39387
520.18        30.28627
520.62        30.20424
521.06        30.16491
521.50         30.1581
521.93         30.1724
522.37        30.18001
522.81        30.17617
523.25        30.16535
523.69        30.16217
524.13        30.18826
524.57        30.24198
525.01        30.30962
525.45        30.35687
525.89        30.33143
526.32        30.22075
526.76         30.0539
527.20        29.86789
527.64        29.72125
528.08        29.63037
528.52        29.57982
528.96        29.55238
529.40          29.519
529.83        29.46785
530.27         29.4126
530.71         29.3537
531.15        29.29411
531.59        29.23471
532.03        29.17028
532.46        29.10042
532.90        29.03778
533.34        28.98241
533.78        28.93606
534.22        28.89178
534.66        28.83716
535.09         28.7688
535.53        28.69862
535.97        28.63842
536.41        28.61433
536.85        28.63033
537.28         28.6768
537.72        28.73361
538.16        28.76914
538.60        28.77621
539.04        28.76824
539.47        28.75207
539.91        28.76572
540.35         28.8095
540.79        28.87772
541.22        28.96871
541.66        29.08452
542.10        29.21968
542.54        29.37797
542.97        29.54449
543.41        29.70059
543.85        29.84148
544.29        29.97606
544.72        30.10912
545.16        30.26945
545.60        30.45918
546.04        30.65625
546.47        30.85789
546.91        31.10743
547.35        31.37821
547.79         31.5662
548.22        31.66906
548.66         31.8543
549.10        32.13638
549.53        32.33627
549.97        32.39256
550.41        32.87534
550.84        32.79582
551.28        32.90904
551.72        32.94049
552.15        33.20581
552.59        33.29807
553.03        33.53362
553.46        33.77079
553.90         33.9748
554.34         34.1269
554.77        34.27755
555.21        34.42325
555.65        34.46817
556.08        34.44855
556.52        34.53083
556.96        34.71439
557.39        34.91619
557.83        35.12129
558.27        35.30251
558.70         35.4649
559.14        35.65957
559.57        35.84896
560.01        35.99129
560.45        36.07275
560.88        35.97307
561.32         35.9291
561.75        35.95104
562.19        36.08923
562.63        36.16995
563.06        36.18344
563.50        36.24845
563.93        36.34857
564.37        36.44044
564.80        36.51091
565.24        36.58099
565.68        36.65151
566.11        36.75217
566.55        36.88566
566.98        36.97892
567.42        37.07994
567.85        37.20959
568.29        37.36559
568.72        37.61145
569.16        37.98532
569.60        37.78046
570.03        38.16138
570.47        38.24758
570.90        38.38319
571.34        38.39799
571.77        38.60624
572.21        38.78923
572.64        38.98894
573.08        39.04864
573.51        39.03171
573.95         39.2079
574.38        39.63181
574.82        39.68736
575.25        39.39799
575.69        39.37529
576.12        39.24388
576.56        39.31516
576.99        39.52652
577.42        39.64444
577.86        39.48547
578.29        39.28865
578.73        39.62891
579.16        39.39391
579.60        39.41313
580.03        39.25599
580.47        39.35151
580.90         39.2306
581.33          38.994
581.77        38.94828
582.20        38.63362
582.64        38.79211
583.07        38.53477
583.51        38.40135
583.94        38.30306
584.37        38.05605
584.81        37.78421
585.24        37.94939
585.68         38.2179
586.11        38.15683
586.54        37.60695
586.98        37.44144
587.41        38.02707
587.85        37.76881
588.28        37.66969
588.71        37.81944
589.15        37.42088
589.58        37.62127
590.01        37.51244
590.45         37.5769
590.88        37.62454
591.31        37.70766
591.75        37.75003
592.18        37.72955
592.61        37.71704
593.05        37.53307
593.48        37.49879
593.91        38.09526
594.35        37.54301
594.78        37.66392
595.21        37.89095
595.65        38.19792
596.08        37.91711
596.51         38.5311
596.94        38.76496
597.38         39.1164
597.81        39.19663
598.24         39.4107
598.68        39.46323
599.11        39.75432
599.54        40.42432
599.97        40.89614
600.41        40.43233
600.84         40.7079
601.27        41.18236
601.70        41.73953
602.14        42.19986
602.57        42.49418
603.00        42.64475
603.43        42.91284
603.87        43.22167
604.30        43.63673
604.73        44.17809
605.16        44.32238
605.60        44.99385
606.03        45.38688
606.46         45.6968
606.89        45.89631
607.32        46.06739
607.76        46.31424
608.19        46.65221
608.62         47.1153
609.05        47.67529
609.48        47.97782
609.92        47.96457
610.35        48.49027
610.78        48.81004
611.21        48.67106
611.64        48.94167
612.07        49.35249
612.50        49.38287
612.94        49.54412
613.37        50.19757
613.80        50.08793
614.23        50.70206
614.66        50.92556
615.09        51.16431
615.52        51.33643
615.96        51.47253
616.39        51.71423
616.82        51.29105
617.25        51.70284
617.68        51.79751
618.11        52.13572
618.54        52.36728
618.97        52.44368
619.40        52.41832
619.84        52.50808
620.27         52.7779
620.70        53.05035
621.13        53.21992
621.56        53.32566
621.99        53.44828
622.42        53.01947
622.85        53.31343
623.28        53.51241
623.71        53.78817
624.14        52.86798
624.57        53.43006
625.00        53.30572
625.43        53.54389
625.86        53.03922
626.29        52.92506
626.72        53.48989
627.15        52.90487
627.58        52.93265
628.01        52.89056
628.44        52.71374
628.87        52.49161
629.30        52.09119
629.73        52.54577
630.16        52.46052
630.59         52.1158
631.02        51.88579
631.45         51.5758
631.88        51.29603
632.31         50.9796
632.74        50.66535
633.17        50.34335
633.60        50.00616
634.03        49.65658
634.46        49.29099
634.89        48.92918
635.32        48.60865
635.75        48.33241
636.18        48.08241
636.61        47.83397
637.04        47.54907
637.47        47.21733
637.89        46.86105
638.32          46.487
638.75        46.11896
639.18        45.76577
639.61        45.47441
640.04        45.17599
640.47        44.95578
640.90        44.79028
641.33        44.68721
641.76        44.60924
642.18        44.49874
642.61        44.33096
643.04        44.12278
643.47        43.94159
643.90        43.88048
644.33        43.95177
644.76        44.18161
645.18        44.46753
645.61         44.5189
646.04        44.26781
646.47        44.27527
646.90        44.51547
647.33        44.64664
647.75        44.66209
648.18        44.78786
648.61        45.03707
649.04        45.31255
649.47        45.61661
649.89         46.0196
650.32        46.46261
650.75        46.83848
651.18        47.15636
651.61        47.46381
652.03        47.82449
652.46        48.37007
652.89        48.95517
653.32        49.25924
653.74        49.40818
654.17        49.19295
654.60        49.61897
655.03        50.84267
655.46        49.96854
655.88        51.38655
656.31        52.88749
656.74        52.93424
657.16        52.21846
657.59        51.13975
658.02        52.07069
658.45        53.46878
658.87        53.83224
659.30        53.49986
659.73        54.32105
660.15        54.48921
660.58        54.59443
661.01        54.78332
661.44        55.03852
661.86        54.81895
662.29        54.31445
662.72        54.56297
663.14        55.45041
663.57        55.65334
664.00        55.22261
664.42        55.22077
664.85        55.69043
665.27        56.02454
665.70        56.16783
666.13         56.3384
666.55        56.53407
666.98        56.69293
667.41        56.80774
667.83        56.86008
668.26        56.84735
668.69        56.79399
669.11        56.75145
669.54        56.79137
669.96        56.92959
670.39        57.16667
670.82        57.43534
671.24         57.5845
671.67        57.59813
672.09        57.60609
672.52        57.66883
672.94        57.83976
673.37        57.68794
673.80        58.27244
674.22        58.24741
674.65         58.4743
675.07          58.592
675.50        58.64448
675.92        58.67053
676.35        58.72359
676.77        58.83199
677.20        58.95774
677.62        59.07831
678.05         59.1571
678.47        59.18559
678.90        59.19436
679.32        59.18954
679.75        59.18806
680.17        59.19102
680.60        59.19558
681.02        59.23219
681.45        59.32584
681.87        59.47324
682.30        59.73808
682.72        60.05709
683.15        60.05413
683.57        59.83388
684.00        59.96709
684.42        60.38606
684.85        60.55561
685.27        60.46081
685.70        60.29242
686.12        60.18053
686.54         60.5254
686.97        61.19463
687.39        61.51989
687.82        61.41872
688.24        61.42573
688.66        61.54214
689.09        61.39486
689.51        61.05952
689.94        60.93142
690.36        61.02449
690.78        61.04879
691.21        61.01044
691.63        61.19005
692.06        61.50915
692.48        61.58797
692.90        61.44975
693.33        61.43658
693.75        61.56692
694.17        61.63493
694.60        61.64833
695.02        61.70233
695.44        61.79174
695.87        61.96675
696.29        62.18021
696.71        62.14051
697.14        61.92727
697.56        61.97367
697.98        62.26159
698.41         62.4082
698.83        62.39336
699.25        62.45195
699.68        62.56288
700.10        62.62843
700.52        62.63112
700.94        62.61222
701.37        62.58401
701.79        62.58374
702.21        62.61397
702.64        62.67086
703.06        62.75862
703.48         62.8943
703.90        63.07795
704.33         63.3163
704.75        63.54286
705.17        63.71192
705.59        63.78238
706.01        63.76749
706.44        63.72176
706.86        63.71766
707.28        63.77013
707.70        63.92847
708.12        64.13626
708.55        64.14208
708.97        64.00037
709.39        64.07728
709.81        64.37593
710.23        64.59284
710.66        64.70106
711.08        64.89904
711.50        65.13311
711.92        65.25893
712.34        65.26437
712.76        65.18846
713.19        65.06846
713.61        65.01312
714.03        65.03301
714.45        65.10369
714.87        65.19518
715.29        65.25981
715.71         65.2829
716.13         65.2815
716.56        65.25461
716.98        65.27393
717.40        65.32401
717.82        65.40421
718.24        65.50264
718.66        65.53381
719.08        65.61746
719.50         65.6356
719.92        65.62475
720.34        65.66642
720.76        65.77943
721.19        65.61256
721.61        65.77404
722.03         65.7113
722.45        65.58324
722.87        65.53322
723.29         65.6277
723.71        65.18802
724.13        65.44304
724.55        65.41559
724.97          65.447
725.39        65.46512
725.81        65.47431
726.23        65.47977
726.65        65.50131
727.07         65.6077
727.49         65.7985
727.91        66.03133
728.33        66.27641
728.75        66.48398
729.17        66.62881
729.59        66.73792
730.01        66.76541
730.43        66.63057
730.85        66.35517
731.27        65.99921
731.69        65.70567
732.10        65.68089
732.52        65.96255
732.94        66.49525
733.36        67.12789
733.78        67.57372
734.20        67.73361
734.62        67.68517
735.04        67.53386
735.46        67.43898
735.88        67.46565
736.30        67.58382
736.72        67.72317
737.13        67.81309
737.55        67.75291
737.97        67.46384
738.39        67.07095
738.81        66.84229
739.23        66.85639
739.65        67.13502
740.06        67.49864
740.48        67.63329
740.90        67.47395
741.32        67.16798
741.74        66.86147
742.16        66.75917
742.57        66.93006
742.99        67.27084
743.41        67.65918
743.83         67.9365
744.25         68.0261
744.67        67.88483
745.08        67.62582
745.50        67.50803
745.92        67.59415
746.34        67.76733
746.75        67.95159
747.17        68.06228
747.59        68.06718
748.01        68.00282
748.42        67.92636
748.84        67.88241
749.26        67.90987
749.68        68.02605
750.09        68.15387
750.51        68.17492
750.93        68.06322
751.35        67.88084
751.76         67.7131
752.18        67.67285
752.60        67.78375
753.01        68.02502
753.43        68.30822
753.85        68.47466
754.27        68.49001
754.68         68.5874
755.10        68.50329
755.52        68.50703
755.93        68.51823
756.35         68.4659
756.77        68.42521
757.18        68.58015
757.60        68.95406
758.02        69.36803
758.43        70.00951
758.85        69.91671
759.26        68.35695
759.68        67.98631
760.10        68.52091
760.51        68.79745
760.93        68.70296
761.34        68.83078
761.76        69.10454
762.18        69.22357
762.59        69.17969
763.01        68.79562
763.42        68.40649
763.84         68.2093
764.26        68.34039
764.67        68.44109
765.09        68.49476
765.50        69.11103
765.92        69.44786
766.33        69.65786
766.75        69.42586
767.16         69.3083
767.58        69.30327
768.00        68.90891
768.41        68.36145
768.83        68.63918
769.24        69.50597
769.66        69.81341
770.07         69.5196
770.49        69.15508
770.90        68.96263
771.32        69.34878
771.73        69.96622
772.15        70.10581
772.56        69.66818
772.97        69.52773
773.39        69.32015
773.80         69.3813
774.22        69.56457
774.63        69.97826
775.05        70.42958
775.46        70.66257
775.88        70.58535
776.29        70.30711
776.70        69.93166
777.12        69.66037
777.53        69.56251
777.95        69.55482
778.36        69.63436
778.77        69.77396
779.19        69.95451
779.60         70.2658
780.02        70.58313
780.43        70.73484
780.84        70.73729
781.26        70.55366
781.67        70.36168
782.09        70.85108
782.50        71.77795
782.91        71.83093
783.33         71.0503
783.74        70.67675
784.15        70.77142
784.57        70.61649
784.98        70.24966
785.39        70.08959
785.81        70.17394
786.22        70.38713
786.63        70.70254
787.04        71.07388
787.46        71.45823
787.87        71.83422
788.28        72.17066
788.70        72.37815
789.11        72.42993
789.52        72.45619
789.93        72.43378
790.35        72.12292
790.76        71.64667
791.17        71.47916
791.58        71.65912
792.00        71.74728
792.41        71.72869
792.82         72.0537
793.23        72.59668
793.65        72.49411
794.06        71.95072
794.47        72.18922
794.88        73.01879
795.29        73.22513
795.71        72.73499
796.12        72.24169
796.53        71.93697
796.94         71.8616
797.35        72.08841
797.76        72.60435
798.18        73.19282
798.59        73.54222
799.00        73.54543
799.41        73.29327
799.82        72.92053
800.23        72.66822
800.64        72.61766
801.06        72.66534
801.47        72.80846
801.88         72.9684
802.29        73.10226
802.70        73.22485
803.11        73.31469
803.52        73.32497
803.93         73.2609
804.34        73.14499
804.75        72.98031
805.17        72.83714
805.58        72.78029
805.99        72.60191
806.40        72.41231
806.81        72.82024
807.22         73.6306
807.63        73.79316
808.04        73.34459
808.45        73.26466
808.86        73.61065
809.27        73.79624
809.68        73.76122
810.09        73.72025
810.50        73.67812
810.91        73.56734
811.32        73.47971
811.73        73.56374
812.14        73.83578
812.55        74.26584
812.96        74.68957
813.37        74.79557
813.78        74.52048
814.19         73.9904
814.60         73.4032
815.01        73.03495
815.42        72.95224
815.83        73.06789
816.24        73.32436
816.65         73.5997
817.05        73.82034
817.46         73.9838
817.87        74.06673
818.28        73.97673
818.69        73.71739
819.10        73.30996
819.51        72.87565
819.92        72.65453
820.33        72.72092
820.74         73.0036
821.14        73.40687
821.55        73.78218
821.96        74.06506
822.37        74.29954
822.78        74.45067
823.19        74.46191
823.60        74.32742
824.00        74.04296
824.41        73.70448
824.82        73.50628
825.23        73.48869
825.64        73.62693
826.04        73.81103
826.45          73.756
826.86        73.43636
827.27        72.94867
827.68        72.48022
828.08        72.34451
828.49        72.56995
828.90        73.09313
829.31        73.77216
829.72        74.35887
830.12        74.78452
830.53        75.02382
830.94        75.17139
831.35        75.35148
831.75        75.61206
832.16        75.82237
832.57        75.92866
832.97        75.81413
833.38         75.4782
833.79        75.04668
834.20        74.58974
834.60         74.1714
835.01        73.86087
835.42        73.60776
835.82        73.55474
836.23         73.8661
836.64        74.55614
837.04        75.58737
837.45        76.54744
837.86        76.90205
838.26        76.51969
838.67        75.57747
839.08        74.44035
839.48        73.66424
839.89        73.44881
840.29        73.62404
840.70        74.04401
841.11        74.48042
841.51        74.85482
841.92        75.20588
842.33        75.51508
842.73        75.72111
843.14        75.76372
843.54        75.66938
843.95        75.50175
844.35         75.4506
844.76        75.53404
845.17        75.69032
845.57        75.87413
845.98        75.96973
846.38        75.95873
846.79        75.87843
847.19        75.69032
847.60        75.27908
848.00        74.68774
848.41        73.98206
848.81        73.37717
849.22        73.18732
849.62        73.50188
850.03        74.18356
850.43        75.08687
850.84        75.73218
851.24        76.01931
851.65        75.96001
852.05        75.69584
852.46        75.42171
852.86        75.20092
853.27        75.04391
853.67        74.83067
854.07        74.58794
854.48        74.26091
854.88        73.89082
855.29        73.48441
855.69        73.27307
856.10        73.22231
856.50        73.38744
856.90        73.56238
857.31        73.47097
857.71        73.11478
858.12        72.54251
858.52        72.00409
858.92        71.86172
859.33        72.18031
859.73        72.87801
860.13        73.71117
860.54        74.29713
860.94         74.5539
861.34        74.48989
861.75        74.17157
862.15        73.78806
862.55        73.38953
862.96        72.97848
863.36        72.47479
863.76         71.7711
864.17        70.91798
864.57        70.02538
864.97        69.32211
865.38        69.09188
865.78        69.41207
866.18        70.16457
866.58        71.17145
866.99         72.0318
867.39        72.59432
867.79          72.894
868.19        72.90784
868.60         72.6248
869.00        72.10938
869.40        71.37592
869.80        70.69965
870.21        70.55299
870.61        71.07859
871.01        72.09827
871.41        73.25449
871.81        73.96337
872.22         74.0479
872.62        73.65763
873.02        72.99073
873.42        72.39758
873.82        72.02925
874.22        71.83227
874.63        71.71516
875.03        71.53993
875.43        71.28313
875.83        70.99558
876.23        70.88548
876.63        71.26829
877.03        72.15944
877.44        73.38662
877.84        74.58184
878.24        75.05573
878.64        74.67618
879.04        73.69302
879.44        72.53774
879.84        71.85029
880.24        71.78458
880.64        72.13719
881.04        72.73196
881.44        73.26555
881.84        73.62045
882.24        73.91682
882.65        74.07575
883.05        74.09664
883.45        73.94732
883.85        73.63311
884.25        73.35031
884.65        73.42896
885.05        73.91036
885.45        74.66558
885.85        75.48766
886.25        76.00847
886.65        76.09339
887.05        75.86573
887.45        75.33955
887.85        74.56382
888.25        73.66774
888.65        72.71036
889.04        71.91199
889.44        71.63464
889.84        71.86639
890.24        72.54163
890.64        73.43947
891.04        74.06569
891.44        74.22495
891.84        74.04707
892.24        73.72961
892.64        73.56894
893.04        73.63373
893.44        73.81116
893.83        74.07566
894.23        74.30946
894.63        74.49578
895.03        74.69135
895.43        74.84138
895.83        74.85192
896.23        74.71184
896.63        74.40809
897.02        74.08057
897.42        74.02885
897.82        74.28536
898.22        74.81261
898.62        75.31697
899.01        75.31445
899.41        74.71487
899.81        73.68734
900.21        72.68299
900.61        72.39707
901.00        72.95293
901.40        74.12043
901.80        75.40196
902.20         75.9752
902.59        75.62471
902.99        74.61951
903.39        73.39146
903.79         72.5844
904.18        72.38139
904.58        72.62216
904.98         73.0551
905.38        73.31081
905.77        73.25429
906.17        72.98707
906.57        72.71455
906.96        72.77391
907.36        73.19228
907.76        73.89043
908.15        74.50292
908.55        74.31853
908.95        73.29626
909.34        71.67625
909.74        70.17393
910.14        69.74133
910.53        70.60167
910.93        72.40982
911.33        74.60131
911.72        76.27045
912.12        77.03579
912.52        77.14139
912.91        76.89676
913.31         76.8399
913.70        77.13487
914.10        77.52212
914.49        77.76131
914.89        77.50039
915.29        76.71545
915.68        75.63886
916.08        74.54037
916.47        73.66375
916.87        73.16587
917.26        72.92528
917.66         73.0061
918.05        73.53554
918.45        74.41615
918.84        75.64114
919.24         76.7885
919.64        77.28425
920.03        76.99177
920.42        76.04716
920.82        74.87991
921.21        74.06976
921.61        73.80379
922.00        73.95755
922.40         74.3427
922.79        74.71312
923.19        74.92988
923.58        75.08903
923.98        75.24296
924.37        75.47195
924.77        75.77232
925.16        76.08471
925.55        76.29028
925.95        76.22792
926.34        75.89883
926.74        75.36376
927.13        74.78139
927.52        74.36118
927.92        74.18228
928.31        74.18322
928.70         74.3007
929.10        74.40782
929.49        74.45089
929.89        74.41827
930.28        74.34781
930.67        74.22581
931.07        74.05828
931.46        73.87802
931.85        73.64375
932.24        73.29724
932.64        72.88002
933.03        72.46253
933.42        72.21201
933.82        72.38884
934.21        73.04366
934.60        73.98186
934.99        75.06999
935.39        76.07337
935.78        76.90964
936.17         77.6004
936.56        77.78846
936.96        76.96561
937.35        75.20209
937.74        72.81031
938.13        70.59911
938.53        69.59007
938.92        69.90873
939.31        71.33774
939.70        73.29411
940.09        74.59072
940.49        74.78572
940.88        74.20306
941.27        73.34695
941.66        73.01353
942.05         73.3955
942.44        74.23728
942.84        75.13068
943.23        75.46078
943.62        75.00012
944.01          74.011
944.40        72.96992
944.79        72.52879
945.18        72.83908
945.57        73.72606
945.97        74.72478
946.36        75.27958
946.75        75.10342
947.14        74.37231
947.53        73.55901
947.92        73.38182
948.31          73.997
948.70        75.20461
949.09         76.4485
949.48         76.7506
949.87        75.87426
950.26        74.17483
950.65        72.38573
951.04        71.50057
951.43        71.73592
951.82        72.85018
952.21        74.26202
952.60        74.90483
952.99        74.44518
953.38        73.18722
953.77        71.85768
954.16        71.42682
954.55        72.08436
954.94        73.65852
955.33        75.36605
955.72        75.58492
956.11        73.88725
956.50        70.90823
956.89        68.07718
957.28        67.22915
957.66        68.71769
958.05        71.98228
958.44        75.88257
958.83        78.04126
959.22        77.62483
959.61        75.42538
960.00        72.71825
960.39        71.15137
960.78        71.05359
961.16        71.95027
961.55        73.18135
961.94        73.56884
962.33        72.73588
962.72        71.26704
963.11        69.73124
963.49        68.81929
963.88         68.6947
964.27        69.06397
964.66        69.82305
965.04        70.87027
965.43        71.97723
965.82         73.2067
966.21        74.24605
966.60        74.52267
966.98        73.97444
967.37        72.83612
967.76        71.56414
968.15        70.79121
968.53        70.63532
968.92        70.86395
969.31        71.44073
969.69         72.2779
970.08        73.19308
970.47        74.34341
970.86        75.22157
971.24        74.98102
971.63        73.51528
972.02        71.13528
972.40        68.88859
972.79        68.43858
973.17        70.04267
973.56        73.10669
973.95        76.59782
974.33        78.53097
974.72        78.20032
975.11        76.25436
975.49        73.69309
975.88        72.38207
976.26        72.79055
976.65        74.30141
977.04        76.28386
977.42        77.58997
977.81        77.64756
978.19        76.97077
978.58        75.90105
978.96        74.83486
979.35        74.02796
979.74        73.33813
980.12         72.9535
980.51        73.18456
980.89        74.10424
981.28        75.46948
981.66        77.12158
982.05        78.45226
982.43        79.35484
982.82        79.90597
983.20        79.89207
983.59        78.90875
983.97        77.08077
984.35        74.59053
984.74        72.46494
985.12        72.10702
985.51        73.62486
985.89        76.68916
986.28        79.98459
986.66        81.64333
987.04        80.94395
987.43        78.44232
987.81        75.08225
988.20        72.85038
988.58        72.33854
988.96        73.10383
989.35        74.15869
989.73        74.10402
990.12        72.53961
990.50        70.08313
990.88        67.60885
991.27         66.4702
991.65        66.94147
992.03         68.5635
992.42          70.679
992.80        72.63039
993.18        74.04677
993.56        75.12022
993.95        75.79568
994.33        76.14535
994.71        76.13723
995.10        75.80913
995.48        75.28056
995.86        74.83585
996.24        74.57693
996.63         74.3616
997.01        74.45576
997.39        75.07008
997.77        76.13982
998.15        77.57469
998.54        78.76112
998.92        78.76615
999.30        77.42038
999.68        74.99802
1000.06        72.27524
1000.45        70.73547
1000.83        70.95695
1001.21        72.51116
1001.59        74.85674
1001.97        77.02515
1002.35         78.6153
1002.73        79.91447
1003.12        80.74142
1003.50        80.74775
1003.88        80.01949
1004.26        78.58994
1004.64        77.13133
1005.02         76.8624
1005.40        77.97627
1005.78        80.02165
1006.16        82.20795
1006.54        83.41204
1006.92        83.37354
1007.30        82.39223
1007.69        80.72193
1008.07        79.13177
1008.45        78.00068
1008.83        77.22442
1009.21        76.80632
1009.59        76.72237
1009.97        76.86371
1010.35        77.15137
1010.73        77.58532
1011.11        78.10436
1011.49        78.58556
1011.86        79.09632
1012.24        78.92666
1012.62        77.19889
1013.00        73.79771
1013.38        68.87338
1013.76        63.65951
1014.14        60.84134
1014.52        61.44551
1014.90        64.87359
1015.28        69.37393
1015.66        72.08338
1016.04        72.21004
1016.41        70.60829
1016.79        68.06419
1017.17        66.32667
1017.55        66.12542
1017.93        66.71467
1018.31        67.86548
1018.69        69.66383
1019.06        72.29359
1019.44        76.02346
1019.82        80.83167
1020.20        84.70458
1020.58        85.66521
1020.95        83.82752
1021.33        80.46219
1021.71        76.76765
1022.09        72.70898
1022.46        67.48094
1022.84        61.54432
1023.22        56.80338
1023.60        55.08834
1023.97        56.24887
1024.35        58.78504
1024.73        61.03068
