SpectraSmart Spectrum 2.9.0.0
--------- Device Information -----------
Spectrum Name :  反射率_0
Saving Time :  2024/04/30 01:19:31
Spectro-Module Model Name : SE2030-DUVN
Spectro-Module Serial Number : OS361AC55029948
Wavelength Start : 200
Wavelength End : 1025
Wavelength Unit : Wavelength(nm)
Spectrum Unit : Reflectance(%)
-----------Spectrum Setting ------------
Integration Time : 20ms
Average : 10
Boxcar : 0
Background removal :  enabled
linearity correction :  enabled
SC :  disabled
Intensity correction :  disabled
DWT denoise :  enabled
savitzky-golay :  disabled
FFT :  disabled
Running average :  disabled
Kalman :  disabled
High pass :  disabled
---------------BEGIN--------------------
Wavelength(nm)             Reflectance(%)
200.29               0
200.75        60.00389
201.21        48.70753
201.67        37.89636
202.13        34.07775
202.58        39.90851
203.04        54.80207
203.50        74.52599
203.96         89.3401
204.42        93.70848
204.88        88.45119
205.34        77.31951
205.80        68.05527
206.26        63.37244
206.72        61.33729
207.18        59.76165
207.64        56.55378
208.10        51.39549
208.55        44.64838
209.01        37.97767
209.47        36.07133
209.93        39.61889
210.39        46.03939
210.85         51.4526
211.31        52.60138
211.77        49.11897
212.23        40.65588
212.69        28.83606
213.14        23.88734
213.60        30.57851
214.06        43.15199
214.52        54.08931
214.98        58.76177
215.44        58.27285
215.90         54.6583
216.36        50.72072
216.81        51.74318
217.27        60.54147
217.73        77.41949
218.19        100.9821
218.65        118.9251
219.11        121.5104
219.57         112.613
220.02         101.157
220.48        94.07966
220.94        90.63676
221.40        88.67892
221.86        86.63087
222.32        82.32503
222.77         76.7349
223.23        73.08585
223.69        71.36494
224.15        70.94524
224.61        71.52901
225.06        72.99883
225.52        75.62996
225.98         79.0551
226.44        82.22895
226.90        84.55827
227.36        86.24342
227.81        87.80246
228.27        89.58843
228.73        91.39227
229.19        92.61971
229.65        92.06567
230.10        89.80543
230.56        87.19642
231.02        84.81786
231.48        83.06263
231.93         81.7482
232.39        80.69427
232.85        80.05612
233.31        80.31249
233.77        81.48083
234.22        83.56839
234.68        85.50069
235.14        85.45707
235.60        83.13147
236.05        79.17581
236.51        75.24126
236.97        73.34321
237.43         73.9302
237.88        76.97768
238.34        81.61318
238.80        85.50063
239.26        86.74165
239.71        85.79353
240.17        83.64581
240.63        82.13258
241.08        81.90151
241.54        82.34217
242.00        83.63367
242.46        85.34102
242.91         86.9127
243.37        87.97798
243.83        89.03084
244.28        90.82557
244.74        93.31263
245.20        95.73482
245.66        97.95893
246.11         99.6342
246.57        100.2747
247.03        101.0758
247.48         99.0259
247.94        89.41859
248.40        76.46938
248.85        64.67639
249.31        58.30874
249.77        58.78585
250.22        65.85565
250.68        81.06861
251.14        104.7494
251.59        119.6523
252.05        112.0775
252.51         95.1114
252.96         80.9248
253.42        73.70069
253.88        70.87701
254.33        70.03426
254.79        70.39032
255.25        70.26487
255.70        69.27611
256.16        68.67809
256.62        68.57178
257.07        68.95397
257.53        70.03236
257.99        71.26398
258.44        71.97153
258.90        71.99623
259.35         70.9949
259.81        69.79871
260.27        68.54688
260.72        67.35261
261.18        66.45261
261.63        65.49232
262.09         64.6245
262.55        63.67847
263.00        62.62384
263.46        61.75583
263.91        60.91838
264.37        60.28521
264.83        59.74903
265.28         59.2065
265.74        58.82063
266.19         58.5731
266.65        58.51023
267.11        58.52581
267.56        58.46301
268.02        58.13378
268.47        57.46832
268.93        56.55616
269.38        55.46848
269.84        54.45301
270.30        53.60077
270.75        52.86929
271.21         52.2604
271.66        51.70124
272.12        51.16637
272.57        50.62955
273.03        50.09163
273.48        49.44793
273.94        48.75489
274.39        47.98381
274.85        47.21739
275.31        46.45942
275.76        45.69425
276.22        44.96471
276.67        44.24633
277.13         43.6417
277.58        43.08756
278.04        42.61278
278.49        42.09722
278.95        41.49643
279.40        40.75076
279.86        39.98454
280.31        39.19893
280.77        38.54331
281.22        38.00263
281.68        37.58248
282.13         37.2603
282.59        37.08759
283.04        36.99891
283.50        36.96104
283.95        36.85048
284.41        36.52126
284.86        35.93133
285.32        35.19193
285.77        34.34055
286.22        33.51476
286.68        32.78247
287.13        32.09597
287.59        31.52591
288.04        31.10884
288.50        30.86325
288.95        30.72864
289.41        30.66187
289.86        30.54126
290.32        30.35299
290.77        30.11083
291.22        29.80499
291.68        29.42684
292.13        28.98751
292.59        28.52744
293.04        28.15594
293.50        28.06452
293.95        28.26979
294.40        28.72543
294.86        29.26805
295.31        29.65185
295.77         29.8112
296.22         29.8018
296.68        29.76995
297.13        29.92496
297.58        30.31932
298.04        30.84902
298.49        31.38375
298.95        31.72214
299.40        31.81941
299.85        31.76196
300.31        31.65266
300.76        31.58703
301.21        31.62985
301.67        31.74891
302.12        31.91334
302.58        32.21805
303.03         32.6405
303.48        33.02806
303.94        33.29102
304.39        33.98397
304.84        33.91988
305.30        34.06257
305.75        34.10809
306.20        34.19952
306.66        34.36359
307.11        34.55981
307.57         34.7583
308.02        34.83906
308.47        34.79892
308.93        34.68009
309.38        34.53303
309.83        34.48365
310.29        34.55507
310.74        34.70416
311.19         34.8391
311.65        34.81336
312.10        34.59692
312.55         34.2411
313.00        33.86611
313.46        33.65666
313.91        33.64082
314.36        33.76571
314.82        33.91051
315.27        33.90051
315.72        33.68272
316.18        33.32478
316.63        32.91563
317.08        32.60659
317.53        32.44505
317.99        32.39074
318.44        32.38243
318.89        32.32911
319.35        32.20366
319.80        32.03576
320.25        31.87667
320.70        31.80616
321.16        31.82716
321.61        31.91936
322.06        32.00397
322.51         31.9657
322.97        31.77616
323.42        31.48038
323.87         31.1457
324.32        30.88284
324.78        30.71527
325.23        30.62699
325.68        30.57387
326.13        30.48514
326.59        30.33514
327.04         30.1636
327.49        29.99146
327.94        29.86306
328.39        29.78343
328.85        29.71314
329.30        29.65169
329.75        29.55474
330.20        29.41358
330.66        29.25018
331.11        29.06491
331.56        28.83143
332.01        28.55679
332.46        28.24232
332.92        27.95714
333.37        27.85565
333.82        27.95534
334.27          28.215
334.72        28.50059
335.17        28.58332
335.63        28.40257
336.08        28.03797
336.53        27.60042
336.98        27.30113
337.43        27.21026
337.88        27.25858
338.34        27.39638
338.79        27.56588
339.24        27.72377
339.69        27.89989
340.14        28.04199
340.59        28.05682
341.05        27.93899
341.50        27.71034
341.95        27.47223
342.40        27.40001
342.85        27.52591
343.30        27.78713
343.75        28.08448
344.20        28.25574
344.66        28.26203
345.11        28.15225
345.56        27.96367
346.01        27.75256
346.46        27.55959
346.91        27.37506
347.36        27.24469
347.81        27.24128
348.26        27.36501
348.72        27.58504
349.17         27.8359
349.62        27.99601
350.07        28.02376
350.52        27.95429
350.97        27.80599
351.42        27.61055
351.87        27.39701
352.32        27.16734
352.77        26.97553
353.22        26.90903
353.67        26.98136
354.13        27.16238
354.58        27.39174
355.03        27.56759
355.48        27.64793
355.93        27.64822
356.38        27.57307
356.83        27.43641
357.28        27.25305
357.73        27.02578
358.18          26.777
358.63        26.54424
359.08        26.34344
359.53        26.17451
359.98        26.04368
360.43        25.95331
360.88        25.89696
361.33        25.86936
361.78         25.8451
362.23        25.78406
362.68        25.67686
363.13        25.53432
363.58        25.37379
364.03        25.22523
364.48        25.09992
364.93        24.99009
365.38        24.89775
365.83        24.82681
366.28          24.774
366.73        24.73601
367.18        24.69881
367.63        24.63942
368.08        24.54918
368.53        24.43106
368.98        24.29132
369.43        24.14048
369.88        23.98917
370.33        23.84589
370.78        23.70977
371.23        23.58039
371.68         23.4572
372.13         23.3294
372.58        23.22695
373.03         23.1961
373.48        23.23339
373.93        23.32422
374.38         23.3746
374.83        23.23372
375.28        22.88829
375.72        22.39411
376.17         21.9126
376.62          21.635
377.07        21.59593
377.52        21.72705
377.97        21.93108
378.42        22.04304
378.87        22.01204
379.32        21.89579
379.77         21.7319
380.22        21.57541
380.67        21.44566
381.11        21.31117
381.56         21.1969
382.01        21.14879
382.46        21.17033
382.91        21.25883
383.36        21.34282
383.81        21.30692
384.26        21.13584
384.71        20.86249
385.15        20.57876
385.60        20.46015
386.05        20.52279
386.50        20.70301
386.95        20.89442
387.40        20.93039
387.85        20.78042
388.29        20.50415
388.74        20.20322
389.19        19.94791
389.64        19.76451
390.09        19.61863
390.54        19.53183
390.98        19.54054
391.43        19.64037
391.88        19.80856
392.33        19.95905
392.78        19.98816
393.23        19.88659
393.67        19.64605
394.12        19.35744
394.57        19.28158
395.02        19.16054
395.47        19.17975
395.91         19.2197
396.36        19.20905
396.81        19.13419
397.26         19.0304
397.71        18.91166
398.15        18.78555
398.60        18.68845
399.05        18.57523
399.50        18.46853
399.95        18.48477
400.39        18.53058
400.84        18.58923
401.29        18.61132
401.74        18.62185
402.18        18.61124
402.63        18.53727
403.08        18.44356
403.53        18.41371
403.97        18.45849
404.42        18.55261
404.87        18.63599
405.32        18.61273
405.76        18.46205
406.21        18.22711
406.66         17.9814
407.11        17.83986
407.55        17.83489
408.00        17.93048
408.45        18.05952
408.90        18.09844
409.34        18.01153
409.79        17.83681
410.24        17.65557
410.68        17.58907
411.13        17.66173
411.58        17.83117
412.03        18.01081
412.47        18.05841
412.92        17.92934
413.37        17.68739
413.81        17.41511
414.26        17.25886
414.71        17.23761
415.15        17.31124
415.60        17.42087
416.05        17.48824
416.49         17.4867
416.94        17.44867
417.39         17.3867
417.83        17.31503
418.28        17.24878
418.73         17.1723
419.17        17.11621
419.62        17.13406
420.07        17.22698
420.51         17.3763
420.96        17.52081
421.41        17.55349
421.85        17.45262
422.30        17.27324
422.74        17.07246
423.19        16.96305
423.64        16.96002
424.08        17.03591
424.53        17.13981
424.98        17.21245
425.42        17.23171
425.87        17.20514
426.31        17.13693
426.76        17.05885
427.21        16.92531
427.65         16.7638
428.10        16.59739
428.54        16.44086
428.99         16.3215
429.44        16.34711
429.88         16.4525
430.33        16.32288
430.77        16.05913
431.22        16.19481
431.66        16.68114
432.11        16.91975
432.56          16.823
433.00        16.76334
433.45        16.73536
433.89        16.37623
434.34        15.88889
434.78        15.89472
435.23        16.29551
435.67        16.41946
436.12        16.22888
436.57        16.10229
437.01        16.08364
437.46        16.07911
437.90         16.0955
438.35        16.14872
438.79         16.2129
439.24        16.22103
439.68        16.18585
440.13        16.18895
440.57        16.20305
441.02        16.19008
441.46        16.15213
441.91         15.9896
442.35        15.77913
442.80         15.9688
443.24        16.41261
443.69         16.3218
444.13        15.77669
444.58        15.56786
445.02        15.70378
445.47        15.76698
445.91        15.72851
446.36         15.7486
446.80        15.81531
447.24        15.89226
447.69        15.96116
448.13        15.99355
448.58        15.98676
449.02        15.94925
449.47        15.91422
449.91        15.92434
450.36        15.98874
450.80        16.09007
451.25        16.19244
451.69        16.23529
452.13        16.20453
452.58        16.12958
453.02        16.03583
453.47        15.96263
453.91        15.91953
454.36        15.93868
454.80         15.9373
455.24         15.9665
455.69        16.00013
456.13        16.03912
456.58        16.07649
457.02         16.0849
457.46        16.06561
457.91        16.02354
458.35        15.97479
458.79        15.95319
459.24        15.97421
459.68        16.03431
460.13        16.11655
460.57        16.12005
461.01        16.16016
461.46        16.08883
461.90        15.99097
462.34        16.08971
462.79        16.32082
463.23        16.32363
463.68        16.11786
464.12         16.0352
464.56        16.08628
465.01        16.10702
465.45        16.07558
465.89         16.0298
466.34         15.9978
466.78        16.04437
467.22        16.18884
467.67        16.20334
468.11        16.09189
468.55         15.9413
468.99        15.81227
469.44        15.75692
469.88        15.79111
470.32        15.90412
470.77        16.03975
471.21        16.12007
471.65        16.11762
472.10        16.06405
472.54        15.99735
472.98        15.99354
473.42        16.06773
473.87        16.18993
474.31        16.31903
474.75         16.3976
475.20          16.415
475.64        16.38605
476.08        16.33654
476.52        16.30121
476.97        16.29236
477.41        16.29725
477.85        16.31462
478.29          16.341
478.74        16.37935
479.18        16.42318
479.62        16.46381
480.06        16.52602
480.50         16.6166
480.95        16.57672
481.39        16.66685
481.83         16.7397
482.27         16.8815
482.72        16.93844
483.16        17.11785
483.60        17.18647
484.04        17.19799
484.48        17.17807
484.93        17.17465
485.37        17.22603
485.81        17.25319
486.25        17.50668
486.69        16.90823
487.14        17.18159
487.58         17.8083
488.02        17.93039
488.46        18.03831
488.90        18.51137
489.34         17.8129
489.79        17.80277
490.23        17.96123
490.67        18.28256
491.11        18.61211
491.55        18.55958
491.99        18.23354
492.43        18.21538
492.88        18.53609
493.32        18.81138
493.76          18.981
494.20        19.16339
494.64        19.34838
495.08        19.49449
495.52        19.58985
495.96        19.67229
496.41        19.75513
496.85        19.71687
497.29        19.60951
497.73        19.86191
498.17        20.16601
498.61        20.21361
499.05        19.96884
499.49        19.89714
499.93        20.03842
500.37        20.20469
500.82        20.36564
501.26        20.52053
501.70        20.65434
502.14        20.79395
502.58        20.94102
503.02        21.07353
503.46        21.19028
503.90        21.29833
504.34         21.3967
504.78        21.48237
505.22        21.55526
505.66        21.61358
506.10        21.65376
506.54        21.69503
506.98        21.74439
507.42        21.75579
507.86        21.71748
508.30        21.85544
508.74        21.77313
509.18        21.79535
509.62        21.81441
510.06        21.85808
510.50        21.92583
510.94          22.014
511.38        22.11105
511.82        22.18575
512.26        22.23019
512.70        22.25288
513.14        22.26161
513.58        22.26919
514.02         22.2825
514.46        22.29874
514.90        22.32231
515.34        22.36138
515.78        22.41411
516.22        22.47401
516.66        22.53238
517.10        22.57513
517.54        22.59603
517.98        22.59803
518.42        22.57468
518.86        22.51721
519.30        22.43029
519.74        22.32225
520.18        22.21643
520.62         22.1466
521.06        22.12232
521.50        22.13818
521.93         22.1796
522.37        22.21291
522.81        22.22892
523.25        22.23086
523.69        22.22938
524.13        22.24279
524.57        22.27198
525.01        22.30704
525.45        22.32672
525.89         22.2994
526.32        22.21835
526.76        22.10385
527.20        21.98224
527.64        21.89378
528.08        21.84935
528.52        21.83867
528.96         21.8453
529.40        21.84251
529.83        21.81948
530.27         21.7842
530.71        21.74344
531.15        21.71077
531.59        21.68773
532.03         21.6679
532.46        21.63648
532.90        21.57895
533.34        21.49504
533.78        21.39855
534.22        21.30801
534.66        21.24895
535.09        21.22662
535.53        21.23855
535.97        21.27637
536.41        21.33257
536.85        21.39729
537.28        21.46505
537.72        21.52297
538.16        21.55428
538.60        21.55506
539.04        21.53451
539.47        21.48992
539.91        21.43902
540.35        21.38728
540.79        21.34398
541.22        21.33264
541.66        21.39223
542.10        21.52555
542.54        21.71845
542.97        21.94388
543.41        22.16123
543.85        22.35303
544.29         22.5286
544.72         22.6746
545.16        22.78976
545.60        22.87542
546.04        22.92301
546.47        22.96217
546.91        23.07776
547.35        23.26415
547.79        23.43247
548.22        23.55703
548.66        23.72178
549.10        23.92776
549.53        24.05393
549.97        24.06894
550.41        24.41884
550.84        24.37312
551.28        24.47939
551.72        24.52492
552.15        24.73305
552.59        24.79798
553.03        24.96594
553.46        25.12702
553.90        25.24686
554.34        25.31435
554.77        25.36637
555.21        25.42964
555.65        25.47958
556.08        25.54509
556.52         25.7317
556.96        25.98833
557.39        26.17442
557.83        26.26452
558.27         26.2652
558.70        26.23082
559.14        26.28135
559.57        26.41223
560.01        26.56574
560.45        26.70077
560.88        26.68063
561.32         26.6659
561.75        26.68068
562.19        26.76976
562.63        26.81288
563.06        26.80684
563.50        26.83488
563.93        26.88874
564.37        26.93804
564.80        26.97412
565.24        27.03337
565.68        27.11152
566.11        27.17461
566.55        27.24419
566.98        27.37278
567.42        27.57489
567.85        27.72853
568.29        27.81841
568.72         28.0193
569.16        28.38021
569.60        28.21682
570.03        28.37988
570.47        28.72242
570.90        28.75426
571.34        28.71181
571.77        29.01804
572.21        29.15939
572.64         29.2874
573.08        29.40948
573.51         29.5762
573.95        29.53899
574.38        29.88427
574.82        29.76873
575.25        29.68923
575.69        29.56157
576.12        29.46712
576.56        29.89331
576.99        29.81174
577.42        29.77117
577.86        29.88553
578.29         29.8399
578.73        29.81792
579.16         29.6936
579.60        29.72687
580.03        29.54208
580.47        29.66612
580.90        29.56819
581.33        29.38172
581.77        29.44223
582.20        29.32889
582.64        29.13547
583.07        28.84226
583.51        28.64997
583.94        28.71363
584.37        28.62844
584.81         28.4404
585.24        28.50713
585.68        28.87331
586.11        28.70236
586.54        28.26284
586.98        28.28067
587.41         28.7715
587.85        28.30944
588.28        28.17987
588.71         28.3605
589.15        28.19141
589.58        28.15825
590.01        28.28877
590.45        28.20701
590.88        28.08257
591.31        28.13418
591.75        28.28169
592.18        28.39261
592.61        28.52761
593.05          28.006
593.48        28.25609
593.91        28.67237
594.35         28.3309
594.78        28.36999
595.21        28.43836
595.65        28.47103
596.08        28.35817
596.51        28.90528
596.94           29.26
597.38        29.61036
597.81         29.6515
598.24         29.7643
598.68        29.74941
599.11        29.97572
599.54        30.35792
599.97        30.73615
600.41        30.71139
600.84        31.12749
601.27        31.32219
601.70         31.7067
602.14        32.09058
602.57        32.19391
603.00        32.41538
603.43        32.74164
603.87        33.16878
604.30        33.72424
604.73        33.95737
605.16        34.34543
605.60        34.73757
606.03        35.07473
606.46        35.32623
606.89        35.66574
607.32        36.10065
607.76        36.47193
608.19        36.77947
608.62        37.09412
609.05          37.426
609.48         37.8578
609.92        38.04765
610.35        38.33727
610.78        38.69416
611.21        38.65594
611.64        39.13682
612.07        39.36458
612.50        39.57594
612.94        39.88582
613.37        40.35585
613.80        40.22847
614.23        40.76391
614.66        40.96185
615.09        41.18727
615.52        41.46989
615.96        41.79345
616.39        41.93254
616.82        41.88522
617.25        42.29292
617.68        42.35999
618.11        42.66958
618.54        42.93531
618.97        43.09703
619.40        43.19606
619.84        43.34463
620.27        43.57105
620.70        43.90994
621.13        44.28494
621.56        44.09282
621.99        44.10305
622.42        43.86401
622.85        44.23566
623.28        44.21869
623.71        44.89014
624.14        43.90273
624.57        44.40262
625.00        44.25336
625.43        44.32337
625.86        44.29141
626.29        44.17632
626.72        44.09002
627.15        44.00151
627.58        43.93864
628.01        43.87079
628.44        43.61851
628.87        43.25592
629.30        43.16961
629.73        43.31447
630.16        43.25239
630.59        42.94651
631.02        42.73378
631.45        42.44602
631.88        42.17257
632.31        41.86375
632.74        41.54248
633.17        41.19595
633.60        40.81072
634.03        40.38909
634.46        39.93191
634.89        39.46933
635.32        39.05374
635.75        38.69547
636.18        38.37844
636.61        38.07026
637.04        37.72363
637.47        37.33507
637.89        36.89717
638.32         36.4248
638.75        36.05349
639.18        35.81812
639.61        35.33634
640.04        35.23343
640.47        34.96981
640.90        34.72648
641.33        34.50237
641.76        34.30262
642.18        34.12623
642.61        33.96009
643.04        33.80977
643.47        33.69422
643.90        33.63338
644.33        33.62514
644.76        33.70691
645.18        33.82726
645.61        33.80939
646.04        33.61402
646.47         33.6503
646.90        33.88309
647.33        34.02787
647.75        34.07021
648.18        34.19115
648.61        34.40115
649.04        34.63543
649.47        34.90415
649.89         35.2305
650.32        35.57714
650.75        35.96376
651.18         36.3617
651.61        36.58991
652.03        36.72861
652.46        37.21994
652.89        37.99451
653.32        38.37725
653.74         38.3467
654.17        38.69092
654.60        39.05043
655.03         39.5307
655.46        39.22269
655.88        40.79018
656.31        42.57956
656.74        42.26498
657.16        41.54517
657.59        41.13037
658.02        41.73833
658.45        42.59472
658.87        42.59772
659.30        42.89493
659.73        43.45958
660.15        43.47662
660.58        44.18409
661.01        44.41021
661.44        44.55152
661.86         44.5691
662.29        44.56467
662.72        44.76913
663.14        45.14663
663.57        45.29162
664.00        45.24271
664.42        45.37299
664.85        45.71539
665.27        46.05284
665.70        46.32792
666.13        46.56752
666.55        46.76073
666.98        46.89605
667.41        47.00123
667.83        47.11394
668.26        47.23747
668.69        47.38058
669.11         47.5451
669.54        47.68434
669.96        47.78435
670.39        48.05836
670.82        48.16682
671.24        48.28874
671.67        48.34293
672.09        48.47518
672.52         48.6839
672.94        48.90105
673.37         48.7514
673.80        49.17554
674.22        49.09671
674.65        49.32461
675.07        49.57439
675.50        49.85292
675.92        50.12382
676.35        50.32208
676.77        50.44388
677.20        50.49471
677.62        50.51648
678.05        50.55934
678.47        50.63765
678.90         50.8115
679.32        50.93172
679.75        51.03956
680.17        51.08421
680.60         51.0927
681.02        51.11369
681.45         51.2005
681.87        51.36305
682.30        51.64941
682.72        52.00315
683.15        52.08151
683.57        51.96465
684.00        52.20659
684.42        52.63965
684.85        52.85031
685.27        52.78889
685.70        52.65903
686.12        52.56931
686.54        52.79724
686.97        53.26381
687.39        53.54565
687.82        53.55941
688.24        53.60236
688.66        53.66324
689.09        53.53226
689.51        53.29451
689.94        53.20791
690.36          53.308
690.78        53.52004
691.21        53.77942
691.63        53.98599
692.06        54.10579
692.48        54.18373
692.90        54.23869
693.33         54.2909
693.75        54.35506
694.17        54.41532
694.60        54.49941
695.02        54.61961
695.44        54.76597
695.87        55.04889
696.29        55.42873
696.71         55.3577
697.14        55.38227
697.56        55.44801
697.98        55.70317
698.41        55.86973
698.83        55.94172
699.25        56.08446
699.68        56.26889
700.10        56.41754
700.52          56.506
700.94        56.56659
701.37        56.59593
701.79        56.60547
702.21        56.59675
702.64        56.57873
703.06        56.57597
703.48         56.6356
703.90         56.7701
704.33        56.98117
704.75        57.21229
705.17        57.42545
705.59        57.58311
706.01        57.69606
706.44        57.79166
706.86        57.92017
707.28        58.08632
707.70        58.27523
708.12        58.46424
708.55        58.60191
708.97        58.68754
709.39        58.75424
709.81        58.82776
710.23        58.94674
710.66        59.11319
711.08        59.32618
711.50        59.54669
711.92        59.74102
712.34        59.89772
712.76        60.02781
713.19        60.11179
713.61         60.1567
714.03        60.15336
714.45        60.11032
714.87        60.07334
715.29        60.11182
715.71        60.23819
716.13        60.43414
716.56        60.63729
716.98        60.81051
717.40         60.9047
717.82        60.94024
718.24        60.94207
718.66        60.95122
719.08        60.98162
719.50        61.02378
719.92        61.07784
720.34        61.12447
720.76        61.17073
721.19        61.26348
721.61        61.38124
722.03        61.41879
722.45        61.36524
722.87        61.26285
723.29        61.16656
723.71        61.14677
724.13        61.21249
724.55        61.37787
724.97        61.59861
725.39        61.67973
725.81        61.57693
726.23        61.79182
726.65        61.59221
727.07        61.63941
727.49        61.80304
727.91        61.99445
728.33        62.21212
728.75        62.42641
729.17         62.6241
729.59         62.8129
730.01        62.94655
730.43        62.95207
730.85         62.8317
731.27        62.61167
731.69        62.41252
732.10        62.42836
732.52        62.69921
732.94        63.17482
733.36        63.71556
733.78         64.0938
734.20        64.23299
734.62        64.11155
735.04        63.87654
735.46          63.944
735.88        64.29202
736.30        64.43549
736.72        64.32083
737.13         64.3265
737.55        64.39678
737.97        64.15688
738.39        63.74205
738.81        63.69154
739.23        64.00804
739.65        64.30727
740.06         64.4562
740.48        64.54268
740.90        64.52583
741.32        64.33768
741.74        64.07372
742.16        63.97971
742.57        64.11919
742.99        64.33001
743.41         64.5642
743.83        64.90247
744.25        65.23244
744.67        65.20015
745.08        64.89212
745.50        64.78538
745.92        64.93702
746.34         65.0776
746.75        65.17107
747.17        65.27485
747.59        65.37834
748.01        65.47849
748.42        65.56773
748.84        65.62341
749.26        65.65692
749.68        65.61165
750.09        65.52706
750.51        65.63686
750.93        65.87421
751.35        65.91006
751.76        65.76353
752.18         65.7269
752.60        65.81293
753.01        65.86092
753.43        65.84779
753.85        65.84793
754.27        65.87957
754.68        65.95319
755.10        66.06316
755.52        66.20179
755.93         66.3336
756.35        66.41788
756.77        66.53786
757.18        66.71929
757.60        66.95737
758.02        67.57079
758.43        68.23228
758.85        67.74004
759.26        66.39665
759.68         65.8584
760.10        66.27288
760.51        66.68703
760.93        66.91498
761.34        67.23484
761.76        67.48402
762.18        67.20789
762.59        66.56786
763.01        66.24305
763.42        66.34327
763.84        66.34812
764.26        66.28062
764.67        66.48229
765.09         66.9042
765.50        67.23763
765.92        67.43447
766.33        67.54063
766.75        67.47604
767.16        67.39536
767.58        67.30775
768.00        67.01012
768.41        66.66299
768.83        66.98084
769.24        67.74186
769.66        67.84647
770.07        67.34216
770.49        67.15379
770.90        67.36317
771.32        67.63938
771.73        67.90088
772.15        67.95852
772.56         67.7933
772.97        67.79244
773.39        67.55059
773.80        67.57489
774.22        67.71687
774.63        68.00488
775.05         68.3073
775.46        68.49775
775.88        68.51086
776.29        68.42564
776.70        68.28006
777.12        68.15993
777.53         68.0992
777.95        68.04758
778.36        68.05565
778.77        68.15967
779.19        68.35756
779.60        68.78149
780.02        69.25409
780.43        69.35031
780.84        69.14622
781.26        69.01115
781.67        69.07477
782.09        69.61535
782.50        70.36529
782.91         70.2309
783.33        69.30286
783.74        68.81687
784.15        68.85565
784.57        68.69714
784.98        68.36244
785.39        68.24671
785.81        68.37441
786.22        68.63191
786.63        68.98497
787.04        69.37936
787.46        69.77499
787.87        70.14887
788.28        70.48098
788.70        70.73004
789.11        70.88046
789.52        70.97521
789.93        70.98858
790.35        70.86837
790.76        70.66084
791.17         70.3879
791.58        70.16158
792.00        70.20733
792.41        70.46632
792.82        70.64066
793.23        70.67393
793.65        70.50779
794.06        70.30911
794.47        70.62556
794.88        71.26601
795.29        71.42242
795.71         71.0226
796.12        70.55098
796.53        70.19814
796.94        70.10522
797.35        70.35486
797.76        70.90595
798.18        71.54695
798.59        71.97142
799.00        72.06926
799.41        71.93417
799.82        71.67508
800.23        71.48629
800.64        71.43887
801.06        71.44012
801.47        71.52061
801.88        71.65954
802.29         71.8308
802.70        72.03806
803.11        72.22349
803.52        72.27657
803.93        72.18617
804.34        71.99443
804.75        71.74876
805.17        71.58346
805.58        71.57487
805.99        71.51696
806.40        71.47148
806.81        71.89749
807.22        72.61641
807.63         72.7755
808.04        72.39426
808.45        72.26687
808.86         72.4445
809.27        72.44129
809.68        72.25935
810.09        72.16954
810.50        72.19588
810.91        72.26004
811.32        72.36555
811.73        72.51236
812.14        72.68723
812.55        72.90672
812.96        73.09644
813.37         73.1142
813.78        72.94217
814.19        72.63165
814.60           72.32
815.01        72.20629
815.42        72.32907
815.83        72.63485
816.24        73.01617
816.65        73.25349
817.05        73.26582
817.46        73.08269
817.87        72.81903
818.28        72.59095
818.69        72.44359
819.10        72.35031
819.51        72.31074
819.92        72.32833
820.33        72.39775
820.74        72.51543
821.14        72.68464
821.55        72.91303
821.96        73.18314
822.37        73.48814
822.78        73.74619
823.19        73.82291
823.60        73.67915
824.00        73.33762
824.41        72.92384
824.82        72.66747
825.23        72.62307
825.64        72.76363
826.04        72.94635
826.45        72.83556
826.86        72.40164
827.27         71.7569
827.68        71.17164
828.08        71.09009
828.49        71.55556
828.90         72.4549
829.31        73.51705
829.72        74.27225
830.12        74.58667
830.53        74.49696
830.94         74.2075
831.35        74.03533
831.75        74.10455
832.16         74.2457
832.57        74.37488
832.97        74.31644
833.38        74.03833
833.79        73.68153
834.20        73.31413
834.60        72.99054
835.01        72.77421
835.42        72.61173
835.82        72.61604
836.23        72.91095
836.64        73.51264
837.04        74.40106
837.45        75.24018
837.86        75.62464
838.26        75.44493
838.67         74.8229
839.08        74.03517
839.48        73.50234
839.89        73.38342
840.29         73.5515
840.70        73.87686
841.11        74.15819
841.51        74.34805
841.92        74.48747
842.33        74.61778
842.73        74.78164
843.14        74.93716
843.54        75.07211
843.95        75.18825
844.35        75.36847
844.76        75.58676
845.17        75.80579
845.57        75.95992
845.98         75.9053
846.38        75.64375
846.79        75.23697
847.19        74.73866
847.60        74.19398
848.00        73.68496
848.41        73.22332
848.81        72.95944
849.22        73.10475
849.62        73.70588
850.03        74.64854
850.43        75.73866
850.84         76.4142
851.24         76.5634
851.65        76.21245
852.05        75.61432
852.46        75.15916
852.86        74.96279
853.27        74.98764
853.67         75.0119
854.07        74.92275
854.48        74.63821
854.88        74.23365
855.29        73.77995
855.69        73.63092
856.10        73.77792
856.50        74.21997
856.90         74.6414
857.31        74.61308
857.71        74.10765
858.12        73.22508
858.52        72.31678
858.92          71.918
859.33        72.15127
859.73        72.88921
860.13        73.82703
860.54        74.47286
860.94        74.71198
861.34        74.59989
861.75        74.22385
862.15         73.8048
862.55        73.40666
862.96        73.00071
863.36        72.53491
863.76        71.95439
864.17        71.30195
864.57        70.66791
864.97        70.18914
865.38        70.00861
865.78        70.17514
866.18        70.59743
866.58        71.20831
866.99         71.8356
867.39        72.41906
867.79        72.95122
868.19        73.26785
868.60        73.14063
869.00        72.57866
869.40        71.63782
869.80        70.73538
870.21        70.58298
870.61        71.36761
871.01        72.83119
871.41        74.38838
871.81        75.10442
872.22        74.74294
872.62        73.57685
873.02        72.09546
873.42        71.12134
873.82        70.92795
874.22        71.32274
874.63        71.94762
875.03        72.24897
875.43        72.09571
875.83        71.65398
876.23        71.31898
876.63        71.72546
877.03        72.95273
877.44        74.67612
877.84        76.34472
878.24        76.98454
878.64        76.40453
879.04        75.01418
879.44        73.32925
879.84        72.09201
880.24        71.51999
880.64        71.36591
881.04        71.61219
881.44        72.22013
881.84        73.09852
882.24        74.30639
882.65        75.42049
883.05        75.81809
883.45        75.31341
883.85        74.10052
884.25        72.78132
884.65        72.29918
885.05         72.8387
885.45         74.0918
885.85         75.5951
886.25        76.53785
886.65        76.63843
887.05        76.16339
887.45        75.28183
887.85        74.29295
888.25         73.4014
888.65        72.55788
889.04        71.88872
889.44        71.64935
889.84        71.79837
890.24        72.30933
890.64         73.0079
891.04        73.48436
891.44        73.58678
891.84        73.43161
892.24        73.16277
892.64        73.00036
893.04        73.00749
893.44        73.09969
893.83         73.3286
894.23        73.70561
894.63        74.22345
895.03        74.86536
895.43        75.46701
895.83        75.77757
896.23        75.74371
896.63         75.3998
897.02        74.91818
897.42        74.65967
897.82        74.69185
898.22        74.95809
898.62        75.22025
899.01        75.08493
899.41        74.47643
899.81        73.55392
900.21        72.66723
900.61        72.34235
901.00        72.67107
901.40        73.46923
901.80        74.35844
902.20        74.72231
902.59        74.39531
902.99        73.57578
903.39        72.57789
903.79        71.86635
904.18        71.58002
904.58        71.62041
904.98        71.81752
905.38        71.92471
905.77        71.85299
906.17        71.67915
906.57        71.56128
906.96        71.76558
907.36        72.29796
907.76        73.08551
908.15        73.82899
908.55        73.92403
908.95        73.32236
909.34        72.20244
909.74        71.11856
910.14        70.78472
910.53        71.39289
910.93        72.69041
911.33        74.28552
911.72        75.55715
912.12        76.20463
912.52        76.38223
912.91        76.32904
913.31        76.44355
913.70        76.83627
914.10        77.32859
914.49        77.61354
914.89        77.22982
915.29        76.16483
915.68         74.6578
916.08        73.20678
916.47        72.43134
916.87        72.52645
917.26        73.24122
917.66        74.28508
918.05        75.19397
918.45        75.72214
918.84        76.04045
919.24        76.05703
919.64         75.7839
920.03        75.28829
920.42        74.54799
920.82        73.80589
921.21        73.35053
921.61        73.26852
922.00        73.52703
922.40        73.98393
922.79        74.45135
923.19        74.80283
923.58        75.08151
923.98        75.29394
924.37          75.477
924.77        75.62653
925.16        75.71513
925.55        75.69244
925.95        75.49902
926.34         75.1653
926.74         74.7262
927.13        74.28152
927.52        73.94552
927.92        73.75959
928.31        73.67088
928.70        73.65436
929.10        73.64577
929.49        73.60949
929.89        73.53331
930.28        73.38711
930.67        73.04646
931.07        72.52551
931.46        71.91949
931.85        71.34781
932.24         70.9864
932.64        70.89912
933.03        71.05382
933.42        71.44991
933.82         72.0529
934.21        72.81145
934.60        73.62547
934.99        74.41218
935.39        75.03182
935.78        75.47613
936.17        75.74714
936.56        75.63808
936.96        74.89021
937.35        73.58401
937.74        71.91785
938.13        70.45862
938.53         69.9058
938.92         70.3233
939.31        71.57698
939.70        73.17495
940.09        74.13168
940.49        74.09738
940.88        73.33899
941.27        72.35674
941.66         71.9263
942.05        72.23507
942.44        73.08434
942.84        74.02264
943.23        74.33503
943.62        73.77651
944.01        72.60155
944.40        71.43668
944.79        71.17278
945.18         71.9814
945.57        73.61946
945.97        75.32821
946.36        76.04089
946.75        75.35436
947.14        73.61073
947.53        71.68653
947.92        70.90257
948.31        71.56918
948.70        73.35762
949.09        75.39745
949.48        76.12098
949.87        75.11907
950.26         72.9304
950.65        70.64223
951.04        69.76155
951.43        70.59271
951.82        72.71117
952.21        75.19696
952.60        76.34814
952.99        75.66108
953.38        73.71856
953.77        71.57483
954.16        70.62536
954.55        71.16412
954.94        72.85176
955.33        74.92115
955.72        75.74434
956.11        74.76657
956.50         72.5934
956.89          70.323
957.28        69.34964
957.66        69.99058
958.05        71.76425
958.44        73.94994
958.83        75.09427
959.22        74.69653
959.61        73.28246
960.00        71.62576
960.39        70.69678
960.78        70.68083
961.16        71.28935
961.55        72.09418
961.94        72.37486
962.33        71.89178
962.72        71.00632
963.11        70.04613
963.49        69.40822
963.88        69.19827
964.27        69.25124
964.66        69.57544
965.04        70.24677
965.43        71.13052
965.82        72.24774
966.21        73.31955
966.60        73.81885
966.98        73.65683
967.37        73.03674
967.76        72.29987
968.15        71.93658
968.53        72.03784
968.92        72.37862
969.31         72.9811
969.69        73.87959
970.08        74.91695
970.47        76.22159
970.86        77.17854
971.24        76.75869
971.63        74.85398
972.02        71.89615
972.40        69.11541
972.79        68.41265
973.17        70.08077
973.56        73.42442
973.95        77.32668
974.33        79.64912
974.72        79.59251
975.11        77.83783
975.49        75.30724
975.88         73.7416
976.26         73.6206
976.65        74.37489
977.04         75.5648
977.42        76.41154
977.81        76.46622
978.19        76.13268
978.58        75.64486
978.96        75.20361
979.35        74.97046
979.74        74.86673
980.12        74.92657
980.51        75.20042
980.89        75.72719
981.28        76.29124
981.66        77.07927
982.05        78.10249
982.43        79.40457
982.82        80.90975
983.20        81.97691
983.59        81.40934
983.97        79.12588
984.35        75.60994
984.74        72.28311
985.12        71.09517
985.51        72.31759
985.89        75.46471
986.28          79.125
986.66        81.28063
987.04        81.12997
987.43        79.26406
987.81        76.60387
988.20         75.0784
988.58        75.20101
988.96        76.42847
989.35        77.67686
989.73        77.44493
990.12        75.35639
990.50        72.17066
990.88        68.82394
991.27        66.76757
991.65        66.37653
992.03        67.16837
992.42        68.79999
992.80        71.07925
993.18        73.67321
993.56        76.68905
993.95        79.37604
994.33        80.47431
994.71         79.5817
995.10        77.12619
995.48        74.21462
995.86        72.61108
996.24         72.7552
996.63        74.11929
997.01        76.28667
997.39        78.16495
997.77         79.2491
998.15        79.87888
998.54        79.99957
998.92        79.53561
999.30         78.5603
999.68        77.02379
1000.06        75.41881
1000.45        74.72004
1000.83        75.27105
1001.21        76.83183
1001.59        78.86813
1001.97        80.41301
1002.35        81.13107
1002.73        81.26643
1003.12        80.93178
1003.50        80.25845
1003.88        79.41002
1004.26        78.33999
1004.64        77.31432
1005.02        76.82045
1005.40        76.97853
1005.78        77.69372
1006.16         78.6577
1006.54         79.4128
1006.92         79.8437
1007.30        80.01521
1007.69        80.06838
1008.07        80.43182
1008.45        81.16181
1008.83        82.15519
1009.21        83.00592
1009.59        83.10289
1009.97        82.32227
1010.35        80.79216
1010.73        79.19154
1011.11         78.6255
1011.49        79.28628
1011.86        80.89159
1012.24        82.39898
1012.62        82.38149
1013.00        80.51533
1013.38        77.17968
1013.76        73.29732
1014.14        70.90411
1014.52        70.81541
1014.90        72.42091
1015.28        74.83637
1015.66        76.61188
1016.04        77.29834
1016.41        77.56329
1016.79        77.17712
1017.17        75.90485
1017.55         74.2225
1017.93        72.36609
1018.31        71.39069
1018.69        72.53953
1019.06        76.09895
1019.44        82.25611
1019.82        90.49153
1020.20        96.37052
1020.58        96.35409
1020.95        91.43053
1021.33        84.97462
1021.71        80.27328
1022.09        77.53901
1022.46        75.63287
1022.84        74.29051
1023.22        72.57101
1023.60        70.67002
1023.97        69.67283
1024.35        69.61497
1024.73        70.20306
