SpectraSmart Spectrum 2.9.0.0
--------- Device Information -----------
Spectrum Name :  反射率_0
Saving Time :  2024/04/30 01:07:55
Spectro-Module Model Name : SE2030-DUVN
Spectro-Module Serial Number : OS361AC55029948
Wavelength Start : 200
Wavelength End : 1025
Wavelength Unit : Wavelength(nm)
Spectrum Unit : Reflectance(%)
-----------Spectrum Setting ------------
Integration Time : 20ms
Average : 10
Boxcar : 0
Background removal :  enabled
linearity correction :  enabled
SC :  disabled
Intensity correction :  disabled
DWT denoise :  enabled
savitzky-golay :  disabled
FFT :  disabled
Running average :  disabled
Kalman :  disabled
High pass :  disabled
---------------BEGIN--------------------
Wavelength(nm)             Reflectance(%)
200.29               0
200.75        30.17418
201.21        22.21589
201.67        11.82738
202.13        1.670932
202.58       -6.593034
203.04       -13.41244
203.50       -15.50034
203.96       -6.130336
204.42        15.47383
204.88        45.65614
205.34        72.67274
205.80        80.00105
206.26        69.66109
206.72        52.74988
207.18        36.59018
207.64        24.99489
208.10         17.1104
208.55        10.25095
209.01        5.979261
209.47        8.662888
209.93        17.40294
210.39        29.21231
210.85         38.8483
211.31        42.08504
211.77        38.92418
212.23        29.03564
212.69        14.27466
213.14        7.390475
213.60        14.69545
214.06        28.80199
214.52        41.28257
214.98        46.97043
215.44        46.87962
215.90        43.45372
216.36        38.46838
216.81         35.0302
217.27        34.91908
217.73        37.13844
218.19        42.07915
218.65        48.68552
219.11        54.06586
219.57        57.40024
220.02        58.11438
220.48        56.63544
220.94        52.90237
221.40        46.10725
221.86        36.44271
222.32        28.70693
222.77        26.52695
223.23        28.31472
223.69        30.44999
224.15        30.41196
224.61        28.19483
225.06         24.2394
225.52        20.31008
225.98        19.93673
226.44        23.33201
226.90        28.07821
227.36        31.69096
227.81        32.53382
228.27        30.89341
228.73         27.4396
229.19        23.57248
229.65        22.28609
230.10        24.11036
230.56        27.30242
231.02        30.17632
231.48        31.34832
231.93         30.8056
232.39        29.19687
232.85        27.08627
233.31        25.53184
233.77        24.96175
234.22        25.15682
234.68        25.70756
235.14        25.86707
235.60        25.49454
236.05        24.94471
236.51        24.79743
236.97         25.7971
237.43        28.21117
237.88        32.14925
238.34        37.31689
238.80        42.24238
239.26        45.31568
239.71        46.49928
240.17        46.09691
240.63        45.25777
241.08        44.41235
241.54        42.95284
242.00        41.27586
242.46        41.86348
242.91        46.97704
243.37         55.5873
243.83        63.90934
244.28        68.98103
244.74        70.76146
245.20        69.32858
245.66        65.38832
246.11        61.24898
246.57        58.50134
247.03        57.23677
247.48         56.2892
247.94        53.16722
248.40        48.99859
248.85        45.50909
249.31        44.29448
249.77        45.88349
250.22        50.51403
250.68         59.3227
251.14        72.70741
251.59        81.62172
252.05        78.49342
252.51        70.08658
252.96        63.04209
253.42        60.10668
253.88         59.9361
254.33        61.00294
254.79        62.90473
255.25        64.05192
255.70         63.7757
256.16        63.26282
256.62        62.58681
257.07        61.63083
257.53        60.77117
257.99        59.80432
258.44         58.6376
258.90        57.92178
259.35        57.33178
259.81         56.9977
260.27        56.70007
260.72        56.29453
261.18        55.89714
261.63        55.27363
262.09        54.46843
262.55        53.22623
263.00        51.60917
263.46        49.99615
263.91        48.38623
264.37        47.03342
264.83        45.86066
265.28        44.72289
265.74        43.80956
266.19        43.19903
266.65        42.92657
267.11        42.89581
267.56        42.80305
268.02        42.20604
268.47        41.01448
268.93        39.36407
269.38         37.5698
269.84        36.31288
270.30        35.75841
270.75        35.70352
271.21        35.79196
271.66        35.47156
272.12        34.62328
272.57        33.41003
273.03        32.10092
273.48         31.0375
273.94        30.37685
274.39        29.95415
274.85        29.66064
275.31        29.28819
275.76        28.76911
276.22        28.19901
276.67         27.6261
277.13        27.19147
277.58         26.8693
278.04        26.63722
278.49        26.36358
278.95        25.95203
279.40        25.35888
279.86        24.70299
280.31        24.05035
280.77        23.60351
281.22        23.36184
281.68        23.28135
282.13        23.28583
282.59        23.30797
283.04        23.30064
283.50         23.2811
283.95        23.21406
284.41        23.05008
284.86        22.79075
285.32        22.49731
285.77        22.19979
286.22        22.00828
286.68        21.95667
287.13        21.97805
287.59        22.09415
288.04        22.28158
288.50        22.52197
288.95        22.77501
289.41        22.98014
289.86        23.01262
290.32        22.88944
290.77        22.66881
291.22        22.42912
291.68         22.2906
292.13        22.29705
292.59          22.442
293.04        22.78933
293.50        23.45498
293.95        24.42545
294.40        25.65855
294.86        26.95779
295.31         28.0254
295.77        28.78039
296.22        29.28322
296.68         29.7129
297.13        30.33984
297.58        31.23942
298.04         32.3007
298.49        33.38055
298.95        34.25621
299.40        34.87509
299.85        35.32757
300.31        35.73463
300.76        36.21204
301.21        36.82064
301.67        37.51616
302.12        38.21827
302.58        38.95391
303.03        39.68549
303.48        40.29949
303.94        40.77412
304.39         41.6765
304.84        41.97401
305.30        42.49616
305.75        42.90871
306.20        43.24818
306.66        43.52648
307.11        43.73237
307.57        43.91268
308.02        44.04479
308.47        44.15168
308.93        44.24455
309.38        44.31118
309.83        44.38797
310.29        44.47933
310.74        44.57085
311.19        44.62754
311.65        44.58579
312.10        44.43223
312.55        44.19581
313.00        43.94984
313.46        43.80688
313.91        43.77769
314.36        43.83155
314.82        43.89372
315.27        43.86682
315.72        43.70744
316.18         43.4468
316.63        43.11904
317.08        42.79046
317.53        42.49173
317.99        42.22486
318.44        41.95749
318.89        41.64412
319.35        41.28207
319.80        40.88712
320.25        40.54772
320.70        40.40285
321.16        40.45304
321.61        40.66315
322.06        40.86522
322.51        40.79335
322.97        40.38356
323.42        39.72576
323.87         38.9784
324.32        38.39906
324.78         38.0514
325.23        37.88575
325.68        37.80563
326.13        37.65072
326.59        37.36671
327.04        37.02654
327.49        36.68798
327.94        36.45249
328.39        36.33637
328.85         36.2709
329.30        36.21806
329.75        36.06364
330.20        35.77996
330.66        35.41119
331.11        35.00072
331.56        34.58321
332.01        34.18512
332.46         33.7937
332.92         33.4495
333.37        33.26707
333.82        33.24755
334.27        33.36038
334.72        33.49934
335.17        33.48125
335.63        33.25031
336.08        32.86964
336.53        32.40451
336.98        31.99492
337.43        31.69866
337.88        31.47923
338.34        31.33224
338.79        31.26802
339.24        31.26542
339.69        31.33264
340.14         31.4104
340.59        31.39524
341.05        31.26387
341.50        31.03039
341.95        30.76551
342.40         30.5953
342.85        30.54433
343.30        30.57241
343.75        30.59699
344.20        30.48624
344.66        30.22571
345.11        29.86315
345.56        29.48335
346.01        29.21463
346.46        29.09633
346.91        29.08435
347.36        29.13766
347.81        29.19693
348.26        29.23083
348.72        29.24377
349.17        29.22215
349.62        29.14193
350.07        29.00021
350.52        28.80534
350.97        28.57051
351.42        28.31474
351.87        28.05863
352.32        27.81935
352.77        27.62412
353.22        27.51225
353.67        27.48751
354.13        27.52078
354.58        27.60344
355.03        27.72185
355.48        27.84699
355.93        27.96811
356.38        28.00544
356.83         27.8435
357.28        27.47894
357.73         26.9607
358.18        26.41164
358.63         26.0262
359.08        25.85157
359.53        25.83124
359.98        25.88076
360.43        25.85935
360.88        25.72212
361.33        25.51249
361.78         25.2598
362.23        25.00882
362.68        24.77994
363.13        24.55758
363.58        24.34455
364.03        24.15016
364.48        23.97696
364.93        23.82839
365.38        23.70715
365.83        23.61336
366.28        23.54089
366.73        23.48087
367.18        23.41647
367.63        23.32301
368.08        23.19348
368.53        23.03619
368.98        22.85626
369.43        22.66355
369.88        22.46889
370.33        22.27505
370.78        22.10165
371.23        21.97983
371.68        21.91256
372.13         21.8862
372.58        21.87573
373.03        21.83904
373.48        21.75908
373.93        21.64344
374.38        21.49074
374.83        21.30489
375.28        21.09784
375.72        20.86716
376.17        20.65458
376.62        20.47934
377.07        20.34356
377.52        20.23805
377.97         20.1538
378.42        20.07496
378.87        19.99626
379.32        19.92455
379.77        19.84911
380.22        19.75318
380.67        19.63391
381.11        19.49055
381.56        19.35145
382.01        19.26318
382.46        19.23614
382.91        19.25971
383.36        19.28823
383.81         19.2516
384.26        19.13616
384.71        18.95857
385.15         18.7683
385.60        18.67029
386.05        18.66992
386.50        18.73391
386.95        18.79181
387.40         18.7349
387.85        18.55081
388.29        18.27725
388.74        18.01069
389.19        17.82146
389.64        17.72588
390.09        17.68944
390.54        17.69633
390.98        17.71891
391.43        17.74609
391.88        17.78427
392.33        17.80006
392.78        17.76267
393.23        17.67517
393.67        17.50637
394.12        17.32085
394.57        17.32805
395.02         17.2867
395.47        17.37337
395.91        17.46558
396.36        17.47213
396.81        17.37726
397.26        17.21582
397.71        17.03463
398.15        16.89356
398.60        16.83194
399.05        16.79224
399.50        16.75443
399.95        16.76346
400.39        16.72415
400.84        16.64078
401.29        16.50933
401.74        16.42514
402.18        16.40211
402.63        16.37998
403.08        16.36388
403.53        16.37405
403.97        16.40676
404.42        16.46229
404.87        16.49854
405.32        16.44753
405.76        16.29869
406.21        16.07788
406.66        15.86643
407.11        15.79494
407.55        15.89199
408.00        16.11952
408.45        16.37054
408.90        16.45015
409.34        16.30898
409.79        16.00923
410.24         15.6891
410.68        15.55709
411.13         15.6587
411.58        15.92713
412.03        16.23909
412.47        16.38383
412.92        16.29196
413.37        16.04797
413.81        15.75244
414.26        15.57626
414.71        15.54795
415.15        15.61643
415.60        15.72158
416.05        15.78599
416.49        15.78137
416.94        15.74184
417.39        15.67896
417.83        15.60237
418.28        15.52689
418.73        15.44084
419.17        15.37039
419.62        15.36246
420.07        15.41924
420.51        15.52283
420.96         15.6308
421.41        15.66632
421.85        15.61011
422.30        15.50509
422.74        15.37707
423.19        15.28994
423.64        15.25252
424.08        15.25216
424.53        15.27312
424.98        15.31668
425.42        15.37749
425.87        15.44412
426.31        15.48959
426.76         15.4948
427.21        15.40347
427.65        15.25441
428.10        15.08155
428.54        14.91935
428.99        14.80131
429.44        14.81711
429.88        14.90771
430.33        14.79001
430.77        14.55518
431.22         14.6891
431.66        15.14376
432.11        15.36559
432.56        15.27209
433.00        15.20042
433.45        15.15634
433.89        14.82952
434.34        14.40812
434.78        14.45143
435.23        14.85171
435.67        14.96699
436.12          14.759
436.57        14.58155
437.01        14.50668
437.46        14.50378
437.90        14.58875
438.35        14.75701
438.79        14.94013
439.24        15.00577
439.68        14.95135
440.13        14.87558
440.57        14.79273
441.02        14.73565
441.46        14.72234
441.91        14.63314
442.35        14.51022
442.80        14.73184
443.24        15.15534
443.69        15.06529
444.13        14.53572
444.58        14.29446
445.02        14.35255
445.47        14.32854
445.91        14.21637
446.36        14.19264
446.80        14.25191
447.24        14.35324
447.69        14.46187
448.13        14.52199
448.58        14.52188
449.02        14.47751
449.47        14.42653
449.91        14.42026
450.36        14.47189
450.80        14.56184
451.25        14.65594
451.69        14.69891
452.13        14.67613
452.58        14.61302
453.02        14.53415
453.47        14.47725
453.91        14.44934
454.36        14.47889
454.80        14.47906
455.24        14.47852
455.69         14.4528
456.13        14.40987
456.58        14.36547
457.02         14.3282
457.46        14.30567
457.91        14.29193
458.35        14.28031
458.79         14.2676
459.24        14.26125
459.68        14.26922
460.13        14.29295
460.57          14.268
461.01        14.30254
461.46        14.25424
461.90        14.18822
462.34        14.28633
462.79        14.48628
463.23        14.47497
463.68        14.27133
464.12        14.17107
464.56        14.18647
465.01        14.17232
465.45        14.11816
465.89        14.07008
466.34        14.05317
466.78         14.1206
467.22        14.27745
467.67        14.30088
468.11         14.1881
468.55        14.02231
468.99        13.86962
469.44        13.79605
469.88        13.82054
470.32        13.92745
470.77        14.05893
471.21        14.13431
471.65         14.1248
472.10        14.06293
472.54        13.98494
472.98        13.96305
473.42        14.01149
473.87        14.10002
474.31        14.19272
474.75        14.23873
475.20        14.22986
475.64        14.18357
476.08        14.11891
476.52        14.05985
476.97        14.01819
477.41        13.98404
477.85        13.97239
478.29        14.00593
478.74         14.0882
479.18        14.20282
479.62        14.31451
480.06        14.40153
480.50        14.46222
480.95        14.37585
481.39        14.39036
481.83        14.41108
482.27        14.52326
482.72        14.58721
483.16        14.77528
483.60        14.86569
484.04        14.90065
484.48         14.9179
484.93        14.95591
485.37        14.97881
485.81        14.97547
486.25         15.1243
486.69        15.01219
487.14        15.06331
487.58        15.51396
488.02        15.58571
488.46        15.68402
488.90        16.01431
489.34        15.58802
489.79        15.62164
490.23        15.77239
490.67        16.04847
491.11        16.33307
491.55        16.30374
491.99         16.0531
492.43         16.0606
492.88        16.35469
493.32        16.63288
493.76        16.83501
494.20        17.03224
494.64        17.21065
495.08        17.34354
495.52        17.43416
495.96         17.5256
496.41        17.63289
496.85        17.67635
497.29        17.67686
497.73        17.91357
498.17        18.13504
498.61        18.23265
499.05        18.16893
499.49        18.20909
499.93        18.38278
500.37        18.61252
500.82        18.84264
501.26        18.98413
501.70        19.01986
502.14        19.00334
502.58        18.99632
503.02        19.07381
503.46        19.25532
503.90        19.51869
504.34        19.79941
504.78        19.98767
505.22        20.05219
505.66        20.02059
506.10        19.94148
506.54        19.91709
506.98        19.97695
507.42          20.052
507.86        20.09266
508.30        20.24807
508.74        20.13602
509.18         20.0808
509.62        20.01772
510.06        20.02304
510.50        20.11042
510.94        20.26212
511.38        20.43764
511.82        20.55996
512.26        20.60784
512.70        20.60099
513.14        20.57843
513.58        20.60202
514.02        20.68557
514.46        20.80709
514.90        20.92873
515.34        20.99069
515.78        20.97775
516.22        20.91057
516.66        20.82396
517.10        20.77107
517.54        20.76468
517.98        20.78617
518.42        20.80993
518.86        20.79523
519.30         20.7327
519.74        20.64133
520.18        20.53862
520.62        20.44743
521.06        20.37831
521.50        20.32846
521.93        20.30431
522.37        20.29544
522.81        20.29703
523.25        20.33206
523.69        20.40222
524.13        20.36146
524.57        20.44048
525.01        20.44851
525.45        20.43635
525.89        20.36999
526.32        20.24854
526.76         20.0863
527.20        19.91963
527.64        19.81114
528.08        19.77201
528.52        19.78566
528.96        19.81409
529.40        19.79497
529.83        19.71153
530.27        19.58454
530.71        19.44359
531.15        19.33862
531.59        19.28115
532.03        19.25294
532.46        19.22823
532.90        19.17356
533.34        19.08193
533.78        18.97375
534.22        18.86543
534.66        18.77877
535.09         18.7196
535.53        18.68359
535.97        18.67265
536.41        18.69675
536.85        18.75006
537.28        18.82502
537.72        18.89437
538.16        18.91763
538.60        18.88763
539.04        18.82184
539.47        18.73738
539.91        18.68032
540.35        18.66034
540.79        18.67321
541.22        18.72247
541.66        18.81546
542.10        18.94625
542.54        19.11184
542.97        19.29572
543.41        19.47213
543.85        19.63273
544.29        19.78528
544.72        19.92248
545.16        20.05085
545.60        20.17249
546.04        20.27722
546.47        20.38844
546.91         20.5755
547.35        20.82749
547.79        21.06201
548.22        21.24702
548.66        21.44787
549.10        21.66526
549.53        21.79266
549.97        21.81148
550.41        22.14164
550.84        22.12722
551.28        22.26419
551.72        22.35355
552.15         22.5891
552.59        22.68841
553.03         22.8761
553.46        23.06155
553.90        23.22853
554.34        23.36684
554.77        23.50496
555.21        23.64293
555.65        23.71769
556.08        23.75179
556.52         23.8601
556.96        24.03103
557.39         24.1898
557.83        24.32493
558.27        24.42384
558.70         24.5088
559.14         24.6447
559.57        24.81222
560.01        24.97204
560.45        25.09665
560.88        25.07483
561.32        25.06505
561.75        25.08378
562.19        25.17809
562.63        25.24405
563.06        25.28008
563.50        25.36349
563.93        25.47659
564.37        25.57952
564.80        25.66011
565.24         25.7353
565.68        25.81088
566.11        25.91524
566.55        26.05488
566.98        26.17091
567.42        26.28481
567.85        26.41487
568.29        26.57022
568.72        26.69084
569.16        27.04926
569.60        26.93869
570.03        27.25985
570.47        27.39942
570.90        27.59018
571.34        27.64126
571.77        27.88719
572.21        28.02676
572.64        28.11461
573.08        28.28464
573.51        28.61233
573.95        28.39212
574.38        28.76382
574.82        28.93813
575.25         28.8086
575.69        28.77822
576.12        28.41298
576.56        28.85369
576.99        28.90198
577.42        28.94994
577.86        28.85513
578.29        28.74282
578.73         28.7584
579.16        28.62083
579.60        28.55526
580.03        28.74732
580.47        28.54572
580.90        28.45036
581.33         28.2935
581.77        27.98162
582.20        27.91299
582.64        27.74326
583.07          27.624
583.51        27.46864
583.94        27.39387
584.37        27.24282
584.81        27.05369
585.24        27.07606
585.68        27.13257
586.11        26.94781
586.54        26.68246
586.98        26.69121
587.41        26.91797
587.85        26.80717
588.28        26.33609
588.71        26.62185
589.15        26.38977
589.58        26.29901
590.01        26.39759
590.45        26.29333
590.88        26.19128
591.31        26.17837
591.75        26.22606
592.18        26.39029
592.61        26.68261
593.05        26.16461
593.48        26.56142
593.91        26.57596
594.35        26.38396
594.78        26.51437
595.21        26.84401
595.65        26.88778
596.08         26.6801
596.51        27.02367
596.94         27.3417
597.38         27.7583
597.81         28.0202
598.24        28.13305
598.68        28.45498
599.11        28.63635
599.54        28.99931
599.97        29.54526
600.41        29.43112
600.84        29.76995
601.27        30.20324
601.70        30.73739
602.14        31.28331
602.57        31.58721
603.00          31.964
603.43        32.31772
603.87        32.65893
604.30        33.25494
604.73        33.70889
605.16        34.05906
605.60        34.63192
606.03        35.20037
606.46        35.77299
606.89        36.15671
607.32        36.40865
607.76        36.72742
608.19        37.13557
608.62         37.5114
609.05        37.88276
609.48        38.30912
609.92        38.68473
610.35        39.11901
610.78        39.45279
611.21        39.42505
611.64        39.88697
612.07        40.33526
612.50        40.42125
612.94        40.79641
613.37        41.34806
613.80        41.40414
614.23        42.00249
614.66        42.27606
615.09        42.56805
615.52        42.73439
615.96        42.75333
616.39        43.30301
616.82        43.22913
617.25        43.44836
617.68         43.6973
618.11         44.0318
618.54        44.40209
618.97        44.57539
619.40        44.62016
619.84        44.77595
620.27        45.06507
620.70        45.44104
621.13        45.84395
621.56        45.73522
621.99          45.682
622.42        45.69379
622.85        45.96833
623.28        45.65617
623.71        46.17326
624.14        45.32202
624.57         45.7536
625.00        45.62977
625.43         45.5957
625.86         45.4992
626.29        45.34962
626.72        45.22228
627.15        45.10112
627.58        45.01345
628.01        44.92044
628.44        44.68127
628.87        44.32347
629.30        44.06554
629.73        43.91126
630.16        43.66106
630.59        43.30315
631.02        43.05642
631.45        42.70824
631.88        42.33001
632.31        41.86027
632.74        41.33229
633.17        40.78421
633.60        40.28326
634.03        39.84861
634.46        39.45466
634.89        39.07618
635.32        38.67644
635.75        38.24001
636.18        37.77455
636.61        37.28979
637.04         36.8059
637.47        36.33983
637.89        35.86814
638.32        35.37381
638.75        34.93795
639.18        34.58538
639.61        33.96878
640.04        33.73355
640.47         33.4248
640.90        33.22773
641.33        33.11832
641.76        33.05342
642.18        32.95269
642.61        32.78207
643.04        32.57234
643.47        32.38156
643.90        32.29272
644.33        32.32406
644.76        32.49204
645.18        32.72784
645.61        32.83098
646.04        32.74688
646.47        32.87784
646.90        33.20087
647.33        33.44844
647.75        33.61501
648.18        33.88592
648.61         34.2413
649.04        34.59662
649.47        34.96276
649.89        35.29029
650.32        35.63209
650.75        36.31416
651.18        37.22739
651.61        37.81583
652.03         38.1249
652.46        38.66348
652.89        39.40545
653.32        40.05068
653.74        40.66364
654.17         40.9753
654.60        41.32843
655.03         42.8693
655.46        42.28597
655.88        43.92578
656.31         46.4225
656.74        46.86064
657.16        46.11944
657.59        45.31559
658.02        45.93896
658.45        47.17587
658.87        47.64507
659.30        47.77648
659.73        48.71188
660.15        49.19394
660.58        49.64807
661.01        50.00273
661.44        50.31667
661.86        50.32537
662.29        50.19044
662.72        50.62022
663.14        51.50459
663.57        51.77278
664.00        51.48996
664.42        51.59176
664.85        52.12553
665.27         52.5822
665.70        52.82842
666.13        53.07333
666.55        53.29147
666.98         53.4432
667.41        53.54527
667.83        53.61806
668.26        53.67043
668.69        53.71288
669.11        53.77954
669.54        53.91195
669.96        54.11296
670.39        54.39947
670.82        54.71011
671.24        54.86674
671.67        54.87416
672.09        54.94373
672.52        55.09478
672.94        55.24795
673.37        54.98642
673.80        55.38387
674.22        55.22802
674.65        55.42319
675.07        55.64403
675.50        55.92292
675.92        56.21494
676.35        56.38428
676.77         56.4141
677.20        56.52378
677.62        56.39925
678.05        56.43749
678.47        56.54693
678.90        56.71186
679.32        56.87159
679.75         56.9472
680.17        56.91858
680.60        56.82224
681.02        56.71111
681.45        56.66087
681.87         56.6997
682.30        56.81544
682.72         56.9837
683.15        57.07862
683.57        57.11459
684.00        57.21727
684.42        57.38853
684.85        57.51917
685.27         57.5986
685.70        57.71441
686.12        57.85563
686.54        57.96629
686.97        58.04639
687.39        58.26462
687.82        58.53621
688.24        58.63384
688.66        58.53549
689.09         58.3653
689.51        58.17878
689.94        58.04578
690.36        57.99994
690.78        57.95554
691.21        57.93773
691.63        58.16025
692.06        58.53024
692.48        58.65118
692.90        58.53128
693.33        58.52222
693.75        58.63595
694.17         58.6451
694.60        58.57162
695.02        58.54202
695.44        58.56102
695.87        58.69667
696.29        58.91028
696.71        58.82176
697.14        58.64432
697.56        58.76379
697.98        59.17294
698.41        59.38949
698.83        59.36633
699.25        59.41998
699.68        59.54966
700.10        59.51841
700.52        59.27969
700.94         59.5341
701.37          59.167
701.79        59.13034
702.21        59.09634
702.64        59.09437
703.06        59.12589
703.48        59.22329
703.90        59.39451
704.33         59.6236
704.75        59.84752
705.17        60.02258
705.59        60.10865
706.01        60.12202
706.44        60.08759
706.86        60.05429
707.28        60.04073
707.70        60.04333
708.12        60.07564
708.55        60.14357
708.97        60.24699
709.39        60.37836
709.81        60.53484
710.23        60.72217
710.66         60.9189
711.08         61.1231
711.50        61.28333
711.92        61.35652
712.34        61.33724
712.76        61.24027
713.19         61.0928
713.61        60.98553
714.03        60.93067
714.45        60.91593
714.87        60.93795
715.29        60.98863
715.71        61.05931
716.13        61.14651
716.56        61.20967
716.98        61.29884
717.40        61.31119
717.82        61.30701
718.24        61.28574
718.66        61.28552
719.08        61.31256
719.50        61.36104
719.92        61.41708
720.34        61.43154
720.76         61.4084
721.19        61.40839
721.61        61.42429
722.03        61.37079
722.45        61.24738
722.87         61.0956
723.29        60.96737
723.71         60.9308
724.13        61.00218
724.55        61.16319
724.97          61.355
725.39        61.47652
725.81        61.50453
726.23        61.47233
726.65        61.42672
727.07        61.44715
727.49        61.55022
727.91        61.69344
728.33        61.85825
728.75        62.01618
729.17        62.14632
729.59        62.26551
730.01        62.32317
730.43         62.2351
730.85        62.00805
731.27         61.6828
731.69        61.38211
732.10        61.29912
732.52         61.4717
732.94        61.84008
733.36        62.29073
733.78        62.62484
734.20        62.76761
734.62        62.72433
735.04        62.66592
735.46        62.59576
735.88         62.6008
736.30        62.71414
736.72        62.86235
737.13        62.91333
737.55        62.76988
737.97        62.39971
738.39        61.97149
738.81        61.69153
739.23        61.86595
739.65        62.24622
740.06        62.69239
740.48        62.90001
740.90        62.79676
741.32        62.50043
741.74        62.15734
742.16        62.01008
742.57        62.13785
742.99        62.41173
743.41        62.73315
743.83        63.01843
744.25        63.18022
744.67        63.08786
745.08        62.83438
745.50        62.72252
745.92        62.80679
746.34        62.92973
746.75        63.05807
747.17        63.15979
747.59         63.2076
748.01         63.2885
748.42        63.42319
748.84        63.22316
749.26        63.32201
749.68        63.21885
750.09        63.11772
750.51        63.06511
750.93        63.06718
751.35        63.11568
751.76        63.17395
752.18        63.19291
752.60        63.15834
753.01        63.07712
753.43        62.99244
753.85        63.01524
754.27        63.16009
754.68        63.40165
755.10        63.64136
755.52        63.69424
755.93        63.58968
756.35        63.38113
756.77         63.2492
757.18        63.33441
757.60        63.67934
758.02        64.25937
758.43        65.34631
758.85        64.93822
759.26        63.47692
759.68        62.97943
760.10        63.54818
760.51        63.96101
760.93        64.03786
761.34         64.1918
761.76        64.31824
762.18        64.09147
762.59         63.6212
763.01        63.27861
763.42        63.18077
763.84        63.11274
764.26        63.10764
764.67        63.31506
765.09        63.67805
765.50        63.98892
765.92        64.19248
766.33        64.25425
766.75        64.10858
767.16        64.02607
767.58        63.93162
768.00        63.63591
768.41        63.26033
768.83        63.46095
769.24        64.05516
769.66        64.14148
770.07        63.73819
770.49        63.50659
770.90        63.55046
771.32        63.79699
771.73        64.15774
772.15        64.27192
772.56        64.11315
772.97        64.10244
773.39        63.85022
773.80        63.99158
774.22        64.06935
774.63        64.32613
775.05         64.5471
775.46        64.66528
775.88        64.62505
776.29        64.47976
776.70        64.28555
777.12        64.16014
777.53        64.13621
777.95        64.15005
778.36         64.2228
778.77        64.33569
779.19        64.47086
779.60        64.79992
780.02        65.16393
780.43        65.09605
780.84        64.71763
781.26        64.56564
781.67         64.7375
782.09        65.26693
782.50        65.90382
782.91        65.79901
783.33        65.03857
783.74        64.67061
784.15        64.76253
784.57        64.67774
784.98        64.42499
785.39        64.34383
785.81        64.45249
786.22        64.65164
786.63        64.91254
787.04        65.19139
787.46         65.4576
787.87        65.69417
788.28        65.89618
788.70         66.0352
789.11        66.10099
789.52        66.15995
789.93        66.17809
790.35        66.02238
790.76        65.74867
791.17        65.53661
791.58        65.47867
792.00        65.54185
792.41        65.70753
792.82        66.06102
793.23         66.4682
793.65        66.35909
794.06        65.90349
794.47        66.04387
794.88        66.64062
795.29        66.73891
795.71        66.28454
796.12        65.84959
796.53        65.59495
796.94         65.5528
797.35        65.78133
797.76        66.27076
798.18        66.83696
798.59        67.21664
799.00        67.31299
799.41        67.19788
799.82         66.9659
800.23         66.7935
800.64        66.74258
801.06        66.72626
801.47        66.76987
801.88        66.85158
802.29         66.9431
802.70        67.04002
803.11        67.10065
803.52        67.04548
803.93        66.88293
804.34        66.66126
804.75        66.39235
805.17        66.21133
805.58        66.20138
805.99        65.97282
806.40        65.68163
806.81        66.39584
807.22        67.74109
807.63        67.77355
808.04        66.62523
808.45        66.25445
808.86        66.80318
809.27        67.12569
809.68        67.10005
810.09        67.10457
810.50         67.1246
810.91        67.05795
811.32         66.9843
811.73        67.02802
812.14        67.21043
812.55        67.51699
812.96        67.84051
813.37        67.96856
813.78        67.85201
814.19        67.56857
814.60        67.24783
815.01        67.07156
815.42        67.08057
815.83        67.21832
816.24        67.41298
816.65        67.52518
817.05         67.5034
817.46         67.3651
817.87        67.17673
818.28        66.97744
818.69        66.79334
819.10        66.61988
819.51        66.48861
819.92        66.46215
820.33        66.55366
820.74         66.7349
821.14        66.98317
821.55        67.27186
821.96        67.56968
822.37        67.87806
822.78        68.12106
823.19        68.17143
823.60        68.00107
824.00        67.64361
824.41        67.21928
824.82        66.94902
825.23        66.88832
825.64        67.00206
826.04        67.19484
826.45        67.22034
826.86        67.04511
827.27        66.74551
827.68        66.46387
828.08        66.44178
828.49        66.69086
828.90        67.16695
829.31        67.74143
829.72        68.19698
830.12        68.48085
830.53        68.56296
830.94        68.57491
831.35        68.70347
831.75        69.00716
832.16        69.36035
832.57        69.62837
832.97         69.5528
833.38         69.1063
833.79        68.45441
834.20        67.78072
834.60        67.32413
835.01        67.17792
835.42        67.23196
835.82        67.51278
836.23         67.9958
836.64        68.63931
837.04        69.46309
837.45        70.14738
837.86        70.31116
838.26        69.87884
838.67        68.98108
839.08        67.94678
839.48        67.27587
839.89        67.14601
840.29        67.41576
840.70        67.92413
841.11         68.4128
841.51        68.79352
841.92        69.09118
842.33        69.33252
842.73        69.54234
843.14        69.67715
843.54        69.74483
843.95        69.70547
844.35        69.57552
844.76        69.35378
845.17        69.04418
845.57        68.76408
845.98        68.66032
846.38        68.77554
846.79        69.06977
847.19        69.35439
847.60        69.26273
848.00         68.7469
848.41        67.93506
848.81        67.12892
849.22        66.77721
849.62         67.0095
850.03        67.65717
850.43        68.51736
850.84        69.03783
851.24        69.10153
851.65        68.77222
852.05        68.29195
852.46        68.00787
852.86         68.0022
853.27        68.20232
853.67        68.36871
854.07        68.36179
854.48        68.10513
854.88        67.67287
855.29        67.14674
855.69        66.88139
856.10        66.89801
856.50        67.19887
856.90        67.50945
857.31        67.44691
857.71        66.98819
858.12        66.22578
858.52        65.46619
858.92        65.16808
859.33        65.43513
859.73        66.16315
860.13        67.07184
860.54        67.71633
860.94        67.99136
861.34         67.9244
861.75         67.6265
862.15        67.35202
862.55        67.15679
862.96        66.99903
863.36        66.72665
863.76        66.12617
864.17        65.22963
864.57        64.19822
864.97        63.31032
865.38        62.92716
865.78        63.15051
866.18        63.83507
866.58        64.83092
866.99         65.7841
867.39        66.53041
867.79        67.10098
868.19        67.36536
868.60         67.1562
869.00        66.51105
869.40        65.46995
869.80        64.43853
870.21        64.12061
870.61        64.71562
871.01        65.99017
871.41        67.42748
871.81        68.18623
872.22        68.04021
872.62        67.22558
873.02        66.12208
873.42        65.37494
873.82        65.20074
874.22        65.43534
874.63        65.81476
875.03        65.94316
875.43        65.72598
875.83        65.29555
876.23        64.95167
876.63        65.16449
877.03        66.00282
877.44        67.23695
877.84        68.47125
878.24        68.98029
878.64        68.61514
879.04        67.65621
879.44         66.5104
879.84        65.77042
880.24        65.58933
880.64        65.76873
881.04        66.19519
881.44        66.67564
881.84        67.11237
882.24        67.59252
882.65        67.94785
883.05        68.01028
883.45        67.70801
883.85         67.1016
884.25        66.47966
884.65        66.30255
885.05        66.64864
885.45        67.36067
885.85        68.18578
886.25         68.6795
886.65         68.6838
887.05        68.34023
887.45        67.72466
887.85        66.98042
888.25        66.24409
888.65         65.5321
889.04        64.95493
889.44        64.72128
889.84        64.80286
890.24        65.15771
890.64        65.69472
891.04        66.18158
891.44        66.49884
891.84        66.69686
892.24        66.76665
892.64        66.72222
893.04        66.60123
893.44        66.38834
893.83        66.24625
894.23        66.39658
894.63        66.89108
895.03        67.63474
895.43        68.39477
895.83        68.81381
896.23         68.8039
896.63        68.45422
897.02        67.91306
897.42         67.4985
897.82        67.29204
898.22        67.24452
898.62        67.24599
899.01        67.12109
899.41        66.82262
899.81        66.42845
900.21        66.10794
900.61        66.10439
901.00        66.44962
901.40        67.06023
901.80        67.67269
902.20        67.86765
902.59        67.55289
902.99         66.8518
903.39         66.0751
903.79         65.6907
904.18        65.79675
904.58        66.27242
904.98        66.83707
905.38         67.0591
905.77        66.81828
906.17        66.25966
906.57        65.63398
906.96        65.36142
907.36        65.51448
907.76        65.98756
908.15        66.52724
908.55         66.5993
908.95        66.15022
909.34        65.34697
909.74        64.60756
910.14        64.43024
910.53         64.9568
910.93        65.97387
911.33        67.23035
911.72        68.34244
912.12        69.08033
912.52        69.55049
912.91        69.83589
913.31        70.07526
913.70        70.31028
914.10        70.43133
914.49        70.35069
914.89        69.93879
915.29        69.22388
915.68        68.31733
916.08        67.43234
916.47        66.74873
916.87        66.38582
917.26        66.26821
917.66        66.37753
918.05        66.69067
918.45         67.1067
918.84        67.64687
919.24        68.12312
919.64        68.35547
920.03        68.29506
920.42        67.96896
920.82        67.50056
921.21        67.00315
921.61        66.55521
922.00        66.15549
922.40         65.8757
922.79        65.90903
923.19        66.24403
923.58        66.84254
923.98        67.51442
924.37        67.96949
924.77        68.12154
925.16        68.04104
925.55        67.83117
925.95        67.68401
926.34        67.67788
926.74        67.73391
927.13        67.80121
927.52        67.76811
927.92        67.61787
928.31         67.3875
928.70         67.1331
929.10        66.91912
929.49        66.75953
929.89        66.59596
930.28        66.43159
930.67        66.20864
931.07        65.92657
931.46        65.66233
931.85         65.3905
932.24        65.06523
932.64        64.71437
933.03        64.35595
933.42        64.15688
933.82        64.38539
934.21        65.08081
934.60        66.09064
934.99        67.16928
935.39        67.89226
935.78        68.18289
936.17        68.14404
936.56        67.76047
936.96        67.08663
937.35        66.24283
937.74         65.2441
938.13        64.45955
938.53        64.35783
938.92        64.95157
939.31         66.1881
939.70        67.56965
940.09        68.11351
940.49        67.53516
940.88        66.13531
941.27        64.57777
941.66        63.85365
942.05        64.17268
942.44        65.28886
942.84        66.62096
943.23        67.15725
943.62        66.57211
944.01        65.22846
944.40        63.82439
944.79        63.36768
945.18        64.07206
945.57        65.61597
945.97        67.35214
946.36        68.39445
946.75        68.33839
947.14        67.47328
947.53        66.34301
947.92        65.76512
948.31         65.9594
948.70        66.70129
949.09         67.5423
949.48        67.70736
949.87        66.99962
950.26        65.71278
950.65        64.41627
951.04        63.86281
951.43        64.20472
951.82        65.24943
952.21        66.46853
952.60        66.90879
952.99        66.30231
953.38        64.94254
953.77        63.53532
954.16        63.02195
954.55         63.5784
954.94        65.02178
955.33        66.65685
955.72        67.01628
956.11        65.68316
956.50        63.23075
956.89        60.82302
957.28        59.95102
957.66        60.92122
958.05        63.24214
958.44        66.10386
958.83         67.8153
959.22        67.73949
959.61        66.42738
960.00        64.68223
960.39        63.53371
960.78        63.19806
961.16        63.36214
961.55        63.67097
961.94        63.55096
962.33        62.85922
962.72        61.97037
963.11        61.16926
963.49        60.76495
963.88        60.83075
964.27         61.2133
964.66        61.93181
965.04        63.07991
965.43        64.49402
965.82        66.12057
966.21        67.57138
966.60        68.15652
966.98        67.75892
967.37        66.67066
967.76        65.31973
968.15        64.28069
968.53        63.68871
968.92        63.32492
969.31        63.32299
969.69        63.91955
970.08        65.04881
970.47        66.79475
970.86        68.41378
971.24        68.61417
971.63        67.16451
972.02        64.50967
972.40        61.89857
972.79        61.28537
973.17         62.9934
973.56        66.30287
973.95        70.10757
974.33        72.30172
974.72        72.11114
975.11        70.22705
975.49        67.58144
975.88        65.92016
976.26        65.70657
976.65        66.36994
977.04        67.44936
977.42        68.12791
977.81         67.9697
978.19        67.41581
978.58        66.68656
978.96        65.95103
979.35        65.38227
979.74        64.89263
980.12        64.66557
980.51        65.01488
980.89        66.02107
981.28        67.43407
981.66        69.12152
982.05        70.57394
982.43        71.68361
982.82        72.47215
983.20        72.71439
983.59        71.99305
983.97        70.39182
984.35        68.12851
984.74        66.05019
985.12        65.30152
985.51         66.0031
985.89        67.92856
986.28        70.15558
986.66        71.46674
987.04        71.30441
987.43        70.06938
987.81        68.25486
988.20         67.0452
988.58        66.74178
988.96        67.07424
989.35        67.41246
989.73        66.99205
990.12        65.59536
990.50         63.6188
990.88        61.64217
991.27        60.55788
991.65        60.53615
992.03        61.32904
992.42        62.53101
992.80        63.82763
993.18        64.95843
993.56        66.02763
993.95        66.89259
994.33        67.43407
994.71        67.54458
995.10        67.29461
995.48        66.86873
995.86         66.6432
996.24        66.73591
996.63        66.98258
997.01        67.49967
997.39        68.25813
997.77        69.14851
998.15        70.16148
998.54        70.94525
998.92         70.9785
999.30        70.17525
999.68        68.68805
1000.06        67.02554
1000.45        66.13792
1000.83        66.39349
1001.21        67.52713
1001.59        69.16296
1001.97         70.6276
1002.35        71.64821
1002.73        72.41436
1003.12        72.84756
1003.50         72.7522
1003.88        72.22066
1004.26        71.30592
1004.64        70.40199
1005.02        70.22775
1005.40        70.90134
1005.78        72.12625
1006.16        73.54104
1006.54        74.64627
1006.92         75.3075
1007.30        75.69501
1007.69        75.66767
1008.07        75.09249
1008.45        73.95344
1008.83        72.29205
1009.21        70.62836
1009.59        69.83814
1009.97        70.11113
1010.35        71.20767
1010.73        72.59471
1011.11        73.33759
1011.49        73.15573
1011.86        72.39751
1012.24        71.12174
1012.62         69.6456
1013.00        68.08447
1013.38        66.26606
1013.76        64.45164
1014.14        63.28613
1014.52        62.99752
1014.90        63.53988
1015.28        64.35233
1015.66        64.40819
1016.04        63.52256
1016.41        62.12192
1016.79        60.75313
1017.17        60.49929
1017.55        61.57752
1017.93        63.29733
1018.31        65.42403
1018.69        68.16008
1019.06        71.84852
1019.44        76.85078
1019.82        83.00147
1020.20        87.56857
1020.58        88.05473
1020.95        84.78046
1021.33        79.92612
1021.71        75.54626
1022.09        71.68456
1022.46         67.5382
1022.84        63.02979
1023.22        58.41392
1023.60        55.01058
1023.97        53.49529
1024.35        53.77624
1024.73        55.54223
