SpectraSmart Spectrum 2.9.0.0
--------- Device Information -----------
Spectrum Name :  反射率_0
Saving Time :  2024/04/30 01:17:52
Spectro-Module Model Name : SE2030-DUVN
Spectro-Module Serial Number : OS361AC55029948
Wavelength Start : 200
Wavelength End : 1025
Wavelength Unit : Wavelength(nm)
Spectrum Unit : Reflectance(%)
-----------Spectrum Setting ------------
Integration Time : 20ms
Average : 10
Boxcar : 0
Background removal :  enabled
linearity correction :  enabled
SC :  disabled
Intensity correction :  disabled
DWT denoise :  enabled
savitzky-golay :  disabled
FFT :  disabled
Running average :  disabled
Kalman :  disabled
High pass :  disabled
---------------BEGIN--------------------
Wavelength(nm)             Reflectance(%)
200.29               0
200.75        43.65789
201.21        28.04105
201.67        7.320222
202.13       -11.48378
202.58        -24.6789
203.04       -32.82451
203.50       -34.56266
203.96        -27.9428
204.42       -13.38869
204.88        7.706795
205.34        30.13098
205.80        44.78335
206.26         49.8302
206.72        49.32153
207.18        45.17747
207.64         38.4012
208.10        29.44961
208.55        17.43258
209.01         6.01102
209.47        4.508975
209.93        13.67683
210.39        28.35379
210.85        40.76785
211.31        44.42264
211.77        38.85161
212.23        23.69022
212.69        1.273713
213.14       -10.90962
213.60       -2.841262
214.06        15.71392
214.52         32.4554
214.98        39.44552
215.44        37.95908
215.90        31.39013
216.36        23.07031
216.81        19.09557
217.27        22.74099
217.73          33.117
218.19        49.51066
218.65         63.8427
219.11        68.60403
219.57        66.02675
220.02        60.66716
220.48        56.34927
220.94        52.90641
221.40        48.70164
221.86         43.6298
222.32        39.92725
222.77        39.12126
223.23        40.81413
223.69         42.7265
224.15        43.34739
224.61        42.81648
225.06        41.42184
225.52        40.24259
225.98        41.08313
226.44        43.80587
226.90        46.98866
227.36        49.44595
227.81        50.53793
228.27        50.52781
228.73        49.69371
229.19        48.55809
229.65        48.14721
230.10        48.66846
230.56        49.71994
231.02        50.58776
231.48        50.68784
231.93        49.96362
232.39        48.65514
232.85        47.25652
233.31        46.75313
233.77         47.4109
234.22        49.09404
234.68        50.77301
235.14        50.63791
235.60        48.38068
236.05        44.70142
236.51        41.22809
236.97        39.98202
237.43        41.42347
237.88        45.49192
238.34         51.2532
238.80         55.5916
239.26        56.18631
239.71        53.70703
240.17        49.69337
240.63        46.50991
241.08        44.62608
241.54        43.11867
242.00        41.97967
242.46        41.77069
242.91        43.26716
243.37        46.88139
243.83        50.45959
244.28        51.45996
244.74        49.43081
245.20        44.04994
245.66        37.20036
246.11        34.12229
246.57        37.53316
247.03        46.53493
247.48        56.63905
247.94        57.39745
248.40        49.23947
248.85        38.94917
249.31        31.51545
249.77        28.70253
250.22         29.9434
250.68        34.81713
251.14         44.6363
251.59         55.5889
252.05         60.1996
252.51        59.89478
252.96        57.55558
253.42        55.25763
253.88         52.8593
254.33        49.51488
254.79        46.38914
255.25         45.5006
255.70        46.67176
256.16        48.83505
256.62         50.4896
257.07        50.57787
257.53        49.64978
257.99        48.10749
258.44        46.35376
258.90        45.58191
259.35        45.52542
259.81        45.89836
260.27        46.26358
260.72        46.32616
261.18        46.20254
261.63         45.8216
262.09        45.31039
262.55        44.55341
263.00        43.58524
263.46        42.64368
263.91        41.67526
264.37        40.84196
264.83        40.08551
265.28        39.31528
265.74        38.70956
266.19        38.33687
266.65        38.23489
267.11        38.31441
267.56        38.35308
268.02         38.0229
268.47        37.25853
268.93        36.17387
269.38        34.97168
269.84        34.12513
270.30        33.74097
270.75        33.67265
271.21        33.70906
271.66        33.51907
272.12        33.02441
272.57        32.32084
273.03        31.53158
273.48        30.76906
273.94        30.14233
274.39        29.56958
274.85        29.09188
275.31        28.70895
275.76        28.38057
276.22        28.12004
276.67        27.84907
277.13        27.52732
277.58        27.11103
278.04        26.66896
278.49        26.17012
278.95        25.65809
279.40        25.11275
279.86        24.58041
280.31        24.09522
280.77        23.81382
281.22        23.70681
281.68        23.75289
282.13        23.80929
282.59        23.71399
283.04        23.42281
283.50        22.97932
283.95        22.48748
284.41        22.11669
284.86        21.89612
285.32        21.80804
285.77        21.70804
286.22        21.44936
286.68        21.02702
287.13        20.47019
287.59        19.95835
288.04        19.71144
288.50        19.77164
288.95        20.02416
289.41        20.28633
289.86         20.2614
290.32         19.9142
290.77        19.34169
291.22        18.71041
291.68        18.28398
292.13        18.12874
292.59        18.17616
293.04        18.35905
293.50        18.59459
293.95         18.8461
294.40        19.15094
294.86        19.46894
295.31        19.74935
295.77        19.98328
296.22        20.16876
296.68        20.37454
297.13        20.69533
297.58        21.15277
298.04         21.6831
298.49        22.22119
298.95         22.6529
299.40        22.94739
299.85        23.14162
300.31        23.26241
300.76        23.30655
301.21        23.31583
301.67        23.29525
302.12        23.27186
302.58        23.42139
303.03        23.75585
303.48        24.07975
303.94         24.2798
304.39        24.98197
304.84        24.82849
305.30        24.91688
305.75        24.91041
306.20        24.96472
306.66        25.10213
307.11        25.28599
307.57        25.45984
308.02        25.48096
308.47        25.34115
308.93        25.09293
309.38        24.82519
309.83        24.71624
310.29        24.79577
310.74        25.00323
311.19        25.20958
311.65        25.21065
312.10        24.96723
312.55        24.55062
313.00        24.09642
313.46        23.81498
313.91        23.74374
314.36        23.81268
314.82        23.91591
315.27         23.9021
315.72        23.71783
316.18        23.42945
316.63        23.07442
317.08        22.71957
317.53        22.40327
317.99         22.1135
318.44        21.87336
318.89        21.72491
319.35        21.66865
319.80        21.69094
320.25        21.75989
320.70        21.81878
321.16        21.83433
321.61        21.82261
322.06        21.76177
322.51        21.63214
322.97        21.43808
323.42        21.19121
323.87        20.93226
324.32        20.73132
324.78          20.599
325.23        20.52943
325.68        20.48672
326.13        20.40828
326.59         20.2716
327.04        20.10523
327.49         19.9242
327.94        19.76171
328.39        19.62508
328.85        19.49176
329.30        19.36813
329.75        19.23942
330.20        19.10757
330.66        18.98666
331.11        18.87524
331.56        18.75108
332.01        18.61082
332.46        18.44685
332.92        18.30011
333.37        18.26066
333.82        18.33639
334.27        18.50509
334.72        18.65807
335.17        18.61453
335.63        18.33853
336.08        17.88933
336.53        17.40396
336.98        17.12743
337.43        17.12642
337.88         17.3242
338.34        17.60032
338.79        17.78043
339.24        17.80257
339.69        17.73185
340.14        17.60253
340.59        17.47298
341.05        17.37311
341.50        17.26654
341.95        17.19167
342.40        17.22119
342.85        17.35401
343.30        17.57104
343.75        17.76446
344.20        17.75719
344.66        17.52719
345.11         17.1249
345.56        16.68118
346.01        16.40527
346.46        16.35652
346.91        16.47512
347.36         16.6693
347.81        16.80063
348.26        16.82637
348.72        16.78018
349.17        16.70737
349.62        16.68646
350.07        16.73244
350.52        16.81071
350.97        16.85851
351.42        16.78577
351.87        16.58768
352.32        16.31499
352.77        16.04759
353.22        15.90887
353.67         15.9318
354.13        16.06981
354.58        16.28324
355.03         16.5082
355.48        16.70514
355.93        16.88241
356.38          16.998
356.83        16.99175
357.28        16.86353
357.73         16.6322
358.18        16.36839
358.63        16.18931
359.08        16.12294
359.53        16.13801
359.98        16.18617
360.43        16.18366
360.88        16.10778
361.33        15.99178
361.78        15.85499
362.23         15.7248
362.68        15.61703
363.13        15.52236
363.58        15.45297
364.03        15.43247
364.48        15.45592
364.93        15.50562
365.38        15.55764
365.83        15.57274
366.28        15.53628
366.73        15.46121
367.18        15.33496
367.63        15.14032
368.08         14.8868
368.53        14.58585
368.98        14.30004
369.43        14.12814
369.88        14.09389
370.33        14.17752
370.78        14.30812
371.23         14.3636
371.68        14.30974
372.13         14.1735
372.58        14.02108
373.03         13.9636
373.48         14.0222
373.93        14.15351
374.38        14.28151
374.83         14.2856
375.28        14.14167
375.72        13.89651
376.17        13.63315
376.62        13.43896
377.07        13.33728
377.52        13.29433
377.97        13.29466
378.42        13.31313
378.87        13.33481
379.32        13.37231
379.77        13.39808
380.22        13.36885
380.67        13.27957
381.11        13.13389
381.56        12.98639
382.01        12.92696
382.46        12.97562
382.91        13.11051
383.36        13.25592
383.81        13.29607
384.26         13.2085
384.71        13.02261
385.15         12.8213
385.60        12.75869
386.05        12.84906
386.50        13.04039
386.95        13.22195
387.40        13.22249
387.85        13.01955
388.29        12.68081
388.74        12.33782
389.19        12.12105
389.64        12.06059
390.09        12.10671
390.54        12.21765
390.98        12.32312
391.43        12.39315
391.88        12.44387
392.33        12.46549
392.78        12.45585
393.23        12.41963
393.67        12.32493
394.12        12.20169
394.57        12.17542
395.02        12.07599
395.47        12.03968
395.91        12.00651
396.36         11.9534
396.81        11.88343
397.26        11.80868
397.71        11.74204
398.15        11.69502
398.60        11.68493
399.05        11.67532
399.50        11.65779
399.95        11.67233
400.39        11.65443
400.84        11.60486
401.29        11.51124
401.74        11.42519
402.18        11.35799
402.63        11.27827
403.08        11.21271
403.53        11.20859
403.97        11.26766
404.42         11.3738
404.87        11.47846
405.32        11.50244
405.76        11.42423
406.21        11.27114
406.66        11.09514
407.11        10.98074
407.55        10.95327
408.00        10.99006
408.45        11.04126
408.90        11.01689
409.34        10.89499
409.79        10.70669
410.24        10.52911
410.68        10.47471
411.13        10.56493
411.58        10.76488
412.03        10.97946
412.47        11.04849
412.92        10.92574
413.37         10.6738
413.81         10.3982
414.26         10.2748
414.71         10.3284
415.15        10.50764
415.60        10.72138
416.05        10.83305
416.49        10.80009
416.94        10.67087
417.39        10.49734
417.83        10.35887
418.28        10.28681
418.73        10.24804
419.17        10.23436
419.62        10.23499
420.07        10.24102
420.51        10.26201
420.96        10.27786
421.41        10.24778
421.85        10.16669
422.30        10.05787
422.74        9.951709
423.19        9.913079
423.64        9.946862
424.08        10.03709
424.53        10.14268
424.98        10.21333
425.42        10.22853
425.87        10.19125
426.31        10.11156
426.76         10.0239
427.21        9.907545
427.65         9.78261
428.10        9.653493
428.54         9.51141
428.99        9.376009
429.44        9.313005
429.88        9.316216
430.33        9.257613
430.77        9.192516
431.22         9.40441
431.66         9.82093
432.11        9.999071
432.56        9.862955
433.00        9.653303
433.45        9.429998
433.89        9.106527
434.34        8.839599
434.78        8.936051
435.23        9.286264
435.67        9.422754
436.12        9.298708
436.57        9.159874
437.01        9.070997
437.46        9.044294
437.90        9.098681
438.35        9.213935
438.79        9.337245
439.24        9.370979
439.68        9.310475
440.13        9.227685
440.57        9.132942
441.02        9.050074
441.46         8.99633
441.91        8.900764
442.35        8.800983
442.80        8.941226
443.24        9.235037
443.69        9.239163
444.13        8.976948
444.58        8.868694
445.02         8.91584
445.47        8.892263
445.91        8.798815
446.36        8.755934
446.80        8.765859
447.24        8.799619
447.69        8.847629
448.13        8.896637
448.58        8.939507
449.02        8.981586
449.47         9.01935
449.91        9.042143
450.36        9.049184
450.80        9.040279
451.25        9.024199
451.69        9.017626
452.13        9.021572
452.58        9.037916
453.02        9.050706
453.47        9.034805
453.91        8.985083
454.36        8.939182
454.80        8.873415
455.24        8.851341
455.69        8.867978
456.13        8.907452
456.58        8.960719
457.02        9.004798
457.46        9.033618
457.91        9.052105
458.35        9.052535
458.79        9.024273
459.24        8.978021
459.68          8.9231
460.13        8.882952
460.57        8.850302
461.01        8.900902
461.46        8.934511
461.90        8.975703
462.34        9.109254
462.79        9.286006
463.23        9.312553
463.68        9.200613
464.12        9.145221
464.56        9.157051
465.01        9.139481
465.45        9.091505
465.89        9.053268
466.34        9.042796
466.78        9.093814
467.22        9.202756
467.67        9.212939
468.11        9.119533
468.55        8.981232
468.99        8.852266
469.44        8.792027
469.88        8.816169
470.32        8.911423
470.77        9.028503
471.21        9.099906
471.65        9.101074
472.10        9.058692
472.54        9.006033
472.98        9.008479
473.42        9.077427
473.87        9.184042
474.31        9.292746
474.75        9.349327
475.20        9.345414
475.64        9.301631
476.08        9.239416
476.52         9.18851
476.97        9.161252
477.41        9.144503
477.85        9.152273
478.29        9.205329
478.74        9.303597
479.18        9.436038
479.62        9.559258
480.06        9.629491
480.50        9.641328
480.95        9.520767
481.39        9.461784
481.83        9.454404
482.27        9.565729
482.72         9.68645
483.16        9.895145
483.60        9.995594
484.04        9.997362
484.48        9.941846
484.93        9.898698
485.37        9.936362
485.81         9.97433
486.25        10.31566
486.69        9.694604
487.14        9.951065
487.58        10.67257
488.02        10.57835
488.46        10.64538
488.90        10.80819
489.34         10.4549
489.79        10.47789
490.23        10.56876
490.67        10.74982
491.11        10.92195
491.55        10.87442
491.99        10.68259
492.43        10.69215
492.88        10.92307
493.32        11.15204
493.76        11.32456
494.20        11.47827
494.64        11.60013
495.08        11.67336
495.52        11.70919
495.96        11.76076
496.41        11.84417
496.85        11.87842
497.29        11.87606
497.73        12.07077
498.17        12.26901
498.61        12.28733
499.05        12.12428
499.49        12.09437
499.93        12.22771
500.37        12.40232
500.82        12.56631
501.26          12.668
501.70        12.69041
502.14        12.66806
502.58        12.65083
503.02        12.70225
503.46        12.83772
503.90        13.03763
504.34        13.25003
504.78        13.38688
505.22        13.42432
505.66         13.3876
506.10        13.31682
506.54        13.29164
506.98        13.33604
507.42        13.40041
507.86        13.45132
508.30        13.58807
508.74        13.55161
509.18        13.55804
509.62         13.5567
510.06        13.58833
510.50        13.65915
510.94        13.75838
511.38        13.86441
511.82        13.93558
512.26        13.96148
512.70        13.95476
513.14        13.93721
513.58        13.94295
514.02        13.98068
514.46        14.03872
514.90        14.10185
515.34        14.14535
515.78        14.16193
516.22        14.16111
516.66        14.15071
517.10        14.14242
517.54        14.13935
517.98         14.1342
518.42        14.12777
518.86        14.12213
519.30         14.1167
519.74        14.11454
520.18         14.1044
520.62        14.06691
521.06         14.0021
521.50        13.91777
521.93        13.84091
522.37        13.81167
522.81        13.83971
523.25        13.91034
523.69        13.99386
524.13        14.04486
524.57        14.05005
525.01        14.01939
525.45        13.96983
525.89        13.93107
526.32         13.9096
526.76        13.89822
527.20        13.88207
527.64        13.84028
528.08        13.77055
528.52        13.68491
528.96        13.59949
529.40         13.5376
529.83        13.50541
530.27        13.49675
530.71        13.50139
531.15        13.50544
531.59        13.50164
532.03        13.49095
532.46        13.47244
532.90        13.44848
533.34        13.42035
533.78        13.39113
534.22        13.35708
534.66        13.31288
535.09        13.25904
535.53        13.20188
535.97        13.15929
536.41        13.16368
536.85        13.21711
537.28        13.30702
537.72        13.39775
538.16        13.43631
538.60        13.41209
539.04        13.34669
539.47        13.26518
539.91        13.22088
540.35        13.22525
540.79        13.26825
541.22        13.34376
541.66        13.44394
542.10        13.55959
542.54        13.69187
542.97        13.83311
543.41        13.96959
543.85        14.09678
544.29        14.21634
544.72        14.31867
545.16        14.40428
545.60        14.47297
546.04        14.51977
546.47        14.56501
546.91        14.66327
547.35         14.8104
547.79        14.95037
548.22        15.05989
548.66        15.18181
549.10        15.31719
549.53        15.39116
549.97        15.39935
550.41        15.65087
550.84        15.68136
551.28        15.83354
551.72         15.9495
552.15        16.14267
552.59        16.20575
553.03        16.30825
553.46        16.39735
553.90        16.47985
554.34        16.55555
554.77        16.63918
555.21        16.73196
555.65        16.78937
556.08        16.82471
556.52        16.91954
556.96        17.05754
557.39        17.17273
557.83        17.25402
558.27        17.29495
558.70        17.31831
559.14        17.38235
559.57        17.47755
560.01        17.57222
560.45        17.64403
560.88        17.60897
561.32        17.57795
561.75        17.56781
562.19        17.61311
562.63        17.64201
563.06        17.65526
563.50        17.70544
563.93        17.78683
564.37        17.88204
564.80         17.9813
565.24        18.09021
565.68        18.19753
566.11        18.29824
566.55        18.39037
566.98        18.44835
567.42        18.50207
567.85        18.56473
568.29         18.6441
568.72        18.78436
569.16         19.0064
569.60        18.95782
570.03         19.2271
570.47        19.35344
570.90        19.47523
571.34        19.61845
571.77        19.71662
572.21        19.76336
572.64        19.75519
573.08        19.90601
573.51        20.23486
573.95         20.1307
574.38        20.46931
574.82        20.37495
575.25        20.15261
575.69        20.27954
576.12        20.17829
576.56        20.67054
576.99        20.69329
577.42        20.60561
577.86        20.67719
578.29        20.54885
578.73         20.4641
579.16        20.35675
579.60         20.4547
580.03        20.34102
580.47         20.4299
580.90         20.2733
581.33        19.93134
581.77          20.433
582.20        20.01027
582.64        19.96457
583.07        19.85094
583.51        19.78644
583.94        19.83717
584.37        19.74589
584.81        19.55234
585.24        19.52213
585.68        19.54274
586.11        19.44447
586.54        19.12908
586.98        19.16768
587.41        19.48848
587.85        19.20714
588.28         18.9741
588.71        19.24877
589.15        19.02581
589.58        18.97638
590.01        19.04403
590.45        18.98164
590.88        18.92165
591.31        18.93995
591.75        19.01914
592.18        19.15598
592.61         19.3092
593.05         19.0332
593.48        19.04373
593.91        19.01619
594.35        19.10214
594.78        19.25323
595.21         19.4362
595.65        19.45004
596.08        19.31979
596.51        19.64792
596.94        19.81619
597.38         20.0608
597.81        20.17484
598.24         20.2488
598.68        20.51959
599.11        20.63623
599.54        20.98876
599.97        21.16893
600.41        21.28923
600.84        21.57026
601.27        21.76746
601.70        22.05535
602.14         22.3389
602.57        22.58382
603.00        22.79071
603.43        23.10015
603.87        23.44766
604.30        23.82213
604.73        24.14891
605.16        24.50403
605.60        24.85828
606.03        25.23616
606.46        25.58615
606.89        25.93421
607.32        26.30018
607.76        26.64919
608.19        26.97551
608.62        27.31484
609.05        27.69212
609.48        28.03717
609.92        28.30567
610.35        28.73419
610.78        28.95524
611.21        29.00917
611.64        29.46668
612.07        29.71062
612.50        29.92957
612.94          30.278
613.37        30.81488
613.80        30.88831
614.23        31.50573
614.66        31.75887
615.09        31.94629
615.52        32.07247
615.96        32.19555
616.39        32.35638
616.82        32.53316
617.25         32.9534
617.68        32.99367
618.11        33.33313
618.54        33.73365
618.97        33.96891
619.40        34.06658
619.84        34.21941
620.27        34.45636
620.70        34.73949
621.13         35.0581
621.56        34.95362
621.99        35.24681
622.42        35.13352
622.85        35.64313
623.28        35.44724
623.71        35.96373
624.14         35.3571
624.57        35.83351
625.00        35.60767
625.43        35.75603
625.86        35.58603
626.29        35.64991
626.72        35.57998
627.15        35.47618
627.58        35.36191
628.01        35.23301
628.44        35.05876
628.87        34.85077
629.30         34.6912
629.73        34.57151
630.16        34.39032
630.59        34.13501
631.02        33.93659
631.45        33.63991
631.88        33.34385
632.31        33.00298
632.74        32.62827
633.17        32.22686
633.60         31.8154
634.03        31.40293
634.46        30.98666
634.89        30.57136
635.32        30.16587
635.75         29.7721
636.18        29.38699
636.61        29.01187
637.04        28.65127
637.47        28.30953
637.89        27.96706
638.32        27.60211
638.75        27.26371
639.18        26.96638
639.61        26.44178
640.04        26.19233
640.47        25.86555
640.90        25.61071
641.33        25.41261
641.76          25.255
642.18        25.10168
642.61        24.93211
643.04         24.7654
643.47        24.62996
643.90        24.53909
644.33        24.53225
644.76        24.60059
645.18        24.70347
645.61        24.69103
646.04        24.52952
646.47        24.52242
646.90        24.66261
647.33         24.7715
647.75        24.84754
648.18        25.02186
648.61        25.27083
649.04        25.49764
649.47        25.69815
649.89        25.89735
650.32        26.12296
650.75        26.45954
651.18        26.88971
651.61        27.31944
652.03        27.71338
652.46        28.08744
652.89        28.43354
653.32        28.73525
653.74        28.98271
654.17         29.4724
654.60        29.14882
655.03         30.2049
655.46        29.96465
655.88        31.11901
656.31        32.62934
656.74        32.67222
657.16        32.18608
657.59        31.74608
658.02        32.34673
658.45        33.18781
658.87        33.90339
659.30        33.88491
659.73        34.54155
660.15        34.67884
660.58        34.97682
661.01        35.32135
661.44        35.75798
661.86        35.86987
662.29        35.75214
662.72        36.03333
663.14        36.66775
663.57        36.92116
664.00        36.83367
664.42        36.99809
664.85         37.4526
665.27        37.89043
665.70        38.25718
666.13        38.55917
666.55        38.88195
666.98        39.13343
667.41        39.35575
667.83         39.5596
668.26        39.74682
668.69        39.91451
669.11        40.08204
669.54         40.2764
669.96        40.50142
670.39        40.78323
670.82        41.06942
671.24        41.20982
671.67        41.21714
672.09        41.26623
672.52        41.41563
672.94        41.66423
673.37        41.70407
673.80        42.33046
674.22        42.55357
674.65        42.94872
675.07        43.23732
675.50        43.46115
675.92        43.63786
676.35        43.79242
676.77        43.95012
677.20        44.08405
677.62        44.21066
678.05        44.35927
678.47        44.53053
678.90        44.72436
679.32        44.91082
679.75        45.04638
680.17        45.12001
680.60        45.15485
681.02        45.17873
681.45        45.24057
681.87        45.35754
682.30        45.50048
682.72        45.67356
683.15        45.85432
683.57         46.0474
684.00        46.26205
684.42        46.46425
684.85        46.62344
685.27        46.73577
685.70        46.72854
686.12        46.68839
686.54        46.98161
686.97        47.52463
687.39        47.85337
687.82        47.89359
688.24        47.97592
688.66        48.09576
689.09         48.0172
689.51        47.82269
689.94        47.80691
690.36        47.98754
690.78        48.20626
691.21        48.42314
691.63        48.65498
692.06        48.87518
692.48        49.06194
692.90        49.21624
693.33        49.35447
693.75        49.48432
694.17        49.59386
694.60        49.69451
695.02        49.80923
695.44        49.93828
695.87         50.1153
696.29        50.33085
696.71        50.43975
697.14        50.47969
697.56        50.69162
697.98        51.04081
698.41        51.22243
698.83        51.25773
699.25        51.45738
699.68        51.78654
700.10        52.00172
700.52        52.07461
700.94        52.13918
701.37        52.21402
701.79        52.29375
702.21        52.38437
702.64        52.49965
703.06        52.64129
703.48         52.8187
703.90        53.03503
704.33        53.29721
704.75        53.56878
705.17        53.84315
705.59        54.08814
706.01        54.30481
706.44        54.49875
706.86         54.6574
707.28        54.77511
707.70        54.92352
708.12        55.11995
708.55        55.11318
708.97        55.26005
709.39        55.47132
709.81        55.81189
710.23        56.08028
710.66        56.24715
711.08        56.42107
711.50        56.60225
711.92        56.78766
712.34        56.98333
712.76        57.18507
713.19         57.3625
713.61        57.50203
714.03        57.58353
714.45        57.62432
714.87        57.65337
715.29        57.71346
715.71        57.81715
716.13        57.95274
716.56        58.09701
716.98        58.27541
717.40        58.45631
717.82        58.64753
718.24        58.82141
718.66         58.9303
719.08        58.97446
719.50        58.95324
719.92        58.89859
720.34        58.91944
720.76        59.04581
721.19         59.0221
721.61        59.24314
722.03        59.33028
722.45        59.39292
722.87        59.43758
723.29        59.48289
723.71        59.54921
724.13        59.63445
724.55        59.72966
724.97        59.83071
725.39        59.90658
725.81        59.95251
726.23        60.05972
726.65        60.20621
727.07        60.18499
727.49        60.07293
727.91        60.25449
728.33        60.70229
728.75        61.00729
729.17        61.13074
729.59        61.31878
730.01        61.51148
730.43        61.49931
730.85        61.28572
731.27        60.94591
731.69        60.64353
732.10        60.63615
732.52        60.97144
732.94         61.5684
733.36        62.26324
733.78        62.75739
734.20        62.94861
734.62         62.9156
735.04        62.77115
735.46        62.71214
735.88        62.78612
736.30        62.90706
736.72        63.05084
737.13         63.2038
737.55        63.21742
737.97        63.36032
738.39        62.87066
738.81        62.70458
739.23        62.72818
739.65        63.12766
740.06         63.7028
740.48        63.97566
740.90        63.88393
741.32        63.67741
741.74        63.47826
742.16        63.38352
742.57         63.4546
742.99        63.64752
743.41        63.89894
743.83         64.0909
744.25        64.19574
744.67        64.25848
745.08         64.3158
745.50         64.4088
745.92        64.55074
746.34        64.69699
746.75        64.85529
747.17        65.01465
747.59        65.16393
748.01        65.42163
748.42        65.70139
748.84        65.59268
749.26        65.21963
749.68        65.14478
750.09        65.36814
750.51         65.5817
750.93        65.68364
751.35        65.60038
751.76        65.38288
752.18        65.29705
752.60        65.36615
753.01        65.40099
753.43        65.39371
753.85        65.46887
754.27        65.63974
754.68        65.89112
755.10         66.1534
755.52        66.32539
755.93        66.35911
756.35        66.24036
756.77        66.11343
757.18          66.173
757.60        66.45572
758.02        67.10782
758.43        67.72933
758.85        67.64805
759.26        66.15527
759.68         65.7033
760.10        66.24289
760.51        66.74705
760.93        67.05151
761.34         67.0728
761.76        66.84351
762.18        66.90609
762.59        67.21811
763.01        66.93261
763.42        66.20409
763.84        65.96333
764.26        66.30212
764.67        66.62052
765.09         66.8352
765.50        67.48713
765.92        67.77247
766.33        68.01411
766.75        67.91496
767.16        67.92285
767.58        67.97681
768.00        67.67296
768.41        67.18774
768.83        67.56987
769.24        68.51682
769.66        68.45777
770.07        67.52493
770.49        67.13159
770.90        67.40765
771.32        67.81126
771.73        68.19611
772.15        68.35223
772.56        68.23742
772.97        68.21999
773.39        67.94564
773.80        68.08815
774.22        68.47236
774.63        68.90617
775.05        69.21972
775.46        69.40411
775.88        69.39088
776.29        69.17702
776.70        68.84433
777.12        68.60555
777.53        68.51257
777.95        68.46936
778.36         68.5127
778.77         68.6358
779.19        68.82481
779.60        69.29807
780.02        69.82874
780.43        69.80203
780.84        69.36851
781.26        69.11926
781.67        69.23666
782.09        70.07525
782.50        71.23637
782.91        71.15382
783.33        69.96799
783.74        69.46307
784.15        69.74139
784.57        69.73708
784.98        69.45285
785.39        69.33943
785.81        69.53196
786.22        69.84975
786.63        70.26331
787.04        70.55336
787.46        70.72644
787.87        71.03131
788.28        71.46687
788.70         71.7274
789.11        71.77334
789.52        71.99114
789.93         72.2673
790.35        71.84373
790.76         70.9686
791.17        70.85458
791.58        71.46449
792.00        71.71507
792.41        71.54504
792.82        71.56036
793.23        71.74729
793.65        71.76751
794.06        71.74229
794.47        71.93321
794.88        72.17105
795.29        72.85831
795.71        72.23125
796.12        72.07534
796.53         71.9933
796.94        71.83973
797.35        71.75824
797.76        72.33507
798.18        73.32965
798.59        73.79446
799.00        73.59509
799.41        73.19032
799.82        72.76944
800.23        72.48518
800.64        72.43378
801.06        72.53812
801.47        72.76759
801.88        72.99377
802.29        73.15706
802.70        73.27792
803.11        73.34731
803.52        73.34673
803.93         73.2956
804.34        73.20762
804.75        73.07674
805.17         72.9925
805.58        73.02312
805.99        72.86228
806.40        72.64383
806.81        73.24046
807.22        74.35278
807.63        74.40228
808.04        73.50141
808.45        73.23973
808.86        73.73141
809.27        74.05687
809.68        74.08215
810.09        74.05147
810.50        73.94661
810.91        73.70352
811.32        73.46504
811.73        73.45706
812.14        73.72208
812.55        74.21409
812.96        74.75476
813.37        75.00039
813.78        74.86286
814.19        74.46563
814.60        73.99881
815.01         73.7317
815.42        73.73174
815.83         73.9147
816.24         74.2039
816.65        74.44765
817.05        74.57315
817.46        74.59177
817.87        74.54314
818.28        74.42365
818.69        74.25344
819.10        74.03704
819.51        73.82245
819.92        73.71103
820.33        73.73548
820.74           73.86
821.14        74.07452
821.55        74.36734
821.96        74.70452
822.37        75.08721
822.78        75.40461
823.19        75.46236
823.60        75.21688
824.00          74.723
824.41         74.1458
824.82        73.77878
825.23        73.69816
825.64        73.85076
826.04        74.12355
826.45        74.22404
826.86        74.10489
827.27        73.85267
827.68        73.61169
828.08         73.6303
828.49        73.91541
828.90        74.40942
829.31         74.9864
829.72        75.43534
830.12        75.71306
830.53        75.80146
830.94        75.80912
831.35        75.87733
831.75        76.06306
832.16        76.23317
832.57        76.35891
832.97        76.35033
833.38        76.18626
833.79        75.99032
834.20        75.75352
834.60        75.35954
835.01        74.85235
835.42        74.50057
835.82        74.06795
836.23         74.2625
836.64        75.00957
837.04        76.24083
837.45        77.48566
837.86        78.11292
838.26        77.94086
838.67        77.14947
839.08        76.10316
839.48         75.3595
839.89        75.12748
840.29        75.24605
840.70         75.5587
841.11        75.82616
841.51        75.98804
841.92         76.0979
842.33        76.23226
842.73        76.48122
843.14        76.80273
843.54        77.16357
843.95        77.47671
844.35        77.69261
844.76         77.7612
845.17        77.68168
845.57        77.50959
845.98        77.29925
846.38        77.10061
846.79        76.92125
847.19        76.69267
847.60        76.24604
848.00         75.6102
848.41         74.8717
848.81         74.2935
849.22        74.25526
849.62        74.84864
850.03         75.9054
850.43        77.16746
850.84         77.9555
851.24        78.11404
851.65        77.70515
852.05         77.0175
852.46         76.4968
852.86         76.2785
853.27        76.30347
853.67          76.333
854.07        76.24138
854.48        75.94007
854.88        75.51192
855.29        75.03654
855.69        74.88507
856.10        75.05571
856.50        75.55161
856.90        76.03497
857.31         76.0459
857.71        75.55261
858.12        74.65576
858.52        73.75603
858.92        73.46837
859.33        73.92711
859.73        74.98409
860.13        76.23597
860.54        77.03237
860.94        77.21623
861.34        76.86382
861.75         76.1897
862.15        75.64266
862.55        75.34339
862.96         75.2103
863.36        75.01234
863.76        74.41155
864.17        73.41212
864.57        72.21113
864.97        71.17046
865.38        70.76568
865.78        71.12339
866.18        72.06699
866.58        73.33411
866.99        74.35291
867.39        74.91218
867.79        75.10924
868.19        74.98015
868.60        74.60045
869.00        74.05907
869.40        73.32117
869.80        72.67722
870.21        72.63194
870.61        73.31662
871.01        74.55192
871.41        75.87669
871.81        76.53662
872.22        76.33871
872.62        75.49519
873.02        74.37245
873.42        73.59975
873.82        73.39581
874.22        73.61703
874.63        74.02381
875.03        74.24815
875.43        74.19302
875.83        73.96072
876.23        73.81857
876.63        74.18609
877.03        75.10828
877.44        76.36969
877.84        77.55501
878.24        77.90578
878.64        77.29478
879.04        76.03278
879.44         74.6176
879.84        73.77337
880.24        73.66663
880.64        74.04774
881.04        74.72583
881.44        75.37281
881.84        75.84802
882.24        76.28796
882.65        76.52278
883.05        76.40398
883.45        75.88982
883.85         75.0393
884.25         74.2445
884.65        74.12354
885.05        74.76405
885.45        75.95458
885.85        77.28702
886.25         78.0426
886.65        77.98449
887.05        77.33613
887.45        76.28466
887.85        75.17924
888.25        74.23685
888.65        73.41366
889.04        72.80814
889.44        72.62375
889.84        72.81539
890.24        73.38261
890.64         74.1638
891.04        74.76964
891.44        75.03814
891.84        75.03806
892.24        74.93313
892.64        74.99255
893.04        75.27477
893.44        75.68378
893.83        76.14915
894.23         76.4698
894.63        76.60941
895.03         76.6336
895.43        76.58601
895.83        76.52515
896.23        76.47264
896.63        76.39351
897.02        76.28949
897.42        76.22852
897.82        76.19933
898.22        76.22593
898.62         76.2317
899.01        76.09081
899.41        75.77827
899.81        75.33978
900.21        74.94673
900.61          74.863
901.00        75.12821
901.40        75.66398
901.80        76.21605
902.20        76.37378
902.59          76.036
902.99        75.31244
903.39        74.49778
903.79        74.03017
904.18        74.01139
904.58        74.36366
904.98        74.78793
905.38        74.82688
905.77        74.37273
906.17        73.56371
906.57        72.78521
906.96        72.67442
907.36        73.31776
907.76        74.54357
908.15        75.82896
908.55        76.16665
908.95        75.41203
909.34        73.90038
909.74        72.36803
910.14        71.81281
910.53        72.49945
910.93        74.03918
911.33         76.0125
911.72        77.76421
912.12        78.94125
912.52        79.73251
912.91        80.16869
913.31        80.28497
913.70        80.14506
914.10        79.67162
914.49        78.95999
914.89        78.17887
915.29        77.42729
915.68         76.7518
916.08        76.24107
916.47        75.85703
916.87        75.64435
917.26        75.56903
917.66        75.67251
918.05          76.037
918.45        76.58584
918.84        77.32139
919.24        77.94351
919.64        78.11546
920.03         77.7686
920.42        76.97755
920.82        76.08934
921.21         75.5396
921.61        75.45478
922.00        75.74451
922.40        76.17441
922.79        76.42707
923.19        76.36909
923.58          76.123
923.98         75.8512
924.37        75.81066
924.77        76.04502
925.16        76.45956
925.55        76.87085
925.95        76.99678
926.34        76.79559
926.74        76.35856
927.13        75.86559
927.52        75.56153
927.92        75.53354
928.31        75.69505
928.70        75.96726
929.10        76.20893
929.49        76.36452
929.89        76.43386
930.28        76.46585
930.67         76.4531
931.07        76.40746
931.46        76.35952
931.85        76.26146
932.24        76.05827
932.64        75.77385
933.03        75.43959
933.42         75.2325
933.82        75.42848
934.21        76.07547
934.60        77.00591
934.99         77.9638
935.39        78.50468
935.78        78.55359
936.17        78.22433
936.56        77.51245
936.96        76.49547
937.35        75.33392
937.74        74.08472
938.13         73.1301
938.53        72.94001
938.92        73.51691
939.31        74.78757
939.70        76.31201
940.09        77.20004
940.49        77.14137
940.88        76.37119
941.27        75.35126
941.66        74.80668
942.05        74.92176
942.44         75.5296
942.84        76.25665
943.23        76.52186
943.62        76.11747
944.01        75.25699
944.40        74.45855
944.79        74.46401
945.18        75.39626
945.57        77.01624
945.97        78.64295
946.36        79.35632
946.75        78.78151
947.14        77.23142
947.53         75.4177
947.92        74.40673
948.31        74.47994
948.70        75.38813
949.09        76.55261
949.48        76.93382
949.87        76.24725
950.26        74.83919
950.65        73.42514
951.04        72.98248
951.43        73.69658
951.82        75.29754
952.21         77.0553
952.60        77.65313
952.99        76.74141
953.38        74.76779
953.77        72.70827
954.16        71.85032
954.55        72.45134
954.94        74.25691
955.33        76.43987
955.72        77.22366
956.11        76.03537
956.50        73.50357
956.89        70.94683
957.28        70.07652
957.66        71.24967
958.05        73.91657
958.44        77.06963
958.83        78.65628
959.22        77.99602
959.61        75.82829
960.00        73.31683
960.39        71.93655
960.78        71.97056
961.16         72.9965
961.55        74.38346
961.94        74.99111
962.33        74.42451
962.72        73.20556
963.11         71.8491
963.49        70.99992
963.88        70.82185
964.27        71.04623
964.66        71.60413
965.04        72.45533
965.43        73.40324
965.82        74.50526
966.21        75.46803
966.60        75.74625
966.98        75.26374
967.37        74.22954
967.76        73.04802
968.15        72.27853
968.53        72.02267
968.92        72.07229
969.31        72.39021
969.69        72.90113
970.08        73.45912
970.47        74.24214
970.86        74.84585
971.24        74.58521
971.63         73.3784
972.02        71.46847
972.40        69.76382
972.79        69.74532
973.17        71.60845
973.56        74.76991
973.95        78.22361
974.33        80.04477
974.72        79.54798
975.11         77.3811
975.49        74.49307
975.88        72.65718
976.26        72.35829
976.65        73.05437
977.04        74.31155
977.42        75.31721
977.81        75.59844
978.19        75.55214
978.58        75.33205
978.96        75.03635
979.35        74.80111
979.74        74.54137
980.12        74.41801
980.51        74.70565
980.89        75.50817
981.28        76.59439
981.66        77.93381
982.05        79.16289
982.43        80.23198
982.82        81.12183
983.20         81.5716
983.59        81.04835
983.97        79.58958
984.35        77.44299
984.74        75.42568
985.12        74.62188
985.51        75.17183
985.89        76.86465
986.28        78.88489
986.66        80.21234
987.04        80.32291
987.43        79.53734
987.81        78.24149
988.20        77.39399
988.58        77.21406
988.96        77.47504
989.35        77.54536
989.73        76.67999
990.12        74.71509
990.50        72.08585
990.88        69.50939
991.27        68.10211
991.65        68.08678
992.03        69.14775
992.42        70.78122
992.80        72.51038
993.18        74.00208
993.56        75.37937
993.95        76.42484
994.33        76.92679
994.71        76.75838
995.10        76.03798
995.48        75.07281
995.86        74.41949
996.24        74.25713
996.63        74.40061
997.01        74.97705
997.39        75.93121
997.77        77.11949
998.15        78.51335
998.54        79.70871
998.92        80.12325
999.30         79.6293
999.68        78.34245
1000.06        76.72472
1000.45        75.65955
1000.83        75.54203
1001.21        76.18247
1001.59        77.22668
1001.97        78.03319
1002.35        78.37547
1002.73        78.42204
1003.12        78.34361
1003.50        78.31223
1003.88         78.4305
1004.26        78.64794
1004.64        78.81462
1005.02        78.71925
1005.40        78.36399
1005.78        77.84917
1006.16         77.5097
1006.54        77.81699
1006.92        78.83722
1007.30        80.45733
1007.69        82.21759
1008.07        83.25363
1008.45        83.12502
1008.83        82.05915
1009.21        80.50292
1009.59        79.28396
1009.97        78.68826
1010.35        78.42821
1010.73        78.48061
1011.11        78.78223
1011.49        79.22664
1011.86        79.98255
1012.24        80.45834
1012.62        79.90742
1013.00        78.19043
1013.38        75.35703
1013.76        72.28322
1014.14        70.89108
1014.52        71.84338
1014.90        74.66354
1015.28        77.89265
1015.66        79.20895
1016.04        78.04431
1016.41        75.11748
1016.79        71.51717
1017.17          69.564
1017.55        69.96195
1017.93        71.67528
1018.31        73.84134
1018.69        75.90855
1019.06        78.04033
1019.44        80.56631
1019.82        83.72363
1020.20        86.75609
1020.58        88.50253
1020.95        88.50733
1021.33        87.26001
1021.71        85.41038
1022.09        82.93933
1022.46        79.31258
1022.84        74.69956
1023.22        70.10802
1023.60        67.13226
1023.97        66.25429
1024.35        66.64966
1024.73        67.04556
