SpectraSmart Spectrum 2.9.0.0
--------- Device Information -----------
Spectrum Name :  反射率_0
Saving Time :  2024/04/30 01:14:04
Spectro-Module Model Name : SE2030-DUVN
Spectro-Module Serial Number : OS361AC55029948
Wavelength Start : 200
Wavelength End : 1025
Wavelength Unit : Wavelength(nm)
Spectrum Unit : Reflectance(%)
-----------Spectrum Setting ------------
Integration Time : 20ms
Average : 10
Boxcar : 0
Background removal :  enabled
linearity correction :  enabled
SC :  disabled
Intensity correction :  disabled
DWT denoise :  enabled
savitzky-golay :  disabled
FFT :  disabled
Running average :  disabled
Kalman :  disabled
High pass :  disabled
---------------BEGIN--------------------
Wavelength(nm)             Reflectance(%)
200.29               0
200.75        95.88873
201.21        75.78514
201.67        55.19704
202.13        43.83133
202.58        46.22891
203.04        60.80881
203.50         84.7021
203.96        110.0038
204.42        130.2117
204.88        144.2684
205.34        147.5557
205.80        137.3825
206.26        119.5422
206.72        100.1098
207.18        83.68379
207.64        71.75514
208.10        62.99389
208.55        56.11299
209.01        51.45865
209.47        51.32486
209.93        55.43988
210.39        61.72506
210.85        67.95335
211.31        72.95579
211.77        77.26476
212.23        81.87563
212.69        86.35057
213.14        88.16859
213.60        85.30561
214.06        80.23611
214.52        76.28062
214.98        75.67088
215.44        78.17739
215.90        83.31841
216.36        90.22445
216.81        96.95626
217.27        103.0094
217.73        109.7349
218.19        117.8339
218.65        126.2586
219.11        132.2425
219.57        133.5142
220.02        133.0476
220.48        135.7177
220.94        141.8338
221.40        152.0969
221.86         162.807
222.32        161.5997
222.77        147.1383
223.23        130.3205
223.69        118.5764
224.15        115.1233
224.61        118.4937
225.06        127.2626
225.52        138.8554
225.98         145.954
226.44        146.0003
226.90        142.2321
227.36        138.8107
227.81        138.9696
228.27        142.9296
228.73        149.2708
229.19        155.5406
229.65        156.6055
230.10        151.8616
230.56        145.3586
231.02        139.6731
231.48        136.9315
231.93        136.9076
232.39        138.6709
232.85        141.9346
233.31        146.4016
233.77        151.5469
234.22         157.675
234.68        162.9439
235.14         164.302
235.60        161.1474
236.05        154.2245
236.51         146.648
236.97        142.3802
237.43        142.2134
237.88        146.1388
238.34        151.8384
238.80         153.802
239.26        148.9874
239.71        139.5289
240.17        129.2658
240.63        122.8441
241.08        121.3443
241.54        123.8234
242.00        131.0846
242.46        140.1865
242.91        145.9712
243.37         146.643
243.83        143.6738
244.28        139.9735
244.74        135.7991
245.20        128.8288
245.66          120.35
246.11        114.8579
246.57        114.5789
247.03        120.4115
247.48        127.2132
247.94        123.5666
248.40        111.2116
248.85        97.24267
249.31        88.59278
249.77        87.95181
250.22         95.2031
250.68        111.6757
251.14        137.7477
251.59        154.5305
252.05        147.0243
252.51        129.5038
252.96        115.7129
253.42        111.3426
253.88        113.6716
254.33        119.9881
254.79        127.8682
255.25        131.3611
255.70        129.1815
256.16        125.5849
256.62        122.8971
257.07        122.4812
257.53         124.665
257.99        128.1998
258.44        131.1781
258.90        132.0607
259.35        130.3122
259.81        127.9234
260.27        126.0426
260.72        125.7115
261.18        127.1207
261.63        128.9466
262.09        130.4271
262.55         129.859
263.00        127.2045
263.46        123.8334
263.91        120.3867
264.37        118.3297
264.83        117.5067
265.28        117.3474
265.74        117.5209
266.19        117.0826
266.65        116.0433
267.11        114.6503
267.56        113.2059
268.02        112.2379
268.47        111.7317
268.93        111.4866
269.38        111.2493
269.84        110.7314
270.30        109.8215
270.75        108.6269
271.21        107.2496
271.66        105.6479
272.12        103.9096
272.57         101.959
273.03        100.0108
273.48        98.26211
273.94        96.89236
274.39        95.75204
274.85        94.78869
275.31         93.6552
275.76         92.2425
276.22        90.75851
276.67        89.24745
277.13        88.06117
277.58        87.10644
278.04        86.37504
278.49        85.59533
278.95        84.65322
279.40        83.40977
279.86        82.08534
280.31        80.67828
280.77        79.44566
281.22         78.3434
281.68        77.38895
282.13        76.51134
282.59        75.80743
283.04        75.15995
283.50        74.59622
283.95        73.90827
284.41        72.90132
284.86        71.52553
285.32         69.9705
285.77        68.37989
286.22        67.11031
286.68        66.24813
287.13        65.63702
287.59        65.19812
288.04        64.68745
288.50        64.08984
288.95        63.40139
289.41        62.73199
289.86        62.12254
290.32        61.62264
290.77        61.17354
291.22        60.69785
291.68        60.08341
292.13        59.30849
292.59        58.48114
293.04        57.75243
293.50        57.41466
293.95        57.47239
294.40        57.84156
294.86        58.29986
295.31         58.5131
295.77        58.39689
296.22        58.03786
296.68        57.60734
297.13        57.34208
297.58        57.32186
298.04        57.44574
298.49        57.61344
298.95        57.69183
299.40        57.62326
299.85        57.46729
300.31        57.28069
300.76        57.05687
301.21        56.84741
301.67        56.67051
302.12        56.48962
302.58        56.40682
303.03        56.40006
303.48        56.37603
303.94        56.33527
304.39         56.6996
304.84        56.69557
305.30        56.92862
305.75        57.07445
306.20        57.07488
306.66        56.93415
307.11        56.65865
307.57        56.35284
308.02        56.05733
308.47        55.81932
308.93        55.63155
309.38        55.45889
309.83        55.31514
310.29         55.1976
310.74         55.0928
311.19        54.97939
311.65        54.80931
312.10        54.56482
312.55        54.27201
313.00        53.97081
313.46        53.72417
313.91        53.53672
314.36        53.39326
314.82        53.27739
315.27        53.18843
315.72        53.10035
316.18         53.0132
316.63         52.8881
317.08        52.67434
317.53        52.37381
317.99        52.02379
318.44        51.64946
318.89        51.30108
319.35        50.99974
319.80        50.72728
320.25        50.53441
320.70        50.50029
321.16        50.60643
321.61        50.84949
322.06        51.07309
322.51        51.02928
322.97        50.66456
323.42        50.05821
323.87        49.38693
324.32        48.94385
324.78        48.79121
325.23        48.87385
325.68        49.04298
326.13        49.04793
326.59        48.80611
327.04        48.41349
327.49        47.98299
327.94        47.71577
328.39        47.65723
328.85        47.71277
329.30        47.80266
329.75        47.71297
330.20        47.39356
330.66        46.92534
331.11        46.42151
331.56        46.01715
332.01        45.76754
332.46        45.62942
332.92        45.58714
333.37        45.67487
333.82        45.85461
334.27         46.1189
334.72        46.38837
335.17        46.52844
335.63        46.49402
336.08        46.33215
336.53        46.08938
336.98        45.88591
337.43        45.76889
337.88        45.71053
338.34        45.70172
338.79        45.74479
339.24        45.82187
339.69         45.9443
340.14        46.07264
340.59        46.13488
341.05        46.11747
341.50        46.03258
341.95        45.92577
342.40        45.88436
342.85        45.92414
343.30        46.00923
343.75        46.09279
344.20        46.10123
344.66        46.02696
345.11        45.89813
345.56        45.73429
346.01        45.56043
346.46        45.40118
346.91        45.25343
347.36        45.16381
347.81        45.20238
348.26        45.36901
348.72        45.63201
349.17        45.91636
349.62        46.07751
350.07         46.0754
350.52        45.95324
350.97        45.77439
351.42         45.6401
351.87        45.58243
352.32        45.56961
352.77        45.59196
353.22        45.63472
353.67        45.68158
354.13        45.73259
354.58        45.75906
355.03        45.71301
355.48        45.58052
355.93        45.36806
356.38         45.0991
356.83        44.81261
357.28        44.52464
357.73        44.23636
358.18        43.93964
358.63          43.619
359.08        43.27774
359.53         42.9267
359.98        42.59982
360.43        42.34738
360.88        42.17397
361.33        42.05896
361.78         41.9517
362.23        41.77194
362.68        41.50344
363.13        41.17595
363.58        40.82996
364.03        40.53016
364.48        40.29646
364.93        40.10503
365.38        39.94941
365.83        39.82122
366.28         39.7086
366.73        39.61211
367.18        39.50104
367.63        39.32555
368.08        39.07505
368.53         38.7602
368.98        38.41926
369.43        38.11645
369.88        37.87631
370.33        37.69514
370.78         37.5435
371.23         37.3699
371.68        37.16253
372.13        36.93018
372.58        36.72334
373.03        36.62284
373.48        36.62922
373.93        36.69998
374.38        36.73733
374.83         36.5879
375.28        36.22833
375.72        35.71702
376.17        35.17958
376.62        34.72966
377.07        34.40485
377.52        34.16936
377.97        34.02373
378.42        33.96888
378.87        33.98783
379.32        34.07383
379.77        34.16734
380.22        34.17921
380.67        34.08331
381.11        33.88617
381.56        33.63071
382.01        33.39955
382.46         33.2241
382.91        33.09854
383.36        32.97481
383.81        32.77512
384.26        32.49194
384.71        32.15196
385.15        31.84115
385.60        31.72318
386.05        31.79983
386.50        32.00693
386.95        32.20652
387.40          32.186
387.85        31.91416
388.29         31.4633
388.74        30.99494
389.19        30.63653
389.64        30.42377
390.09        30.30086
390.54        30.26027
390.98        30.28568
391.43        30.36436
391.88        30.49129
392.33        30.58884
392.78        30.57541
393.23        30.44747
393.67        30.16076
394.12        29.82331
394.57         29.7932
395.02        29.65974
395.47        29.73006
395.91        29.81258
396.36        29.78795
396.81        29.63843
397.26        29.41834
397.71        29.18977
398.15         29.0276
398.60        28.98691
399.05        28.97324
399.50         28.9627
399.95        29.05301
400.39        29.08134
400.84        29.04421
401.29        28.91022
401.74        28.80345
402.18        28.73828
402.63        28.62774
403.08        28.50571
403.53        28.44625
403.97        28.45314
404.42          28.513
404.87        28.55841
405.32         28.4785
405.76        28.25436
406.21        27.93694
406.66        27.62594
407.11        27.48008
407.55        27.54015
408.00        27.75277
408.45        28.01883
408.90        28.15384
409.34        28.10085
409.79        27.91126
410.24        27.69118
410.68        27.60184
411.13        27.67889
411.58        27.86698
412.03        28.06782
412.47        28.12118
412.92        27.97458
413.37        27.70441
413.81        27.39764
414.26        27.21501
414.71        27.17328
415.15        27.22596
415.60        27.31183
416.05        27.35557
416.49        27.33129
416.94        27.27371
417.39        27.18295
417.83        27.05039
418.28        26.89193
418.73        26.70231
419.17         26.5476
419.62        26.53873
420.07        26.68403
420.51        26.94143
420.96        27.21121
421.41        27.31919
421.85        27.22424
422.30        27.01232
422.74        26.75693
423.19        26.61071
423.64        26.59626
424.08        26.67468
424.53        26.79583
424.98        26.91361
425.42          27.006
425.87        27.07327
426.31        27.08919
426.76        27.04955
427.21        26.87017
427.65         26.6039
428.10        26.31485
428.54        26.08883
428.99        25.97129
429.44        26.07864
429.88        26.28123
430.33        26.09609
430.77         25.6597
431.22        25.72322
431.66        26.24091
432.11        26.51745
432.56        26.46511
433.00        26.38664
433.45        26.29615
433.89        26.13749
434.34        25.98014
434.78        25.88706
435.23         25.8483
435.67        25.78137
436.12        25.69563
436.57        25.63348
437.01        25.61871
437.46        25.66397
437.90        25.76337
438.35        25.90487
438.79        26.05129
439.24         26.1019
439.68        26.07764
440.13        26.11248
440.57        26.16174
441.02        26.15425
441.46         26.0944
441.91        25.82909
442.35        25.48856
442.80        25.79587
443.24        26.51866
443.69        26.39925
444.13         25.5475
444.58        25.19212
445.02        25.34424
445.47        25.35444
445.91        25.19255
446.36        25.13033
446.80        25.15768
447.24        25.21061
447.69        25.27515
448.13         25.3239
448.58        25.35137
449.02        25.36303
449.47        25.37501
449.91        25.39552
450.36        25.43078
450.80        25.47209
451.25         25.5078
451.69        25.51082
452.13        25.47797
452.58        25.43275
453.02        25.38532
453.47        25.34716
453.91        25.31691
454.36        25.35786
454.80        25.35039
455.24        25.39674
455.69        25.45982
456.13        25.53121
456.58        25.58854
457.02        25.57495
457.46        25.49287
457.91        25.36202
458.35        25.21706
458.79        25.14311
459.24        25.17104
459.68        25.25817
460.13        25.36457
460.57        25.47168
461.01        25.50497
461.46        25.42976
461.90        25.29514
462.34        25.44997
462.79        25.79058
463.23        25.75245
463.68        25.37803
464.12        25.20709
464.56        25.26476
465.01        25.26519
465.45        25.18445
465.89        25.15216
466.34        25.18176
466.78        25.24082
467.22        25.37664
467.67        25.37894
468.11        25.26594
468.55        25.08905
468.99        24.91817
469.44        24.83508
469.88        24.85934
470.32        24.97143
470.77         25.1125
471.21        25.20191
471.65        25.20794
472.10        25.16632
472.54        25.10471
472.98        25.08634
473.42        25.12623
473.87        25.20084
474.31        25.28134
474.75        25.33591
475.20        25.36012
475.64         25.3571
476.08        25.34028
476.52        25.32254
476.97        25.31012
477.41         25.2959
477.85        25.28519
478.29        25.28583
478.74        25.30723
479.18        25.32964
479.62        25.34369
480.06        25.39347
480.50        25.49106
480.95        25.39938
481.39        25.50673
481.83        25.55654
482.27        25.68026
482.72        25.66172
483.16        25.84487
483.60        25.91826
484.04        25.98318
484.48        26.02822
484.93        26.07666
485.37        26.18266
485.81        26.33792
486.25        26.33306
486.69        26.17017
487.14        26.36578
487.58        26.57285
488.02        26.60006
488.46        26.90998
488.90        27.00858
489.34        26.42946
489.79        26.61132
490.23        26.70644
490.67        27.02702
491.11        27.25671
491.55        27.16767
491.99        26.86362
492.43        26.84005
492.88        27.13504
493.32        27.43638
493.76        27.66428
494.20        27.86466
494.64        28.01972
495.08        28.10936
495.52        28.15004
495.96        28.22746
496.41        28.36399
496.85        28.41499
497.29        28.38951
497.73        28.70008
498.17        28.93125
498.61        28.92358
499.05        28.63297
499.49        28.50151
499.93        28.58626
500.37        28.75919
500.82        28.97157
501.26        29.14002
501.70         29.2402
502.14        29.33708
502.58        29.45077
503.02        29.57494
503.46        29.71499
503.90        29.87223
504.34        30.02629
504.78        30.14504
505.22         30.2186
505.66        30.24659
506.10        30.24661
506.54        30.28214
506.98        30.36909
507.42         30.4343
507.86        30.42116
508.30         30.5829
508.74        30.35531
509.18        30.21434
509.62        30.07168
510.06        30.06169
510.50        30.20396
510.94        30.46666
511.38        30.76563
511.82        30.94359
512.26        30.95941
512.70        30.85734
513.14        30.71569
513.58        30.65757
514.02        30.71598
514.46        30.85275
514.90        31.01184
515.34        31.10428
515.78        31.10394
516.22        31.03898
516.66        30.95702
517.10        30.92901
517.54        30.96973
517.98        31.05321
518.42        31.12848
518.86        31.11674
519.30        31.00397
519.74        30.82334
520.18        30.63275
520.62        30.51661
521.06        30.49969
521.50        30.56224
521.93        30.66712
522.37        30.74237
522.81        30.76874
523.25        30.75869
523.69         30.7467
524.13        30.78756
524.57        30.88571
525.01        31.01501
525.45        31.11795
525.89        31.10565
526.32        30.96012
526.76        30.72871
527.20        30.47519
527.64        30.29687
528.08        30.22005
528.52        30.21585
528.96        30.25401
529.40         30.2846
529.83        30.28574
530.27        30.27539
530.71        30.24968
531.15        30.20532
531.59         30.1431
532.03        30.05827
532.46        29.95901
532.90        29.87329
533.34        29.80726
533.78        29.76321
534.22        29.72967
534.66        29.68563
535.09        29.62561
535.53        29.56261
535.97        29.51673
536.41         29.5272
536.85        29.59692
537.28        29.70811
537.72        29.81914
538.16        29.86658
538.60        29.83654
539.04        29.75186
539.47        29.64333
539.91        29.58546
540.35        29.58919
540.79        29.64396
541.22        29.72827
541.66        29.81196
542.10        29.88376
542.54        29.95632
542.97          30.046
543.41        30.18173
543.85        30.36314
544.29        30.58044
544.72        30.78945
545.16        30.94422
545.60        31.03243
546.04        31.05641
546.47        31.06614
546.91        31.18996
547.35        31.42377
547.79        31.63927
548.22        31.79198
548.66        31.98486
549.10        32.21592
549.53         32.3256
549.97        32.28394
550.41        32.70833
550.84        32.62529
551.28         32.7653
551.72        32.82612
552.15        33.07944
552.59        33.11125
553.03        33.25606
553.46        33.39244
553.90        33.51437
554.34        33.61245
554.77        33.72465
555.21        33.84772
555.65         33.8889
556.08        33.87855
556.52        33.97999
556.96         34.1743
557.39        34.34844
557.83        34.48607
558.27        34.57516
558.70        34.64302
559.14        34.77684
559.57        34.94671
560.01        35.09422
560.45        35.20379
560.88        35.13878
561.32        35.11888
561.75        35.20508
562.19        35.40791
562.63        35.38888
563.06        35.18793
563.50        35.17779
563.93        35.34335
564.37        35.44165
564.80        35.45718
565.24        35.53401
565.68        35.65785
566.11        35.76881
566.55        35.86247
566.98        35.90483
567.42        35.95346
567.85        36.02705
568.29        36.14204
568.72        36.39066
569.16        36.80339
569.60        36.66819
570.03        37.10563
570.47        37.24863
570.90        37.41973
571.34        37.53463
571.77        37.69849
572.21        37.91385
572.64        38.13203
573.08        38.10859
573.51        37.98529
573.95        38.09226
574.38        38.66969
574.82        39.01001
575.25        38.67168
575.69        38.51794
576.12        38.43782
576.56         38.7001
576.99        38.52833
577.42        38.65953
577.86        38.56182
578.29        38.59156
578.73        38.65315
579.16        38.71314
579.60         38.5645
580.03        38.27807
580.47        38.45646
580.90        38.33972
581.33        38.12753
581.77        38.31369
582.20        38.16345
582.64        38.11893
583.07        37.74417
583.51        37.46951
583.94        37.39837
584.37        37.32078
584.81        37.27352
585.24        37.38457
585.68        37.36637
586.11        37.38797
586.54        36.88892
586.98        36.76748
587.41         37.3617
587.85        37.18188
588.28        37.15078
588.71        37.17968
589.15        36.77352
589.58        37.08084
590.01        36.71664
590.45        36.70472
590.88        36.72443
591.31        36.87841
591.75        37.04372
592.18        37.08842
592.61        37.10662
593.05        36.62389
593.48        37.05705
593.91        37.28173
594.35        36.96652
594.78        37.04015
595.21        37.23109
595.65        37.51851
596.08        36.99005
596.51        37.45928
596.94        37.74376
597.38        38.08736
597.81        38.17231
598.24        38.33496
598.68        38.60571
599.11        38.75177
599.54        39.55392
599.97        39.66655
600.41        39.39936
600.84        39.94082
601.27          40.092
601.70        40.61669
602.14        41.05909
602.57        41.32286
603.00        41.41705
603.43        41.74223
603.87        42.20218
604.30        42.62041
604.73        42.97819
605.16        43.33759
605.60        43.69469
606.03        44.18313
606.46        44.69225
606.89        45.06167
607.32        45.30081
607.76        45.61409
608.19        46.04331
608.62        46.29217
609.05        46.38033
609.48        47.14813
609.92        47.44032
610.35        47.69953
610.78        48.27376
611.21        47.98863
611.64        48.22823
612.07        48.45673
612.50        49.01056
612.94        49.20842
613.37        49.79733
613.80        49.81687
614.23        50.45183
614.66        50.71816
615.09        50.90971
615.52        51.00626
615.96         51.0413
616.39         51.3115
616.82        51.29847
617.25        51.74698
617.68        51.58881
618.11        51.89358
618.54        52.32793
618.97        52.60964
619.40        52.74239
619.84        52.90865
620.27        53.13852
620.70         53.4058
621.13        53.56885
621.56        53.47829
621.99        53.80241
622.42        53.53174
622.85        53.64916
623.28        53.63488
623.71        54.23092
624.14        53.35385
624.57        54.10271
625.00        54.02763
625.43        54.00833
625.86        53.82873
626.29        53.76909
626.72        53.71894
627.15        53.59846
627.58        53.58584
628.01        53.57964
628.44        53.33323
628.87        52.89426
629.30        52.63508
629.73        52.56849
630.16        52.38311
630.59        52.06633
631.02        51.92569
631.45        51.70417
631.88        51.46055
632.31        51.11198
632.74         50.7017
633.17        50.25543
633.60         49.8232
634.03        49.42315
634.46        49.03257
634.89        48.64641
635.32        48.26399
635.75        47.88075
636.18        47.49688
636.61        47.10983
637.04        46.71986
637.47        46.33891
637.89        45.94146
638.32        45.51093
638.75        45.16006
639.18        44.91845
639.61        44.32387
640.04        44.19762
640.47        43.92139
640.90         43.7342
641.33        43.61366
641.76        43.52553
642.18        43.40183
642.61        43.20682
643.04        42.96924
643.47        42.74839
643.90        42.62487
644.33        42.61364
644.76        42.74753
645.18        42.94117
645.61        42.93735
646.04        42.67568
646.47         42.6857
646.90        42.93939
647.33        43.10118
647.75        43.15907
648.18        43.33488
648.61        43.61655
649.04          43.883
649.47        44.13993
649.89        44.42903
650.32        44.74179
650.75        45.15813
651.18        45.64719
651.61        46.00283
652.03        46.30345
652.46        46.88168
652.89        47.58806
653.32        48.16605
653.74        48.31044
654.17        48.27625
654.60        48.45503
655.03        49.82532
655.46        49.09574
655.88        50.52943
656.31         53.8022
656.74        54.46454
657.16        53.55412
657.59        51.75963
658.02        51.81772
658.45        52.84581
658.87        53.81582
659.30         53.6012
659.73        54.52583
660.15        54.39277
660.58        54.76411
661.01        54.89931
661.44        55.07648
661.86        55.15848
662.29        55.19816
662.72        55.52288
663.14        56.07553
663.57        56.33461
664.00        56.32693
664.42        56.49345
664.85        56.87253
665.27        57.19013
665.70         57.4175
666.13        57.66763
666.55        57.94199
666.98        58.19996
667.41        58.43163
667.83        58.61301
668.26        58.73427
668.69         58.8164
669.11        58.88288
669.54        58.96714
669.96        59.08053
670.39        59.23611
670.82        59.42174
671.24        59.56155
671.67        59.66599
672.09        59.87909
672.52        60.17729
672.94        60.45572
673.37        60.23872
673.80        60.68679
674.22        60.49692
674.65        60.72418
675.07         61.0314
675.50        61.41582
675.92        61.80186
676.35        62.06084
676.77        62.17963
677.20        62.17532
677.62         62.1334
678.05        62.19209
678.47         62.3793
678.90        62.65729
679.32        62.94232
679.75        63.11075
680.17        63.12968
680.60        63.05642
681.02        62.96311
681.45        62.95697
681.87        63.06959
682.30        63.27617
682.72        63.55272
683.15        63.73516
683.57        63.85973
684.00        64.14821
684.42        64.52438
684.85        64.73682
685.27        64.77486
685.70        64.63026
686.12         64.4623
686.54        64.85538
686.97        65.66869
687.39        66.09679
687.82        66.04402
688.24        66.10911
688.66        66.28414
689.09        66.18204
689.51        65.86951
689.94        65.67624
690.36        65.65168
690.78        65.68787
691.21        65.78484
691.63        66.00541
692.06        66.30142
692.48        66.54993
692.90        66.72831
693.33        66.90554
693.75        67.07493
694.17        67.15909
694.60        67.19133
695.02        67.26445
695.44        67.38869
695.87        67.61204
696.29        67.88928
696.71        67.93494
697.14        67.82412
697.56        67.97422
697.98        68.36335
698.41        68.61644
698.83        68.70862
699.25        68.86205
699.68        69.04826
700.10        69.17004
700.52        69.20541
700.94        69.19872
701.37        69.15809
701.79        69.11529
702.21         69.0794
702.64        69.05668
703.06        69.07838
703.48        69.20298
703.90         69.4384
704.33        69.77996
704.75        70.13384
705.17        70.41022
705.59         70.5531
706.01        70.59073
706.44        70.58364
706.86        70.63008
707.28        70.75179
707.70        70.94262
708.12        71.17091
708.55         71.3152
708.97        71.39135
709.39        71.55584
709.81        71.79825
710.23        71.98535
710.66         72.0985
711.08        72.22478
711.50        72.36017
711.92        72.50121
712.34        72.65298
712.76         72.8175
713.19        72.95728
713.61         73.0566
714.03        73.09109
714.45        73.07795
714.87        73.06277
715.29        73.11427
715.71        73.24629
716.13        73.43696
716.56         73.6276
716.98        73.80852
717.40        73.92857
717.82        74.00122
718.24        74.04008
718.66         74.0693
719.08        74.09991
719.50        74.12359
719.92        74.14437
720.34        74.17056
720.76        74.20337
721.19        74.23534
721.61        74.27658
722.03        74.31065
722.45        74.33451
722.87         74.3528
723.29        74.36572
723.71         74.3737
724.13        74.38065
724.55        74.38928
724.97        74.41257
725.39        74.46848
725.81        74.56284
726.23        74.69485
726.65         74.8475
727.07        74.99619
727.49        75.12912
727.91        75.23606
728.33        75.33956
728.75        75.47958
729.17        75.66705
729.59        75.88009
730.01        76.03177
730.43        76.05267
730.85        75.97691
731.27        75.50792
731.69        75.51443
732.10        75.51631
732.52        75.77319
732.94        76.25613
733.36         76.8451
733.78        77.29107
734.20        77.50497
734.62        77.51659
735.04        77.42434
735.46        77.47771
735.88        77.67608
736.30        77.76339
736.72         77.7057
737.13        77.64195
737.55        77.50651
737.97        77.29267
738.39        77.06732
738.81        76.70212
739.23        76.39182
739.65         76.8868
740.06         77.8837
740.48        78.27966
740.90        77.95831
741.32        77.47149
741.74        77.06259
742.16        76.89952
742.57        77.08058
742.99        77.55856
743.41        78.13518
743.83        78.39419
744.25        78.29903
744.67        78.15746
745.08         78.0658
745.50         77.9772
745.92        77.93646
746.34        77.97844
746.75        78.10991
747.17        78.24857
747.59        78.37139
748.01        78.67553
748.42        79.04784
748.84        78.86679
749.26        78.39534
749.68        78.26866
750.09        78.57764
750.51        78.80022
750.93        79.34854
751.35        79.25198
751.76        78.80096
752.18        78.70737
752.60        79.01961
753.01        79.27462
753.43        79.38116
753.85        79.47952
754.27        79.56985
754.68        79.64813
755.10         79.7225
755.52        79.81684
755.93        79.91026
756.35        79.93701
756.77        80.00986
757.18        80.22967
757.60        80.59921
758.02         81.2765
758.43        82.24923
758.85        81.67297
759.26         80.0529
759.68        79.51065
760.10        80.14273
760.51        80.70112
760.93        80.70006
761.34        80.85724
761.76        80.99126
762.18        80.82668
762.59        80.45337
763.01        80.09029
763.42        79.88541
763.84        79.80442
764.26        79.89307
764.67        80.16998
765.09        80.57991
765.50        80.99113
765.92        81.32533
766.33        81.45023
766.75        81.27699
767.16        81.16448
767.58        81.12741
768.00        80.76793
768.41        80.27832
768.83        80.66818
769.24        81.62818
769.66         81.6321
770.07        80.78683
770.49        80.42019
770.90        80.67496
771.32        81.10493
771.73        81.54776
772.15        81.70322
772.56         81.5365
772.97        81.34879
773.39        81.03169
773.80        81.11611
774.22        81.49813
774.63        81.98296
775.05        82.36755
775.46        82.59626
775.88        82.58029
776.29        82.33785
776.70        81.97397
777.12        81.74359
777.53        81.71216
777.95        81.76344
778.36        81.91174
778.77        82.12457
779.19         82.3715
779.60        82.84074
780.02        83.30102
780.43        83.25266
780.84         82.8411
781.26        82.39798
781.67        82.09404
782.09        82.90258
782.50        83.99895
782.91        83.46436
783.33        83.26164
783.74        82.86234
784.15        82.94339
784.57        82.71178
784.98        82.28234
785.39         82.1778
785.81        82.42979
786.22        82.88692
786.63        83.44434
787.04        83.94583
787.46        84.32574
787.87        84.59954
788.28        84.78461
788.70        84.89291
789.11        84.93312
789.52        84.93414
789.93        84.87413
790.35        84.71409
790.76        84.47649
791.17         84.1852
791.58        83.98878
792.00        84.00969
792.41        84.27519
792.82        84.96603
793.23        85.84033
793.65        85.85341
794.06        85.21712
794.47         85.4388
794.88        86.32144
795.29        86.41905
795.71        85.66502
796.12        84.91153
796.53        84.40541
796.94        84.21564
797.35        84.44733
797.76        85.09019
798.18        85.88998
798.59        86.46934
799.00        86.68316
799.41        86.62056
799.82        86.39228
800.23        86.21046
800.64        86.15217
801.06         86.1151
801.47        86.12415
801.88        86.14506
802.29        86.15603
802.70        86.16441
803.11        86.17811
803.52        86.19159
803.93        86.22621
804.34        86.30685
804.75        86.36417
805.17        86.40437
805.58        86.48055
805.99        86.20135
806.40        85.79784
806.81        86.53459
807.22        88.03595
807.63        88.15681
808.04        87.01248
808.45        86.68011
808.86        87.29499
809.27        87.63736
809.68        87.56953
810.09        87.48841
810.50        87.38382
810.91        87.14693
811.32        86.90359
811.73        86.85299
812.14        87.02985
812.55        87.40369
812.96        87.81461
813.37        87.94813
813.78        87.73425
814.19        87.29636
814.60        86.81315
815.01        86.53464
815.42        86.51875
815.83        86.67783
816.24        86.95051
816.65        87.21158
817.05        87.39299
817.46        87.49971
817.87        87.52387
818.28        87.38279
818.69         87.0898
819.10        86.66791
819.51        86.26702
819.92         86.1725
820.33        86.45219
820.74        87.00038
821.14        87.66169
821.55        88.20111
821.96        88.53217
822.37        88.72575
822.78         88.7565
823.19         88.5978
823.60        88.27328
824.00        87.77531
824.41        87.26464
824.82        87.03286
825.23         87.1329
825.64        87.52572
826.04        87.99992
826.45        88.05793
826.86        87.62985
827.27        86.86678
827.68        86.08704
828.08        85.82248
828.49        86.15147
828.90        86.94746
829.31        87.96495
829.72        88.77537
830.12        89.25475
830.53         89.4185
830.94        89.43296
831.35        89.53274
831.75        89.81206
832.16         90.0925
832.57        90.29414
832.97         90.2505
833.38        89.94392
833.79        89.52854
834.20        89.09439
834.60        88.72732
835.01        88.50727
835.42        88.36346
835.82        88.43401
836.23        88.86618
836.64        89.66796
837.04        90.81059
837.45        91.84766
837.86        92.21564
838.26        91.78078
838.67        90.72807
839.08        89.46941
839.48        88.62809
839.89        88.42516
840.29        88.68079
840.70        89.20794
841.11        89.71061
841.51         90.0976
841.92        90.41687
842.33         90.7006
842.73        90.97207
843.14        91.17303
843.54        91.29577
843.95        91.32728
844.35        91.35275
844.76        91.35531
845.17        91.30176
845.57        91.20478
845.98        91.03386
846.38        90.81596
846.79        90.58655
847.19        90.28355
847.60        89.73038
848.00        88.97544
848.41        88.11055
848.81        87.44162
849.22        87.42072
849.62        88.15424
850.03        89.43589
850.43         90.9768
850.84        91.99327
851.24        92.29831
851.65        91.95508
852.05        91.24097
852.46        90.58465
852.86        90.14083
853.27        89.89442
853.67        89.65826
854.07        89.40988
854.48        89.06476
854.88         88.7084
855.29        88.36932
855.69        88.36545
856.10        88.63776
856.50        89.20745
856.90        89.76104
857.31        89.90303
857.71        89.60446
858.12        88.91963
858.52        88.18646
858.92        87.90556
859.33        88.18382
859.73        88.93279
860.13        89.81039
860.54        90.25995
860.94        90.18834
861.34        89.66538
861.75        88.92455
862.15         88.4541
862.55        88.35013
862.96        88.48877
863.36        88.59341
863.76        88.25732
864.17        87.44886
864.57        86.37175
864.97        85.32039
865.38        84.65873
865.78        84.51805
866.18        84.74936
866.58        85.27752
866.99        85.91523
867.39        86.60423
867.79        87.32974
868.19        87.88987
868.60        87.98772
869.00        87.60265
869.40        86.78994
869.80        85.93523
870.21        85.71613
870.61        86.33079
871.01        87.53277
871.41         88.8145
871.81        89.35999
872.22        88.96587
872.62        87.89471
873.02        86.56982
873.42          85.694
873.82        85.50843
874.22        85.84647
874.63        86.42113
875.03        86.78934
875.43        86.83132
875.83        86.65536
876.23        86.55714
876.63        87.00956
877.03        88.05901
877.44         89.4572
877.84        90.73406
878.24        91.03773
878.64        90.23715
879.04        88.70438
879.44        87.00359
879.84        85.94728
880.24        85.73145
880.64        86.07856
881.04        86.81334
881.44         87.6316
881.84        88.37873
882.24        89.17973
882.65        89.76971
883.05        89.84636
883.45        89.32458
883.85        88.31956
884.25        87.32047
884.65        87.10186
885.05        87.79162
885.45        89.11603
885.85        90.65986
886.25        91.68712
886.65        91.92506
887.05        91.60738
887.45         90.7926
887.85        89.61589
888.25        88.28944
888.65        86.86868
889.04        85.66199
889.44        85.17583
889.84        85.39301
890.24        86.22729
890.64        87.38599
891.04        88.20607
891.44        88.42087
891.84        88.19936
892.24        87.78525
892.64        87.54488
893.04        87.57057
893.44        87.72926
893.83        87.99786
894.23        88.25523
894.63        88.48768
895.03        88.74966
895.43        88.99541
895.83        89.14023
896.23        89.16518
896.63        89.04717
897.02        88.87471
897.42        88.86128
897.82         89.0234
898.22        89.34133
898.62        89.59251
899.01        89.41637
899.41        88.75286
899.81        87.74191
900.21        86.76466
900.61        86.39957
901.00        86.75282
901.40        87.64656
901.80        88.64983
902.20        89.04948
902.59        88.66082
902.99         87.7047
903.39        86.59235
903.79        85.94147
904.18        85.90427
904.58        86.32845
904.98        86.89738
905.38        87.13509
905.77        86.90948
906.17        86.38228
906.57        85.85788
906.96        85.83949
907.36        86.39224
907.76        87.36899
908.15        88.39403
908.55        88.71021
908.95        88.22352
909.34        87.17672
909.74        86.11906
910.14        85.75308
910.53        86.27776
910.93        87.40489
911.33        88.85569
911.72        90.20396
912.12        91.17138
912.52        91.88974
912.91        92.34636
913.31         92.4866
913.70        92.34239
914.10        91.86516
914.49         91.1619
914.89        90.41292
915.29        89.71944
915.68        89.12673
916.08        88.69522
916.47         88.3424
916.87        88.11702
917.26        87.99768
917.66         88.1131
918.05        88.70121
918.45         89.6933
918.84        91.03692
919.24        92.26984
919.64        92.79581
920.03        92.47311
920.42        91.45701
920.82        90.21259
921.21         89.3511
921.61        89.06091
922.00        89.19886
922.40        89.54512
922.79        89.81789
923.19        89.86962
923.58        89.83232
923.98        89.76167
924.37        89.72968
924.77        89.75663
925.16        89.80003
925.55          89.824
925.95         89.7979
926.34        89.73901
926.74        89.64643
927.13        89.56572
927.52        89.52518
927.92        89.53431
928.31        89.56082
928.70        89.57948
929.10        89.53239
929.49        89.41052
929.89        89.19414
930.28        88.92687
930.67        88.58634
931.07        88.20232
931.46        87.82757
931.85        87.49938
932.24        87.26614
932.64        87.16235
933.03        87.21352
933.42        87.44021
933.82        87.84624
934.21        88.42021
934.60        89.02476
934.99        89.66184
935.39        90.32419
935.78        91.02669
936.17        91.74561
936.56        92.06374
936.96        91.36985
937.35        89.68467
937.74        87.33861
938.13         85.1976
938.53        84.35864
938.92        84.94223
939.31        86.71191
939.70        88.94872
940.09        90.22668
940.49        90.05932
940.88        88.86018
941.27        87.36152
941.66         86.6703
942.05        87.05572
942.44         88.2216
942.84        89.57076
943.23        90.16167
943.62        89.64721
944.01        88.35911
944.40        87.04801
944.79        86.78776
945.18        87.78378
945.57        89.71708
945.97        91.71207
946.36        92.52904
946.75        91.71588
947.14        89.71435
947.53        87.49099
947.92        86.48946
948.31        87.07101
948.70        88.85952
949.09        91.03345
949.48        92.10845
949.87         91.6247
950.26        90.03329
950.65        88.24108
951.04        87.50384
951.43        88.08996
951.82        89.67326
952.21        91.40972
952.60        91.79373
952.99        90.46863
953.38         87.9954
953.77        85.56223
954.16        84.72536
954.55        85.77782
954.94        88.38996
955.33        91.51681
955.72         92.8761
956.11        91.68472
956.50        88.72977
956.89        85.56871
957.28        84.23604
957.66        85.18264
958.05        87.73993
958.44        90.90974
958.83         92.6584
959.22        92.25843
959.61        90.43452
960.00        88.21083
960.39        86.86521
960.78        86.65149
961.16        87.19555
961.55          87.949
961.94        88.05288
962.33        87.25355
962.72        86.03854
963.11        84.84221
963.49        84.17342
963.88        84.16835
964.27        84.59306
964.66        85.42963
965.04        86.72432
965.43        88.25214
965.82        90.00343
966.21        91.54868
966.60        92.12008
966.98        91.58339
967.37         90.2646
967.76        88.67352
968.15        87.50784
968.53        86.92451
968.92        86.66706
969.31        86.78619
969.69         87.3793
970.08        88.28753
970.47        89.64103
970.86        90.79124
971.24        90.63027
971.63        88.96274
972.02        86.18324
972.40        83.42274
972.79         82.4817
973.17        83.64958
973.56        86.28889
973.95        89.38416
974.33        90.99868
974.72        90.44522
975.11        88.40305
975.49        85.84351
975.88        84.55628
976.26        85.00053
976.65         86.5438
977.04         88.6199
977.42        90.19762
977.81        90.68474
978.19        90.53376
978.58        89.94388
978.96        89.10773
979.35        88.25541
979.74         87.3604
980.12        86.72856
980.51        86.85013
980.89        87.89937
981.28        89.55173
981.66        91.75797
982.05        94.05316
982.43        96.31523
982.82        98.52467
983.20        100.0723
983.59        99.81542
983.97        97.70164
984.35        94.11597
984.74        90.58447
985.12        89.20609
985.51        90.29576
985.89        93.38663
986.28        96.92605
986.66        98.63696
987.04        97.69292
987.43        94.78408
987.81        91.14379
988.20        89.19216
988.58        89.61058
988.96        91.70908
989.35        94.09365
989.73         94.7515
990.12        93.09776
990.50        89.98322
990.88        86.48565
991.27        84.31666
991.65        83.94136
992.03        84.81402
992.42        86.45602
992.80        88.47464
993.18        90.51335
993.56        92.74037
993.95        94.68757
994.33        95.64777
994.71        95.32691
995.10        93.98544
995.48        92.22975
995.86        91.10754
996.24        90.90634
996.63        91.24992
997.01        92.17007
997.39        93.37809
997.77        94.63225
998.15        96.05434
998.54        97.12598
998.92        97.05177
999.30        95.71958
999.68        93.26737
1000.06        90.61597
1000.45        89.52848
1000.83        90.62875
1001.21         93.4241
1001.59        96.82645
1001.97        98.99388
1002.35        99.35877
1002.73        98.41135
1003.12        96.81123
1003.50         95.5338
1003.88        94.95221
1004.26        94.78212
1004.64        94.76083
1005.02        94.49677
1005.40        93.92972
1005.78        93.30296
1006.16        92.91248
1006.54        93.10907
1006.92        93.94408
1007.30        95.29253
1007.69        96.78807
1008.07        97.88108
1008.45        98.19878
1008.83        97.88804
1009.21        97.20438
1009.59        96.65799
1009.97        96.43131
1010.35        96.29758
1010.73        96.32149
1011.11        96.61922
1011.49        97.11628
1011.86        97.87661
1012.24        98.31433
1012.62        97.65952
1013.00        95.79627
1013.38        92.92403
1013.76        89.74152
1014.14          87.839
1014.52        87.82237
1014.90        89.18124
1015.28        91.24756
1015.66         92.9176
1016.04        93.77426
1016.41        94.30641
1016.79        93.96606
1017.17        92.07097
1017.55        89.22998
1017.93        86.19326
1018.31        84.15276
1018.69        84.29556
1019.06        86.83485
1019.44        91.68838
1019.82        98.83795
1020.20        105.4691
1020.58        108.5134
1020.95        107.9091
1021.33         105.098
1021.71        101.7594
1022.09        98.06287
1022.46        93.02463
1022.84         86.8241
1023.22        81.27405
1023.60        78.39226
1023.97        78.43377
1024.35        80.11155
1024.73        81.62535
