SpectraSmart Spectrum 2.9.0.0
--------- Device Information -----------
Spectrum Name :  反射率_0
Saving Time :  2024/04/30 00:44:14
Spectro-Module Model Name : SE2030-DUVN
Spectro-Module Serial Number : OS361AC55029948
Wavelength Start : 200
Wavelength End : 1025
Wavelength Unit : Wavelength(nm)
Spectrum Unit : Reflectance(%)
-----------Spectrum Setting ------------
Integration Time : 20ms
Average : 10
Boxcar : 0
Background removal :  enabled
linearity correction :  enabled
SC :  disabled
Intensity correction :  disabled
DWT denoise :  enabled
savitzky-golay :  disabled
FFT :  disabled
Running average :  disabled
Kalman :  disabled
High pass :  disabled
---------------BEGIN--------------------
Wavelength(nm)             Reflectance(%)
200.29               0
200.75        67.40482
201.21        54.89465
201.67        40.56342
202.13        27.82354
202.58         18.5723
203.04        12.25545
203.50        10.66399
203.96        17.05223
204.42        31.37132
204.88        51.78826
205.34         70.2867
205.80        75.47655
206.26        68.55582
206.72         56.7095
207.18          45.318
207.64        37.37553
208.10        32.19968
208.55        27.95738
209.01        24.92961
209.47        24.93038
209.93        27.76938
210.39        32.51031
210.85        36.43398
211.31        37.09614
211.77        34.22813
212.23        27.17972
212.69         17.3614
213.14        13.73342
213.60        19.95691
214.06        30.88165
214.52        39.76119
214.98        42.20549
215.44        39.18141
215.90        32.66757
216.36        25.18647
216.81        21.60052
217.27        24.68325
217.73        34.06945
218.19        49.87299
218.65        65.83677
219.11        74.37226
219.57          75.466
220.02        72.57543
220.48        69.71228
220.94        66.94122
221.40        62.84711
221.86        56.23548
222.32        47.85129
222.77        40.92545
223.23        37.27542
223.69        35.60266
224.15          34.186
224.61        32.48131
225.06        30.47236
225.52        28.99124
225.98        29.42155
226.44        31.65483
226.90        34.50865
227.36        36.71923
227.81        37.57733
228.27        37.25296
228.73        35.91074
229.19         34.3751
229.65        34.28042
230.10         35.7295
230.56        37.84599
231.02        39.31874
231.48          38.952
231.93        36.77892
232.39        33.32623
232.85        29.56395
233.31        27.40669
233.77        27.51142
234.22        29.47245
234.68        32.20225
235.14        33.60525
235.60        33.09463
236.05        31.38848
236.51        29.70664
236.97        29.65886
237.43        31.71578
237.88        35.76289
238.34        41.29931
238.80        46.32224
239.26        48.92538
239.71        49.35025
240.17        48.19827
240.63        46.86591
241.08          45.828
241.54        44.41184
242.00        42.97578
242.46        43.74454
242.91         48.7128
243.37        56.92746
243.83         65.0416
244.28        70.58706
244.74        73.68503
245.20        74.44949
245.66        73.33041
246.11        71.79633
246.57         70.7484
247.03        70.39452
247.48         69.6622
247.94        66.30804
248.40        61.75974
248.85        57.75707
249.31        56.01548
249.77        56.86751
250.22        60.36445
250.68        67.23318
251.14        77.66438
251.59        84.29591
252.05        81.09174
252.51        73.60648
252.96        66.97758
253.42        63.12965
253.88        60.71246
254.33        58.46099
254.79        56.44088
255.25        54.70539
255.70        53.42357
256.16        52.99478
256.62        52.71338
257.07        51.93166
257.53        50.92306
257.99        49.62266
258.44        48.28968
258.90        47.92573
259.35        48.11896
259.81        48.68668
260.27           48.98
260.72        48.49348
261.18        47.46528
261.63        45.94406
262.09        44.43846
262.55        43.32823
263.00        42.60892
263.46        42.25223
263.91        41.80869
264.37        40.97739
264.83         39.6982
265.28        38.08552
265.74        36.61954
266.19        35.82891
266.65          35.832
267.11        36.35248
267.56        36.93114
268.02        36.91771
268.47        36.16898
268.93        34.89873
269.38        33.42166
269.84        32.39486
270.30        31.98994
270.75        32.00216
271.21        32.13509
271.66        31.95006
272.12        31.34689
272.57        30.45815
273.03        29.51073
273.48        28.76924
273.94        28.35598
274.39        28.13242
274.85         27.9757
275.31        27.66476
275.76        27.14651
276.22         26.5215
276.67        25.89183
277.13        25.47611
277.58        25.25328
278.04        25.16321
278.49        25.02381
278.95        24.65746
279.40        24.01279
279.86        23.25213
280.31        22.46391
280.77        21.87828
281.22        21.51989
281.68         21.3354
282.13        21.29223
282.59        21.38209
283.04         21.5484
283.50        21.76723
283.95        21.92347
284.41        21.84277
284.86        21.50111
285.32        21.00283
285.77        20.42937
286.22        19.96238
286.68        19.66307
287.13        19.45313
287.59        19.36745
288.04        19.40329
288.50        19.54859
288.95        19.77624
289.41        19.99408
289.86         20.0315
290.32        19.88685
290.77        19.60767
291.22        19.31338
291.68        19.19697
292.13        19.29723
292.59        19.56822
293.04        19.96263
293.50        20.43002
293.95        20.94075
294.40        21.51463
294.86        22.09417
295.31        22.60555
295.77        23.02834
296.22         23.3629
296.68        23.68508
297.13        24.09819
297.58        24.63062
298.04        25.22548
298.49        25.80694
298.95        26.24699
299.40        26.51901
299.85        26.67012
300.31        26.77285
300.76        26.88624
301.21        27.05781
301.67        27.27046
302.12        27.48338
302.58        27.77211
303.03        28.12645
303.48        28.39364
303.94         28.5283
304.39        29.20982
304.84         29.1787
305.30        29.44355
305.75        29.62978
306.20        29.80417
306.66        29.97153
307.11        30.11772
307.57        30.24686
308.02         30.2956
308.47        30.27229
308.93        30.20398
309.38        30.11197
309.83        30.07526
310.29        30.10688
310.74         30.1779
311.19        30.23907
311.65        30.20807
312.10        30.06445
312.55        29.83621
313.00        29.57857
313.46        29.37566
313.91        29.23792
314.36        29.14511
314.82         29.0528
315.27        28.90948
315.72        28.69324
316.18        28.43411
316.63        28.15359
317.08        27.89386
317.53        27.67454
317.99        27.49279
318.44        27.33607
318.89        27.18846
319.35        27.04331
319.80         26.9003
320.25        26.78341
320.70        26.73166
321.16          26.734
321.61        26.78314
322.06        26.80521
322.51        26.69045
322.97         26.4169
323.42        26.02564
323.87        25.59496
324.32        25.25321
324.78        25.02618
325.23        24.89017
325.68        24.78957
326.13        24.63146
326.59        24.38709
327.04        24.10599
327.49        23.81518
327.94         23.5644
328.39        23.36515
328.85        23.17957
329.30        23.02328
329.75         22.8933
330.20        22.78514
330.66        22.70523
331.11        22.61185
331.56         22.4146
332.01         22.1014
332.46        21.69055
332.92        21.27489
333.37        21.04395
333.82        21.03849
334.27        21.20863
334.72        21.42825
335.17        21.48074
335.63        21.30504
336.08        20.97244
336.53        20.57552
336.98        20.28679
337.43         20.1641
337.88        20.14825
338.34        20.19332
338.79        20.25057
339.24        20.28446
339.69        20.32069
340.14        20.33061
340.59        20.26261
341.05        20.11392
341.50        19.88944
341.95        19.65176
342.40        19.51072
342.85        19.48571
343.30        19.54348
343.75        19.60789
344.20        19.55452
344.66        19.36656
345.11         19.0839
345.56        18.77517
346.01        18.54583
346.46        18.43245
346.91        18.40186
347.36        18.43039
347.81        18.48486
348.26        18.54455
348.72        18.61286
349.17        18.67141
349.62         18.6902
350.07        18.66105
350.52        18.59077
350.97        18.48672
351.42        18.36339
351.87        18.23491
352.32        18.10803
352.77        18.00842
353.22        17.97421
353.67         18.0106
354.13        18.10106
354.58        18.21919
355.03        18.32284
355.48        18.39002
355.93        18.42315
356.38         18.4118
356.83        18.34461
357.28        18.22602
357.73         18.0639
358.18        17.88253
358.63        17.72137
359.08        17.59394
359.53        17.49434
359.98        17.41782
360.43        17.35277
360.88        17.29213
361.33        17.23797
361.78        17.18229
362.23        17.11111
362.68        17.02372
363.13         16.9269
363.58        16.82596
364.03        16.73125
364.48         16.6464
364.93        16.56415
365.38        16.49855
365.83        16.47221
366.28         16.4842
366.73        16.52782
367.18         16.5604
367.63        16.51491
368.08        16.38007
368.53        16.17518
368.98        15.95889
369.43        15.82641
369.88        15.80339
370.33        15.86781
370.78        15.95973
371.23        15.98002
371.68        15.90081
372.13        15.74372
372.58        15.57234
373.03           15.49
373.48        15.51406
373.93        15.60667
374.38         15.6818
374.83         15.6025
375.28        15.34798
375.72         14.9746
376.17        14.59307
376.62        14.32703
377.07        14.20589
377.52        14.18618
377.97        14.22925
378.42        14.27041
378.87        14.28361
379.32        14.29121
379.77        14.28439
380.22        14.24974
380.67        14.18506
381.11         14.0779
381.56        13.96304
382.01        13.90022
382.46        13.90252
382.91        13.96355
383.36        14.01805
383.81         13.9637
384.26        13.78804
384.71        13.52154
385.15        13.26254
385.60        13.18713
386.05        13.31295
386.50        13.58248
386.95        13.86281
387.40        13.94667
387.85        13.79753
388.29        13.48242
388.74        13.15057
389.19         12.9605
389.64        12.94371
390.09         13.0395
390.54        13.17654
390.98        13.23627
391.43        13.19158
391.88        13.09356
392.33        12.97469
392.78        12.88826
393.23        12.84899
393.67        12.79891
394.12        12.75946
394.57        12.85008
395.02        12.87915
395.47         12.9921
395.91        13.08632
396.36        13.07123
396.81        12.93882
397.26        12.72248
397.71        12.49609
398.15        12.36326
398.60        12.35998
399.05        12.42077
399.50        12.49223
399.95         12.5514
400.39        12.51496
400.84        12.40555
401.29        12.23912
401.74        12.12133
402.18         12.0782
402.63        12.05426
403.08        12.05385
403.53         12.0937
403.97        12.16585
404.42        12.26732
404.87        12.35164
405.32        12.34174
405.76        12.22203
406.21        12.01939
406.66        11.80265
407.11        11.68359
407.55         11.6911
408.00        11.79536
408.45        11.92381
408.90        11.94302
409.34        11.82007
409.79        11.60162
410.24        11.38373
410.68        11.30951
411.13        11.40812
411.58        11.62926
412.03        11.87967
412.47        12.00159
412.92        11.94131
413.37        11.76254
413.81        11.53816
414.26        11.39648
414.71        11.35934
415.15        11.38975
415.60        11.45087
416.05        11.50066
416.49        11.51986
416.94        11.52983
417.39        11.52229
417.83        11.47721
418.28        11.40056
418.73        11.29025
419.17         11.1836
419.62        11.14348
420.07        11.17912
420.51        11.26972
420.96        11.36862
421.41         11.3955
421.85        11.33175
422.30        11.21906
422.74        11.09098
423.19        11.01503
423.64        11.00177
424.08        11.03566
424.53        11.09219
424.98        11.15258
425.42        11.20542
425.87        11.24617
426.31        11.26448
426.76        11.26354
427.21         11.2051
427.65        11.11116
428.10        10.99578
428.54        10.86579
428.99         10.7462
429.44         10.7123
429.88        10.73228
430.33        10.62137
430.77        10.44864
431.22         10.5525
431.66        10.89881
432.11        11.08401
432.56        11.04576
433.00         11.0298
433.45        11.02735
433.89        10.78402
434.34        10.43707
434.78        10.39941
435.23        10.61978
435.67        10.68439
436.12        10.57345
436.57        10.52511
437.01        10.55657
437.46        10.58635
437.90        10.61087
438.35        10.64522
438.79        10.67594
439.24         10.6616
439.68         10.6155
440.13        10.59309
440.57         10.5788
441.02        10.55565
441.46        10.52559
441.91        10.41831
442.35        10.28876
442.80        10.43558
443.24        10.76258
443.69        10.75128
444.13        10.42548
444.58        10.26846
445.02        10.28246
445.47        10.20835
445.91         10.0685
446.36        10.03004
446.80        10.09766
447.24        10.22773
447.69        10.37455
448.13        10.46785
448.58         10.4892
449.02        10.46062
449.47        10.41558
449.91        10.40156
450.36        10.43154
450.80        10.48583
451.25        10.54198
451.69        10.56717
452.13        10.54984
452.58         10.5088
453.02        10.45164
453.47        10.38876
453.91        10.32476
454.36        10.28963
454.80        10.23636
455.24        10.20799
455.69        10.19292
456.13        10.18688
456.58        10.19721
457.02        10.22315
457.46        10.26367
457.91        10.31437
458.35        10.35562
458.79        10.36109
459.24        10.33665
459.68        10.29646
460.13        10.26726
460.57        10.24127
461.01        10.30598
461.46        10.34522
461.90        10.38694
462.34        10.53146
462.79        10.72312
463.23        10.73881
463.68         10.5967
464.12        10.52662
464.56        10.54148
465.01        10.52867
465.45        10.48173
465.89        10.43878
466.34        10.41907
466.78        10.46342
467.22        10.57331
467.67        10.57814
468.11        10.47657
468.55        10.33531
468.99        10.20897
469.44        10.15439
469.88        10.18685
470.32        10.29079
470.77         10.4235
471.21          10.528
471.65        10.57855
472.10         10.5987
472.54        10.59919
472.98        10.61183
473.42        10.64478
473.87        10.68119
474.31        10.71789
474.75        10.75287
475.20        10.78703
475.64        10.82154
476.08        10.84633
476.52        10.84139
476.97        10.80719
477.41        10.74871
477.85          10.698
478.29        10.70503
478.74        10.78133
479.18        10.90417
479.62         11.0316
480.06        11.12588
480.50        11.17979
480.95        11.10581
481.39        11.10539
481.83        11.12554
482.27        11.23603
482.72        11.31756
483.16          11.494
483.60        11.58805
484.04         11.6266
484.48        11.63798
484.93        11.65958
485.37        11.72664
485.81        11.74193
486.25        11.97184
486.69        11.35427
487.14        11.58719
487.58        12.22171
488.02        12.51012
488.46        12.51001
488.90        12.84497
489.34        12.33144
489.79        12.33792
490.23        12.47928
490.67        12.70688
491.11        12.93141
491.55        12.98561
491.99        12.91687
492.43         12.9954
492.88        13.22761
493.32        13.40376
493.76        13.50618
494.20        13.64053
494.64        13.81038
495.08        13.97609
495.52        14.11719
495.96        14.24227
496.41        14.35464
496.85        14.37462
497.29        14.33974
497.73        14.56505
498.17        14.82709
498.61        14.89213
499.05          14.745
499.49        14.75018
499.93        14.93833
500.37        15.16498
500.82        15.37278
501.26        15.50664
501.70        15.54777
502.14        15.53571
502.58        15.52172
503.02        15.56871
503.46        15.69517
503.90        15.88465
504.34        16.09187
504.78         16.2384
505.22         16.3019
505.66         16.3032
506.10        16.27435
506.54         16.2856
506.98        16.35658
507.42        16.43236
507.86        16.47731
508.30        16.62237
508.74        16.55565
509.18        16.54073
509.62        16.51587
510.06        16.53122
510.50        16.59631
510.94        16.70016
511.38        16.82363
511.82        16.92662
512.26        16.99514
512.70        17.03648
513.14        17.06396
513.58        17.09904
514.02        17.14799
514.46        17.20535
514.90        17.25468
515.34        17.27107
515.78        17.25114
516.22        17.20374
516.66        17.15862
517.10        17.16071
517.54        17.21675
517.98        17.31125
518.42        17.40508
518.86        17.43496
519.30        17.38704
519.74         17.2829
520.18        17.16062
520.62        17.07842
521.06        17.05328
521.50        17.07005
521.93        17.10718
522.37        17.12369
522.81        17.10917
523.25        17.07476
523.69        17.03837
524.13        17.02606
524.57        17.04155
525.01        17.07292
525.45        17.09605
525.89        17.07522
526.32        17.00075
526.76        16.88847
527.20        16.76515
527.64         16.6718
528.08        16.61802
528.52         16.5939
528.96        16.57449
529.40        16.51985
529.83        16.42165
530.27        16.29587
530.71        16.17099
531.15         16.0932
531.59        16.07088
532.03         16.0867
532.46        16.10913
532.90        16.09353
533.34        16.03029
533.78        15.94085
534.22        15.84639
534.66        15.77779
535.09        15.74344
535.53        15.73561
535.97        15.75349
536.41        15.80206
536.85        15.87357
537.28        15.96202
537.72         16.0412
538.16        16.07253
538.60        16.04948
539.04        15.98927
539.47        15.90832
539.91        15.84936
540.35        15.82329
540.79        15.82739
541.22        15.86862
541.66        15.95938
542.10         16.0938
542.54        16.26441
542.97        16.45214
543.41        16.62646
543.85        16.77719
544.29        16.91344
544.72         17.0245
545.16        17.11028
545.60        17.17441
546.04        17.21178
546.47        17.25797
546.91        17.39658
547.35        17.62344
547.79        17.86209
548.22         18.0691
548.66        18.27358
549.10        18.47145
549.53        18.58124
549.97        18.59735
550.41        18.89488
550.84        18.91732
551.28        19.07631
551.72        19.19948
552.15        19.45172
552.59        19.58515
553.03        19.79432
553.46        19.98413
553.90        20.11366
554.34        20.17371
554.77        20.19932
555.21        20.22245
555.65        20.24067
556.08        20.28463
556.52        20.43646
556.96        20.65718
557.39        20.83673
557.83        20.95269
558.27        21.00814
558.70        21.03875
559.14        21.12687
559.57        21.26461
560.01        21.40842
560.45        21.52789
560.88        21.51778
561.32        21.51238
561.75         21.5329
562.19        21.62249
562.63        21.69433
563.06        21.74717
563.50        21.84243
563.93        21.96818
564.37        22.09635
564.80        22.21393
565.24        22.33206
565.68        22.44007
566.11        22.53662
566.55        22.62303
566.98        22.66856
567.42        22.71574
567.85        22.78917
568.29        22.89832
568.72        23.09319
569.16        23.39223
569.60          23.346
570.03        23.67337
570.47        23.81735
570.90        23.95573
571.34        24.08758
571.77        24.20422
572.21        24.24973
572.64        24.23522
573.08        24.40676
573.51        24.77163
573.95        24.68375
574.38        24.82231
574.82         24.8362
575.25        24.78334
575.69        24.81189
576.12        24.83651
576.56        25.22233
576.99        25.31374
577.42        24.94801
577.86        25.26079
578.29        24.95166
578.73        24.92076
579.16        24.77264
579.60        24.91275
580.03        24.75101
580.47        24.75841
580.90        24.64234
581.33         24.4929
581.77        24.50031
582.20        24.21651
582.64        24.04664
583.07        23.90221
583.51         23.7942
583.94        23.81663
584.37        23.69596
584.81        23.47098
585.24        23.52175
585.68        23.66056
586.11        23.49165
586.54        23.00005
586.98        22.99068
587.41        23.53946
587.85        23.25353
588.28        22.94603
588.71        23.24856
589.15        23.09595
589.58        22.96364
590.01        23.08023
590.45        22.99833
590.88        22.94027
591.31        23.01859
591.75        23.18468
592.18         23.2347
592.61        23.18379
593.05        22.98858
593.48        23.13795
593.91        23.27754
594.35         23.1799
594.78         23.2657
595.21        23.44075
595.65        23.44913
596.08        23.33575
596.51        23.83776
596.94        24.17495
597.38        24.55663
597.81        24.70678
598.24        24.72384
598.68        24.94865
599.11        25.15139
599.54        25.69203
599.97        25.97798
600.41        26.01498
600.84        26.34273
601.27        26.71875
601.70        27.17213
602.14        27.57666
602.57        27.90066
603.00        28.14499
603.43        28.43246
603.87        28.71581
604.30        29.29303
604.73        29.63754
605.16        30.20684
605.60        30.81749
606.03         31.2677
606.46        31.53606
606.89         31.9329
607.32        32.46184
607.76        32.86879
608.19        33.14482
608.62        33.39861
609.05        33.68793
609.48        34.29033
609.92        34.43926
610.35        35.25537
610.78        35.34394
611.21        35.43491
611.64        35.97596
612.07        36.32487
612.50        36.54785
612.94        36.85986
613.37         37.2492
613.80        37.64811
614.23         38.0271
614.66        38.34195
615.09        38.57874
615.52        38.79475
615.96        39.00663
616.39        39.15753
616.82        39.15895
617.25        39.61653
617.68        39.75341
618.11         40.0835
618.54        40.49976
618.97         40.6817
619.40        40.72202
619.84        40.87558
620.27         41.1995
620.70        41.50863
621.13        41.72013
621.56        41.90084
621.99        41.96935
622.42        41.66631
622.85        42.19688
623.28        41.99933
623.71        42.56639
624.14        41.87952
624.57        42.47255
625.00        42.34317
625.43        42.21787
625.86        42.01221
626.29        41.80023
626.72        41.63808
627.15        41.52222
627.58        41.48463
628.01        41.45919
628.44        41.27618
628.87        40.95216
629.30        40.64726
629.73        40.48592
630.16        40.23989
630.59        39.93565
631.02        39.75581
631.45        39.48906
631.88        39.17641
632.31        38.75071
632.74        38.25325
633.17        37.71614
633.60        37.19583
634.03        36.71493
634.46        36.25424
634.89         35.8137
635.32        35.39588
635.75        34.99623
636.18        34.61548
636.61        34.23871
637.04        33.84415
637.47        33.43409
637.89        32.99135
638.32        32.52082
638.75         32.1326
639.18        31.85469
639.61        31.35372
640.04        31.18939
640.47        30.88739
640.90        30.61143
641.33        30.36104
641.76        30.14366
642.18        29.96333
642.61        29.80988
643.04          29.686
643.47        29.60706
643.90        29.58813
644.33        29.62464
644.76        29.74828
645.18        29.90601
645.61        29.93377
646.04        29.80175
646.47        29.85533
646.90        30.06803
647.33        30.26574
647.75        30.45815
648.18        30.51202
648.61        30.93871
649.04        31.25649
649.47        31.61805
649.89        32.03426
650.32        32.49411
650.75        33.00391
651.18        33.53162
651.61        34.01315
652.03        34.45896
652.46        34.98243
652.89        35.56635
653.32        36.05307
653.74        36.44538
654.17        37.03808
654.60        37.08318
655.03        38.29052
655.46        38.05819
655.88        39.31586
656.31        40.53177
656.74        40.68019
657.16         40.3449
657.59        39.88126
658.02        40.60738
658.45        41.97492
658.87        42.93417
659.30        43.05473
659.73        43.63253
660.15        44.03579
660.58        44.34694
661.01        44.68337
661.44        44.98058
661.86        45.07888
662.29         45.0845
662.72        45.52929
663.14        46.31902
663.57        46.58112
664.00        46.36676
664.42        46.44611
664.85        46.86984
665.27        47.19799
665.70        47.38683
666.13        47.59984
666.55        47.83343
666.98        48.02744
667.41        48.19299
667.83        48.35333
668.26        48.50258
668.69        48.64547
669.11        48.79184
669.54        48.92903
669.96        49.05218
670.39          49.297
670.82        49.42459
671.24        49.54177
671.67         49.5875
672.09        49.65636
672.52        49.77757
672.94        49.97613
673.37        49.87422
673.80        50.38606
674.22        50.38132
674.65        50.65932
675.07        50.91645
675.50        51.17213
675.92        51.39845
676.35        51.55559
676.77        51.65432
677.20        51.65886
677.62        51.63012
678.05        51.73952
678.47        51.96895
678.90        52.13354
679.32        52.20764
679.75         52.3019
680.17        52.40677
680.60        52.45456
681.02        52.46805
681.45        52.53201
681.87        52.66175
682.30        52.81342
682.72         52.9881
683.15        53.15575
683.57         53.3243
684.00        53.50808
684.42        53.67893
684.85        53.82604
685.27        53.95194
685.70        53.94249
686.12        53.87954
686.54        54.24735
686.97        54.92707
687.39        55.17679
687.82        54.93243
688.24        55.10006
688.66        55.19436
689.09        55.05267
689.51        54.96671
689.94        54.87752
690.36        54.93108
690.78        55.02048
691.21        55.15114
691.63        55.39565
692.06        55.69271
692.48        55.86923
692.90        55.91823
693.33        55.98983
693.75         56.0899
694.17        56.10631
694.60        56.08306
695.02        56.13282
695.44         56.2634
695.87        56.53457
696.29         56.8715
696.71        56.89506
697.14         56.6739
697.56        56.77591
697.98        57.19249
698.41        57.34947
698.83        57.20755
699.25        57.59661
699.68         57.5771
700.10        57.70173
700.52        57.67703
700.94        57.60063
701.37        57.50401
701.79        57.46249
702.21        57.49933
702.64        57.59369
703.06        57.72785
703.48        57.88259
703.90         58.0484
704.33        58.23887
704.75        58.42095
705.17        58.60098
705.59        58.75434
706.01        58.87888
706.44         58.9783
706.86        59.06878
707.28        59.15316
707.70        59.23006
708.12        59.31235
708.55        59.41358
708.97        59.53463
709.39        59.65437
709.81        59.77831
710.23        59.94361
710.66        60.13867
711.08        60.35144
711.50        60.54128
711.92        60.68392
712.34        60.77296
712.76        60.81593
713.19        60.81382
713.61        60.81042
714.03        60.80522
714.45        60.79978
714.87        60.81396
715.29        60.87433
715.71        60.98249
716.13        61.12959
716.56        61.27347
716.98        61.41438
717.40        61.51099
717.82        61.56956
718.24        61.59284
718.66        61.58047
719.08        61.53816
719.50        61.49493
719.92         61.4679
720.34        61.41231
720.76        61.36987
721.19        61.49366
721.61        61.73478
722.03        61.84097
722.45        61.78282
722.87        61.67505
723.29        61.58368
723.71        61.57188
724.13        61.66278
724.55        61.83788
724.97        62.02782
725.39        62.11791
725.81        62.08729
726.23        61.97916
726.65        61.86743
727.07        61.87099
727.49         62.0131
727.91        62.23817
728.33         62.4946
728.75        62.70355
729.17          62.847
729.59        62.91555
730.01        62.86443
730.43        62.78144
730.85        62.75184
731.27        62.08404
731.69        62.27032
732.10        62.24868
732.52        62.44915
732.94        62.83051
733.36         63.3318
733.78        63.74255
734.20        63.97408
734.62        64.18199
735.04        64.35831
735.46        64.18684
735.88        63.82253
736.30        63.80054
736.72        64.10245
737.13        64.32917
737.55        64.31397
737.97        64.04408
738.39        63.64082
738.81        63.31273
739.23         63.2122
739.65        63.61533
740.06        64.27209
740.48        64.51359
740.90        64.25138
741.32        63.83304
741.74        63.45403
742.16        63.28592
742.57        63.41346
742.99        63.80049
743.41        64.29733
743.83        64.56602
744.25        64.58226
744.67        64.61814
745.08        64.72314
745.50        64.78261
745.92        64.81657
746.34        64.88476
746.75        64.99012
747.17        65.06037
747.59         65.0814
748.01         65.1972
748.42        65.34858
748.84        65.14625
749.26        64.72771
749.68        64.69582
750.09        65.00059
750.51        65.17786
750.93         65.1408
751.35        64.98112
751.76        64.77917
752.18        64.71995
752.60        64.82818
753.01        64.97691
753.43        65.09373
753.85        65.15781
754.27        65.16443
754.68        65.15176
755.10        65.14073
755.52        65.16978
755.93        65.22521
756.35        65.25198
756.77         65.3411
757.18         65.5498
757.60        65.88905
758.02        66.58731
758.43        67.27618
758.85        66.92503
759.26        65.87803
759.68        64.84581
760.10        65.63747
760.51        65.93351
760.93        66.08439
761.34        66.31011
761.76        66.51272
762.18        66.48917
762.59        66.26389
763.01        65.91994
763.42        65.57937
763.84        65.38251
764.26        65.40668
764.67        65.47046
765.09        65.60875
765.50        66.16379
765.92        66.94467
766.33         67.0677
766.75        66.61819
767.16        66.43684
767.58        66.58578
768.00        66.46529
768.41        66.14702
768.83        66.11391
769.24         66.2962
769.66        66.41588
770.07        66.40845
770.49        66.14594
770.90         65.7886
771.32        66.02869
771.73        66.75591
772.15        67.01526
772.56        66.74876
772.97        66.68816
773.39        66.48483
773.80        66.62611
774.22        66.94334
774.63        67.32024
775.05        67.59995
775.46        67.77042
775.88        67.76543
776.29        67.57123
776.70        67.27754
777.12        67.10397
777.53        67.10719
777.95        67.20555
778.36        67.36192
778.77        67.49349
779.19        67.57141
779.60        67.69267
780.02        67.80276
780.43        67.83662
780.84        67.84261
781.26          67.773
781.67          67.696
782.09        68.11055
782.50          68.847
782.91        68.43832
783.33        67.90707
783.74        67.44649
784.15        67.38732
784.57        67.20956
784.98        67.00391
785.39        66.93251
785.81        66.95892
786.22        67.89397
786.63         68.1926
787.04        68.53561
787.46        68.54607
787.87        68.77579
788.28        69.20544
788.70        69.38197
789.11        69.31411
789.52        69.34492
789.93        69.43195
790.35        69.29134
790.76        68.98779
791.17        68.72639
791.58        68.65804
792.00        68.93295
792.41        69.41937
792.82        69.98694
793.23         70.0466
793.65        69.81494
794.06        69.37642
794.47        69.50889
794.88        70.07767
795.29        70.18032
795.71        69.76801
796.12        69.43742
796.53        69.31413
796.94        69.32589
797.35        69.50507
797.76        69.87325
798.18        70.30331
798.59         70.6244
799.00        70.76139
799.41        70.75809
799.82        70.65314
800.23        70.52861
800.64        70.42448
801.06        70.29132
801.47        70.20202
801.88        70.20881
802.29        70.30962
802.70        70.47216
803.11        70.64747
803.52        70.74518
803.93        70.75626
804.34        70.72658
804.75        70.62096
805.17        70.50804
805.58         70.4759
805.99        70.09656
806.40        69.56563
806.81        70.20918
807.22        71.71117
807.63        71.35023
808.04        70.49021
808.45        70.09675
808.86        70.67477
809.27        71.04185
809.68        71.06354
810.09        71.08079
810.50        71.06033
810.91         70.9007
811.32         70.7271
811.73        70.77584
812.14        71.06805
812.55        71.49517
812.96        71.89664
813.37        72.02824
813.78        71.82343
814.19        71.36572
814.60        70.83584
815.01         70.5004
815.42        70.42262
815.83        70.52142
816.24        70.73856
816.65        70.95691
817.05        71.11159
817.46        71.19923
817.87        71.22926
818.28        71.15749
818.69        70.99249
819.10        70.74863
819.51        70.48242
819.92        70.31426
820.33        70.28807
820.74          70.365
821.14        70.54357
821.55        70.82243
821.96        71.17326
822.37        71.60624
822.78        71.99788
823.19        72.12683
823.60        71.93616
824.00        71.46896
824.41        70.92355
824.82        70.65178
825.23         70.7326
825.64        71.09634
826.04        71.53629
826.45        71.60252
826.86          71.221
827.27        70.54182
827.68        69.85455
828.08        69.63346
828.49        69.94754
828.90        70.67895
829.31        71.59948
829.72        72.31528
830.12        72.70811
830.53        72.79881
830.94        72.74024
831.35        72.75394
831.75         72.9275
832.16        73.11089
832.57        73.22433
832.97        73.11237
833.38        72.75696
833.79         72.2878
834.20        71.80762
834.60        71.42319
835.01        71.20687
835.42        71.10667
835.82        71.18241
836.23        71.46352
836.64        71.94743
837.04        72.63541
837.45        73.28321
837.86        73.64297
838.26        73.63557
838.67        73.32544
839.08        72.86525
839.48        72.48534
839.89        72.30585
840.29        72.26849
840.70        72.33732
841.11        72.46458
841.51        72.64999
841.92        72.87994
842.33        73.16853
842.73        73.51105
843.14        73.83451
843.54        74.14578
843.95        74.39246
844.35        74.56747
844.76        74.63635
845.17        74.57938
845.57        74.43294
845.98        74.22836
846.38        74.00502
846.79        73.77657
847.19        73.48891
847.60        72.99908
848.00        72.34188
848.41        71.60036
848.81        71.00969
849.22        70.90427
849.62        71.36879
850.03        72.25215
850.43        73.34247
850.84        74.05676
851.24        74.25907
851.65        73.98087
852.05        73.45177
852.46        73.02032
852.86        72.79472
853.27        72.75002
853.67        72.67447
854.07        72.45936
854.48        72.03259
854.88        71.46714
855.29        70.88194
855.69        70.71372
856.10        70.98619
856.50        71.67085
856.90         72.3819
857.31        72.58366
857.71        72.21272
858.12        71.37733
858.52        70.46355
858.92         70.0743
859.33        70.35362
859.73        71.16608
860.13        72.14946
860.54        72.71692
860.94        72.74548
861.34        72.32909
861.75        71.69127
862.15        71.27496
862.55        71.18447
862.96        71.30222
863.36        71.39806
863.76        71.14034
864.17        70.50326
864.57         69.6673
864.97         68.8816
865.38        68.45866
865.78        68.50799
866.18        68.89777
866.58        69.54704
866.99        70.25854
867.39        70.94368
867.79        71.59378
868.19        72.04374
868.60        72.06161
869.00        71.64116
869.40        70.82655
869.80         69.9554
870.21        69.61713
870.61        69.99828
871.01        70.90833
871.41        71.91486
871.81        72.31493
872.22        71.93549
872.62        70.98921
873.02        69.86652
873.42        69.21829
873.82        69.23643
874.22        69.74072
874.63        70.39632
875.03        70.68903
875.43         70.4917
875.83        69.98774
876.23        69.56744
876.63        69.59478
877.03        70.11486
877.44          71.396
877.84        73.21937
878.24        72.43347
878.64        73.15696
879.04        72.23907
879.44        71.23734
879.84        70.46239
880.24        70.07544
880.64        69.89944
881.04        69.92513
881.44        70.24894
881.84        70.83086
882.24        71.67828
882.65        72.50984
883.05        72.94948
883.45        72.83882
883.85        72.29837
884.25        71.64992
884.65        71.41054
885.05        71.68669
885.45        72.29027
885.85        73.01604
886.25        73.50636
886.65        73.62476
887.05        73.51627
887.45         73.1587
887.85        72.52057
888.25        71.70294
888.65         70.7643
889.04        69.96829
889.44        69.74617
889.84        70.09843
890.24        70.94296
890.64        71.99399
891.04        72.62787
891.44        72.62849
891.84        72.19554
892.24        71.63441
892.64         71.3772
893.04         71.5168
893.44        71.89205
893.83        72.43208
894.23        72.93626
894.63        73.33484
895.03        73.69292
895.43        73.93336
895.83        73.93161
896.23        73.68199
896.63        73.18605
897.02        72.61931
897.42        72.34766
897.82        72.43456
898.22        72.83574
898.62        73.27991
899.01        73.30975
899.41        72.82507
899.81        71.97758
900.21        71.15272
900.61        70.94397
901.00        71.45246
901.40        72.47718
901.80        73.56776
902.20        73.98678
902.59        73.55717
902.99        72.53236
903.39        71.33701
903.79        70.60533
904.18        70.50103
904.58        70.84544
904.98        71.38594
905.38        71.74432
905.77        71.78034
906.17        71.61699
906.57        71.38667
906.96        71.31438
907.36        71.42674
907.76        71.67078
908.15        71.89065
908.55        71.72754
908.95        71.19917
909.34        70.43043
909.74        69.81232
910.14        69.79679
910.53        70.49516
910.93         71.6963
911.33        73.13269
911.72        74.39122
912.12        75.22154
912.52        75.72742
912.91        75.96149
913.31        76.01635
913.70        75.95432
914.10        75.71146
914.49        75.29333
914.89         74.7047
915.29        74.00562
915.68        73.26746
916.08        72.65703
916.47        72.27511
916.87        72.19559
917.26        72.34112
917.66        72.66683
918.05        73.11385
918.45        73.57357
918.84        74.09058
919.24        74.46949
919.64        74.54326
920.03         74.2896
920.42        73.73458
920.82        73.11716
921.21        72.71149
921.61        72.61035
922.00        72.77702
922.40        73.07216
922.79        73.33141
923.19        73.46042
923.58        73.52119
923.98         73.5863
924.37        73.78522
924.77        74.11641
925.16        74.50712
925.55        74.82276
925.95         74.8613
926.34        74.60484
926.74        74.13138
927.13         73.5509
927.52        73.00097
927.92        72.55972
928.31        72.18053
928.70        71.92752
929.10        71.88031
929.49         72.0271
929.89        72.31412
930.28        72.60703
930.67        72.58994
931.07        72.20248
931.46        71.58141
931.85        70.88764
932.24        70.36684
932.64        70.12071
933.03        70.11068
933.42        70.35813
933.82        70.86977
934.21         71.6142
934.60        72.49599
934.99        73.44514
935.39        74.33038
935.78        75.12193
936.17        75.79164
936.56         76.0521
936.96         75.5153
937.35         74.2218
937.74        72.40695
938.13        70.69876
938.53        69.87717
938.92        70.03368
939.31        71.02137
939.70        72.36202
940.09        73.10854
940.49        72.92934
940.88        72.08605
941.27        71.06684
941.66        70.61526
942.05        70.89682
942.44        71.71859
942.84        72.58596
943.23         72.7085
943.62        71.85514
944.01        70.33139
944.40         68.8511
944.79        68.43824
945.18        69.27245
945.57        71.02618
945.97        72.93042
946.36        73.87898
946.75        73.43331
947.14        71.99104
947.53        70.22636
947.92        69.14801
948.31        69.05186
948.70        69.66782
949.09        70.62956
949.48        71.27917
949.87        71.37668
950.26        71.12455
950.65        70.84219
951.04        70.95707
951.43        71.56422
951.82        72.53943
952.21        73.48953
952.60        73.74418
952.99         73.1343
953.38         71.8665
953.77        70.57989
954.16        70.11633
954.55        70.62771
954.94        71.99367
955.33        73.50999
955.72        73.68883
956.11        72.13335
956.50        69.41507
956.89        66.79922
957.28        65.90561
957.66        67.06483
958.05         69.7917
958.44        73.11472
958.83        75.01032
959.22        74.75662
959.61        72.99144
960.00        70.84814
960.39        69.81152
960.78         70.1674
961.16        71.51482
961.55        73.09011
961.94        73.49686
962.33        72.32312
962.72        70.21362
963.11        68.03032
963.49        66.87986
963.88        66.99627
964.27        68.00366
964.66        69.51285
965.04        70.89995
965.43        71.77594
965.82        72.32188
966.21        72.55418
966.60        72.49809
966.98        72.23608
967.37        71.78274
967.76        71.21646
968.15        70.65575
968.53        70.13904
968.92        69.62094
969.31        69.34177
969.69        69.73133
970.08        70.79964
970.47        72.51759
970.86        74.20956
971.24        74.72043
971.63        73.77887
972.02        71.78281
972.40        69.68017
972.79        68.99466
973.17        70.01086
973.56        72.15736
973.95        74.68427
974.33        76.14151
974.72        75.96894
975.11        74.68337
975.49        72.94544
975.88        72.04434
976.26        72.29005
976.65        73.22334
977.04        74.45041
977.42        75.27565
977.81        75.29055
978.19        74.84523
978.58        74.14742
978.96        73.39092
979.35        72.75758
979.74        72.20444
980.12        71.89806
980.51        72.08756
980.89        72.86539
981.28        73.99536
981.66        75.46872
982.05         76.9608
982.43          78.411
982.82        79.78582
983.20        80.67143
983.59        80.29388
983.97        78.63683
984.35        76.00274
984.74        73.46645
985.12        72.49451
985.51        73.28745
985.89        75.54045
986.28        78.14586
986.66        79.58415
987.04        79.21854
987.43        77.52084
987.81        75.23237
988.20        73.94849
988.58        74.07362
988.96        75.19341
989.35        76.33197
989.73        76.16033
990.12        74.33496
990.50         71.4818
990.88        68.50823
991.27        66.83714
991.65        66.81513
992.03        68.02164
992.42        69.94183
992.80        72.11089
993.18        74.16798
993.56        76.23573
993.95        78.01194
994.33        79.07795
994.71        79.21156
995.10        78.57236
995.48        77.46689
995.86        76.48583
996.24        75.83946
996.63        75.29832
997.01        75.18211
997.39        75.79442
997.77        77.07491
998.15         78.9378
998.54        80.59848
998.92        80.83815
999.30        79.41084
999.68        76.61359
1000.06        73.38553
1000.45        71.55031
1000.83          71.803
1001.21        73.64144
1001.59        76.27843
1001.97        78.35029
1002.35        79.36024
1002.73        79.69786
1003.12        79.52547
1003.50        79.01172
1003.88        78.35712
1004.26        77.48344
1004.64        76.62016
1005.02         76.2504
1005.40        76.45537
1005.78        77.05746
1006.16        77.88487
1006.54        78.66954
1006.92        79.30859
1007.30        79.91079
1007.69        80.16703
1008.07        79.61195
1008.45        78.14067
1008.83        75.96622
1009.21        73.82832
1009.59        72.97189
1009.97        73.67165
1010.35        75.45682
1010.73        77.82141
1011.11         79.8658
1011.49        81.19639
1011.86        82.18484
1012.24        82.30667
1012.62        80.97086
1013.00        78.14933
1013.38        73.76224
1013.76        69.11247
1014.14        67.03822
1014.52        68.51782
1014.90        72.98894
1015.28        78.12109
1015.66        80.12982
1016.04         78.1376
1016.41        73.24388
1016.79        67.43979
1017.17         64.8459
1017.55        66.41755
1017.93        70.07925
1018.31        74.14825
1018.69        77.47124
1019.06        80.21184
1019.44        83.01749
1019.82        85.91206
1020.20        87.64982
1020.58        87.25417
1020.95        84.81072
1021.33        81.71182
1021.71        79.24509
1022.09        77.41125
1022.46        75.77534
1022.84        74.46419
1023.22        73.26829
1023.60        72.49347
1023.97        72.45735
1024.35        72.98244
1024.73        73.77829
