SpectraSmart Spectrum 2.9.0.0
--------- Device Information -----------
Spectrum Name :  反射率_0
Saving Time :  2024/04/30 00:45:59
Spectro-Module Model Name : SE2030-DUVN
Spectro-Module Serial Number : OS361AC55029948
Wavelength Start : 200
Wavelength End : 1025
Wavelength Unit : Wavelength(nm)
Spectrum Unit : Reflectance(%)
-----------Spectrum Setting ------------
Integration Time : 20ms
Average : 10
Boxcar : 0
Background removal :  enabled
linearity correction :  enabled
SC :  disabled
Intensity correction :  disabled
DWT denoise :  enabled
savitzky-golay :  disabled
FFT :  disabled
Running average :  disabled
Kalman :  disabled
High pass :  disabled
---------------BEGIN--------------------
Wavelength(nm)             Reflectance(%)
200.29               0
200.75        60.18692
201.21        41.99773
201.67        22.14731
202.13        7.196392
202.58       0.3013974
203.04        1.365135
203.50        8.895658
203.96        18.32784
204.42        26.70537
204.88        34.10826
205.34        40.42873
205.80        45.63119
206.26        49.07711
206.72        50.45459
207.18        49.46967
207.64        45.75692
208.10        39.61436
208.55        31.24979
209.01         22.5661
209.47        19.11083
209.93        22.16417
210.39        29.07746
210.85        35.73724
211.31        38.82364
211.77        38.24794
212.23        34.19767
212.69        28.43411
213.14        28.64171
213.60        36.59776
214.06        47.22547
214.52        54.92582
214.98        56.41875
215.44        52.76877
215.90        45.64896
216.36        37.52702
216.81        33.22546
217.27        35.39099
217.73         43.6485
218.19        57.95742
218.65        72.11729
219.11        79.07395
219.57        79.23302
220.02        75.71358
220.48        71.89093
220.94        67.60619
221.40        61.37506
221.86        52.46568
222.32        43.57519
222.77        38.43377
223.23        37.34779
223.69        37.95035
224.15        38.24647
224.61        37.98539
225.06        37.46006
225.52        37.45992
225.98        38.92646
226.44        41.47481
226.90        44.06603
227.36        45.89925
227.81        46.62598
228.27        46.47152
228.73        45.57179
229.19        44.43064
229.65        44.07655
230.10        44.65501
230.56        45.72092
231.02         46.5143
231.48        46.35239
231.93        45.20892
232.39        43.43029
232.85        41.50426
233.31        40.44014
233.77        40.57121
234.22        41.69139
234.68        43.17682
235.14        43.88121
235.60        43.50625
236.05        42.45572
236.51        41.44233
236.97        41.35511
237.43        42.43759
237.88        44.64639
238.34        47.64453
238.80        50.55788
239.26         52.3833
239.71        53.26471
240.17        53.06765
240.63        52.03349
241.08        50.20876
241.54        46.76193
242.00        41.96339
242.46        39.80561
242.91        44.90216
243.37        56.38836
243.83        68.53493
244.28        76.32192
244.74        79.53739
245.20        78.48474
245.66        74.70822
246.11        72.33678
246.57        73.46652
247.03        77.96411
247.48        81.71272
247.94        76.54197
248.40        64.86738
248.85        52.84714
249.31        45.40564
249.77        44.10965
250.22        48.46078
250.68        59.17219
251.14        76.39308
251.59         87.5062
252.05        82.43661
252.51         70.6802
252.96         61.0505
253.42        56.75573
253.88        56.02796
254.33        56.96713
254.79        58.84796
255.25        59.70103
255.70        58.96826
256.16        58.03799
256.62         57.2935
257.07        56.85245
257.53        56.94796
257.99        57.21019
258.44        57.13734
258.90        56.78218
259.35        55.87708
259.81        54.93174
260.27        54.11013
260.72        53.57478
261.18        53.40312
261.63        53.23974
262.09         52.9436
262.55        52.04855
263.00        50.59539
263.46        49.03083
263.91        47.52217
264.37        46.51419
264.83        45.93176
265.28          45.562
265.74        45.37917
266.19        45.13034
266.65        44.81478
267.11        44.45592
267.56        44.03778
268.02        43.53287
268.47         42.9115
268.93        42.17376
269.38        41.33614
269.84        40.56107
270.30        39.87885
270.75        39.27014
271.21        38.67976
271.66        37.97161
272.12         37.1316
272.57        36.19893
273.03         35.2772
273.48        34.44616
273.94        33.79996
274.39        33.26489
274.85        32.87141
275.31        32.58628
275.76        32.35481
276.22        32.19068
276.67        31.99783
277.13        31.73452
277.58        31.34751
278.04        30.90297
278.49        30.39206
278.95        29.90164
279.40         29.4147
279.86        28.98633
280.31        28.58824
280.77        28.29577
281.22        28.07026
281.68        27.91858
282.13        27.80672
282.59        27.73901
283.04        27.67444
283.50        27.60194
283.95        27.45671
284.41        27.16019
284.86        26.70749
285.32        26.18955
285.77        25.64686
286.22        25.20369
286.68        24.90612
287.13         24.6893
287.59        24.59701
288.04        24.63412
288.50        24.79078
288.95        25.01752
289.41         25.2319
289.86        25.27115
290.32        25.13867
290.77        24.88813
291.22        24.60678
291.68        24.43595
292.13        24.41175
292.59        24.50781
293.04        24.75537
293.50        25.22708
293.95        25.90381
294.40        26.77032
294.86        27.65522
295.31        28.30072
295.77        28.65145
296.22        28.76634
296.68        28.84985
297.13        29.20807
297.58        29.91531
298.04        30.84607
298.49        31.81262
298.95        32.51849
299.40        32.89305
299.85        33.04741
300.31        33.12814
300.76        33.29556
301.21        33.62983
301.67        34.07949
302.12        34.56849
302.58        35.12854
303.03        35.72395
303.48        36.22857
303.94         36.6154
304.39        37.49113
304.84        37.74076
305.30        38.24765
305.75        38.63841
306.20        38.92376
306.66        39.11164
307.11         39.2051
307.57        39.27525
308.02        39.34229
308.47        39.43536
308.93        39.55422
309.38        39.66716
309.83        39.77542
310.29        39.87289
310.74        39.95513
311.19        40.00496
311.65        39.98624
312.10        39.89294
312.55        39.74534
313.00        39.59116
313.46        39.50436
313.91        39.49008
314.36        39.52884
314.82        39.58382
315.27        39.61731
315.72        39.59624
316.18        39.53025
316.63        39.40429
317.08        39.20731
317.53        38.95214
317.99        38.66506
318.44        38.35744
318.89        38.05355
319.35        37.76963
319.80        37.49921
320.25        37.30326
320.70        37.27561
321.16        37.40592
321.61         37.6785
322.06        37.93884
322.51        37.93929
322.97        37.62289
323.42        37.06649
323.87        36.43537
324.32        36.00307
324.78        35.83097
325.23        35.86116
325.68        35.96669
326.13        35.93222
326.59        35.68981
327.04        35.32993
327.49         34.9412
327.94         34.6766
328.39        34.57371
328.85        34.55532
329.30        34.58276
329.75        34.53817
330.20        34.38668
330.66        34.17413
331.11        33.92438
331.56        33.64325
332.01        33.34684
332.46        33.01744
332.92        32.71211
333.37        32.57758
333.82        32.62342
334.27         32.8168
334.72        33.01712
335.17        32.98188
335.63        32.65111
336.08        32.11301
336.53        31.50637
336.98        31.09101
337.43        30.94981
337.88        31.00269
338.34        31.16563
338.79        31.32376
339.24        31.41754
339.69        31.48937
340.14        31.51527
340.59        31.45168
341.05        31.30575
341.50        31.08216
341.95        30.85199
342.40        30.74459
342.85        30.78208
343.30         30.9187
343.75        31.08351
344.20        31.15832
344.66        31.11614
345.11        30.99088
345.56        30.79899
346.01        30.56469
346.46        30.31873
346.91        30.06184
347.36        29.85142
347.81        29.77524
348.26        29.83842
348.72        30.00699
349.17        30.20976
349.62        30.31628
350.07        30.28626
350.52        30.16039
350.97        29.97394
351.42        29.78201
351.87         29.6147
352.32        29.46316
352.77        29.35421
353.22        29.33368
353.67        29.40126
354.13         29.5327
354.58        29.69145
355.03        29.81455
355.48        29.87331
355.93        29.88095
356.38        29.81359
356.83        29.64042
357.28         29.3732
357.73        29.02897
358.18        28.68557
358.63        28.46666
359.08        28.39412
359.53        28.42881
359.98        28.49531
360.43        28.46808
360.88        28.31367
361.33        28.07486
361.78        27.79043
362.23         27.5217
362.68        27.29678
363.13        27.10047
363.58        26.94142
364.03        26.83495
364.48         26.7764
364.93        26.75782
365.38         26.7594
365.83        26.74556
366.28        26.70195
366.73        26.63478
367.18        26.53273
367.63         26.3827
368.08         26.1886
368.53        25.95509
368.98        25.72385
369.43        25.56161
369.88        25.48605
370.33        25.48734
370.78        25.51542
371.23        25.48523
371.68        25.37288
372.13        25.19258
372.58        25.00338
373.03        24.90249
373.48        24.90492
373.93        24.97719
374.38        25.03143
374.83        24.92643
375.28        24.64384
375.72        24.23914
376.17        23.83842
376.62        23.57662
377.07        23.48021
377.52        23.49138
377.97        23.56124
378.42        23.60969
378.87          23.602
379.32        23.56765
379.77        23.48507
380.22        23.31812
380.67        23.07327
381.11        22.75973
381.56        22.45552
382.01        22.29346
382.46         22.3046
382.91        22.45283
383.36        22.64871
383.81        22.75188
384.26        22.72555
384.71        22.60276
385.15        22.44069
385.60        22.36069
386.05        22.37373
386.50         22.4373
386.95        22.48432
387.40        22.41556
387.85        22.22145
388.29        21.93935
388.74        21.66686
389.19        21.46391
389.64        21.34543
390.09        21.27959
390.54        21.25651
390.98        21.25684
391.43        21.27543
391.88        21.31763
392.33        21.34071
392.78        21.30528
393.23        21.21175
393.67        21.01868
394.12        20.80813
394.57        20.83907
395.02        20.82028
395.47        20.96417
395.91        21.10078
396.36        21.08373
396.81        20.89392
397.26        20.59367
397.71        20.28432
398.15        20.10288
398.60        20.10292
399.05         20.1876
399.50        20.29635
399.95        20.43474
400.39        20.47367
400.84        20.43207
401.29        20.30727
401.74        20.21977
402.18        20.19221
402.63         20.1493
403.08        20.10924
403.53        20.11905
403.97        20.17728
404.42        20.27608
404.87        20.36042
405.32        20.33814
405.76        20.19116
406.21        19.95747
406.66        19.71647
407.11        19.59562
407.55        19.62966
408.00        19.78114
408.45        19.96938
408.90        20.04509
409.34        19.96518
409.79        19.77187
410.24        19.56749
410.68        19.50644
411.13        19.61931
411.58        19.85502
412.03        20.09905
412.47        20.16079
412.92        19.98526
413.37        19.65536
413.81        19.28975
414.26        19.08811
414.71        19.07919
415.15        19.20686
415.60        19.38464
416.05        19.48795
416.49        19.47682
416.94        19.39912
417.39        19.28702
417.83        19.18568
418.28        19.11893
418.73        19.05828
419.17        19.02618
419.62        19.06519
420.07        19.17133
420.51        19.33195
420.96        19.48237
421.41        19.50721
421.85         19.3868
422.30         19.1826
422.74        18.96455
423.19        18.86787
423.64        18.91112
424.08        19.06124
424.53        19.25651
424.98        19.41784
425.42        19.51363
425.87        19.55252
426.31        19.53701
426.76         19.5029
427.21         19.3974
427.65        19.24688
428.10        19.08023
428.54        18.92066
428.99        18.79937
429.44        18.84226
429.88        18.96559
430.33        18.79049
430.77        18.43697
431.22        18.52817
431.66        19.02371
432.11         19.2737
432.56         19.1888
433.00        19.18622
433.45        19.24347
433.89        18.90996
434.34        18.40016
434.78        18.44027
435.23        18.92809
435.67         19.1004
436.12         18.9176
436.57        18.81335
437.01         18.8347
437.46        18.86486
437.90         18.9091
438.35        18.98945
438.79        19.08153
439.24        19.11633
439.68        19.10982
440.13         19.1545
440.57        19.20808
441.02        19.20771
441.46        19.15318
441.91        18.93345
442.35        18.65226
442.80        18.85593
443.24        19.37376
443.69         19.2689
444.13        18.62956
444.58        18.37728
445.02        18.52095
445.47        18.57561
445.91        18.50939
446.36        18.51255
446.80        18.57306
447.24        18.64384
447.69        18.71634
448.13        18.77705
448.58        18.82144
449.02        18.85007
449.47        18.87173
449.91        18.88785
450.36        18.90397
450.80        18.92099
451.25        18.93026
451.69        18.91319
452.13        18.86806
452.58        18.80898
453.02        18.75819
453.47        18.74751
453.91        18.77735
454.36        18.89179
454.80        18.96362
455.24        19.00774
455.69        18.98883
456.13        18.91903
456.58        18.84379
457.02        18.81665
457.46        18.85249
457.91         18.9298
458.35        19.00661
458.79        19.03028
459.24        19.00247
459.68        18.95417
460.13        18.91664
460.57        18.85242
461.01        18.91632
461.46        18.90783
461.90        18.89233
462.34        19.08365
462.79        19.39063
463.23        19.40162
463.68        19.15072
464.12        19.04769
464.56        19.11165
465.01         19.1388
465.45        19.10629
465.89        19.06647
466.34        19.05187
466.78        19.13832
467.22        19.34001
467.67        19.36655
468.11        19.21851
468.55        19.00653
468.99        18.81169
469.44        18.70982
469.88        18.72694
470.32        18.84904
470.77         19.0122
471.21         19.1249
471.65         19.1544
472.10        19.13564
472.54         19.1106
472.98        19.16332
473.42        19.30657
473.87        19.50219
474.31        19.69554
474.75        19.81234
475.20        19.83989
475.64        19.80055
476.08        19.72858
476.52        19.67109
476.97        19.64627
477.41        19.63742
477.85        19.65204
478.29        19.69967
478.74        19.78374
479.18        19.89107
479.62        19.99056
480.06        20.07957
480.50        20.16208
480.95        20.05831
481.39        20.10798
481.83        20.16628
482.27        20.34794
482.72        20.45981
483.16        20.73438
483.60        20.87065
484.04        20.94663
484.48        20.93699
484.93         20.8805
485.37        20.99823
485.81        21.26061
486.25        21.11454
486.69        20.82305
487.14         21.0939
487.58        21.66133
488.02        21.77941
488.46        22.28646
488.90        22.33963
489.34        21.67538
489.79        22.05486
490.23        22.00052
490.67        22.42511
491.11        22.78258
491.55        22.75497
491.99        22.44309
492.43         22.4624
492.88        22.85847
493.32        23.22178
493.76        23.48484
494.20        23.76137
494.64        24.03616
495.08        24.26554
495.52        24.43173
495.96        24.56989
496.41        24.69491
496.85        24.67697
497.29        24.57662
497.73        24.88307
498.17        25.23087
498.61        25.33302
499.05        25.13346
499.49        25.10732
499.93        25.29678
500.37        25.52805
500.82        25.74891
501.26        25.90673
501.70        25.98471
502.14        26.03654
502.58        26.10351
503.02        26.22005
503.46        26.39844
503.90        26.62789
504.34        26.87279
504.78        27.07023
505.22         27.1996
505.66        27.27403
506.10        27.30331
506.54        27.33648
506.98        27.39216
507.42        27.40313
507.86         27.3556
508.30        27.53823
508.74        27.45131
509.18        27.50606
509.62        27.56237
510.06        27.64514
510.50        27.75145
510.94        27.87905
511.38        28.01498
511.82        28.12407
512.26        28.19649
512.70        28.23823
513.14        28.26036
513.58        28.28237
514.02        28.31145
514.46        28.34315
514.90        28.37335
515.34        28.39577
515.78        28.40876
516.22        28.41516
516.66        28.42078
517.10          28.433
517.54        28.45156
517.98        28.47219
518.42        28.48383
518.86        28.46931
519.30        28.42669
519.74        28.36435
520.18        28.29566
520.62        28.23982
521.06        28.20462
521.50        28.18838
521.93        28.19069
522.37        28.20007
522.81        28.21636
523.25        28.23965
523.69         28.2697
524.13        28.30768
524.57        28.34816
525.01        28.38075
525.45        28.39618
525.89        28.38245
526.32        28.33207
526.76        28.25962
527.20        28.15955
527.64        28.02579
528.08        27.86503
528.52        27.68474
528.96        27.51732
529.40        27.41204
529.83        27.37708
530.27        27.40302
530.71        27.44839
531.15        27.44942
531.59        27.38819
532.03        27.27801
532.46        27.15139
532.90        27.07115
533.34        27.04877
533.78         27.0687
534.22        27.08998
534.66        27.05037
535.09        26.93884
535.53         26.7859
535.97        26.64268
536.41         26.5968
536.85        26.66411
537.28        26.81084
537.72        26.97785
538.16        27.07282
538.60        27.07226
539.04        27.01124
539.47        26.91902
539.91        26.86515
540.35        26.86409
540.79        26.90269
541.22        26.97978
541.66        27.09943
542.10        27.25256
542.54        27.43857
542.97        27.64037
543.41        27.83288
543.85         28.0071
544.29        28.17385
544.72        28.31951
545.16        28.44548
545.60        28.55376
546.04        28.63148
546.47        28.71974
546.91        28.92821
547.35        29.24445
547.79        29.55149
548.22        29.78991
548.66        30.02951
549.10        30.26739
549.53        30.36103
549.97        30.30713
550.41        30.72784
550.84        30.71784
551.28        30.94828
551.72        31.11361
552.15        31.43814
552.59        31.51925
553.03        31.68677
553.46        31.83109
553.90        31.95513
554.34         32.0559
554.77        32.16681
555.21        32.29402
555.65        32.36403
556.08        32.40688
556.52          32.574
556.96        32.83286
557.39        33.05319
557.83        33.21202
558.27        33.29943
558.70        33.35455
559.14         33.4831
559.57        33.66515
560.01        33.84283
560.45        33.98109
560.88        33.93238
561.32        33.91036
561.75        33.93813
562.19        34.06849
562.63        34.14413
563.06        34.15925
563.50         34.2202
563.93        34.31742
564.37        34.42102
564.80        34.51815
565.24        34.62569
565.68        34.72966
566.11        34.83219
566.55        34.93176
566.98        34.97455
567.42        35.02376
567.85        35.10902
568.29        35.23823
568.72        35.50863
569.16        35.93906
569.60        35.75863
570.03        36.05511
570.47        36.18842
570.90        36.24791
571.34        36.21839
571.77        36.47883
572.21        36.65841
572.64        36.81902
573.08        36.98867
573.51        37.21494
573.95        37.14503
574.38        37.29197
574.82        37.53173
575.25        37.51966
575.69        37.48239
576.12        37.18086
576.56        37.28566
576.99        37.43069
577.42         37.4721
577.86        37.24424
578.29        37.18882
578.73        37.35085
579.16        37.15755
579.60         37.2631
580.03        37.26028
580.47        37.16863
580.90        37.10314
581.33        37.03807
581.77        36.84692
582.20        36.51749
582.64        36.60775
583.07        36.38587
583.51        36.26563
583.94        36.14849
584.37        35.95631
584.81        35.79959
585.24        35.94079
585.68        36.05167
586.11         36.2728
586.54        35.54941
586.98        35.48449
587.41        36.10989
587.85        35.87511
588.28        35.56477
588.71         36.1926
589.15        35.63242
589.58        35.51324
590.01         35.4144
590.45        35.35547
590.88        35.44392
591.31        35.69939
591.75         35.9593
592.18        36.05841
592.61        36.04041
593.05        35.49136
593.48        35.66477
593.91        36.36576
594.35        35.58883
594.78        35.66299
595.21        35.89674
595.65        36.10993
596.08        36.13395
596.51        36.45494
596.94        36.99901
597.38        37.34787
597.81        37.41494
598.24        37.57619
598.68        37.64124
599.11        37.69635
599.54        38.41893
599.97        38.78698
600.41        38.38673
600.84        39.07099
601.27         39.2383
601.70        39.83302
602.14         40.3148
602.57        40.57222
603.00        40.64029
603.43        40.91946
603.87         41.1059
604.30        41.82261
604.73        42.15707
605.16        42.34447
605.60        43.08783
606.03        43.46575
606.46        43.71902
606.89        44.01902
607.32        44.35137
607.76        44.65794
608.19        44.92988
608.62        45.15888
609.05        45.42893
609.48         45.8934
609.92        46.41413
610.35        46.87319
610.78        46.98553
611.21        46.61473
611.64        46.87466
612.07        47.12291
612.50        47.60938
612.94        47.98688
613.37        48.42129
613.80        48.25736
614.23        48.89404
614.66        49.09671
615.09         49.2706
615.52        49.42658
615.96        49.55305
616.39        49.70513
616.82        49.63715
617.25        49.78673
617.68        50.13624
618.11        50.36483
618.54        50.48269
618.97         50.6464
619.40        50.85754
619.84        51.04251
620.27        51.23676
620.70          51.374
621.13         51.3787
621.56        51.60262
621.99        51.57856
622.42        51.12217
622.85        51.49242
623.28         51.4731
623.71        51.97469
624.14        51.06968
624.57        51.78525
625.00        51.70779
625.43        51.69691
625.86        51.53107
626.29        51.20213
626.72        51.55515
627.15        51.11214
627.58         51.1329
628.01        51.13811
628.44        50.92789
628.87        50.55931
629.30        50.45903
629.73        50.60641
630.16        50.54116
630.59        50.23087
631.02        50.04875
631.45        49.79977
631.88        49.51724
632.31         49.2883
632.74        49.01666
633.17        48.72586
633.60        48.38624
634.03        48.00367
634.46        47.57308
634.89        47.12255
635.32        46.74278
635.75        46.47206
636.18        46.09663
636.61        46.00307
637.04        45.72042
637.47        45.36802
637.89        44.96507
638.32        44.52372
638.75        44.17426
639.18        43.95338
639.61        43.40347
640.04        43.31694
640.47        43.07203
640.90        42.89951
641.33        42.78739
641.76        42.70628
642.18        42.59393
642.61        42.41806
643.04         42.2027
643.47        42.01141
643.90        41.93446
644.33        41.98417
644.76        42.18524
645.18        42.43886
645.61        42.46656
646.04        42.20562
646.47        42.19278
646.90        42.40671
647.33        42.53609
647.75        42.58171
648.18        42.72997
648.61        42.99073
649.04        43.34722
649.47        43.76344
649.89        44.11353
650.32         44.3958
650.75        44.78866
651.18        45.29275
651.61        45.75861
652.03        46.17686
652.46        46.67455
652.89        47.17467
653.32        47.42889
653.74        47.52333
654.17        47.78514
654.60        47.85557
655.03        49.11932
655.46        48.61333
655.88        49.78146
656.31        51.24878
656.74        51.11512
657.16        50.57976
657.59        49.63004
658.02         50.0857
658.45        51.81849
658.87        51.99603
659.30        52.29396
659.73        52.42018
660.15        52.80256
660.58        53.28263
661.01        53.43839
661.44        53.30254
661.86        53.11668
662.29        53.03734
662.72        53.43987
663.14        54.18794
663.57        54.32649
664.00        53.93061
664.42        53.92395
664.85        54.35664
665.27        54.66756
665.70        54.80535
666.13        54.98698
666.55        55.20898
666.98        55.40163
667.41        55.55435
667.83         55.6436
668.26        55.66257
668.69        55.64708
669.11        55.61135
669.54        55.62607
669.96        55.70076
670.39         55.8201
670.82        55.95838
671.24        56.08017
671.67        56.16162
672.09        56.21222
672.52        56.26226
672.94        56.40893
673.37        56.22542
673.80        56.69371
674.22        56.55317
674.65        56.76605
675.07        56.99289
675.50        57.21304
675.92        57.39832
676.35        57.52216
676.77        57.59037
677.20        57.58308
677.62        57.54581
678.05        57.56125
678.47        57.64246
678.90        57.76999
679.32        57.89742
679.75        57.95916
680.17         57.9381
680.60        57.87281
681.02        57.79925
681.45        57.77645
681.87        57.82787
682.30        57.91854
682.72        58.05804
683.15        58.22534
683.57        58.42392
684.00        58.65564
684.42        58.87848
684.85        59.04282
685.27          59.137
685.70        59.11223
686.12        59.04489
686.54        59.25584
686.97        59.67333
687.39        59.93355
687.82        59.96054
688.24        59.99734
688.66        60.03206
689.09         59.9002
689.51        59.67151
689.94        59.55107
690.36        59.57117
690.78        59.68181
691.21        59.84005
691.63        59.97316
692.06        60.05492
692.48        60.12836
692.90        60.21826
693.33        60.27318
693.75        60.36335
694.17        60.47545
694.60        60.64441
695.02        60.52752
695.44        60.65128
695.87        60.71796
696.29        60.86435
696.71        60.69984
697.14        60.38203
697.56         60.6059
697.98        61.25447
698.41        61.57193
698.83         61.5011
699.25          61.457
699.68        61.48293
700.10        61.51258
700.52        61.55282
700.94        61.63391
701.37        61.70229
701.79        61.69094
702.21        61.58599
702.64        61.42268
703.06        61.28584
703.48        61.31743
703.90        61.54333
704.33        61.92537
704.75        62.33279
705.17         62.6105
705.59        62.68742
706.01        62.61639
706.44        62.47716
706.86        62.41019
707.28        62.45464
707.70          62.556
708.12          62.692
708.55        62.84633
708.97        62.99127
709.39        63.07817
709.81        63.12331
710.23        63.22498
710.66        63.38238
711.08         63.5466
711.50        63.68686
711.92        63.81272
712.34         63.9202
712.76        64.01058
713.19        64.06127
713.61        64.07661
714.03        64.04468
714.45        63.97662
714.87        63.91938
715.29        63.94189
715.71        64.05392
716.13        64.23421
716.56        64.41108
716.98        64.53921
717.40        64.56633
717.82        64.51717
718.24        64.42817
718.66        64.35603
719.08        64.32154
719.50        64.32027
719.92        64.34571
720.34        64.35704
720.76        64.36321
721.19        64.43233
721.61        64.55328
722.03        64.61897
722.45        64.61668
722.87         64.5892
723.29        64.56388
723.71        64.56966
724.13        64.61677
724.55         64.6986
724.97        64.78453
725.39        64.82209
725.81        64.80483
726.23        64.75623
726.65        64.71353
727.07        64.73695
727.49        64.83665
727.91         64.9801
728.33        65.14669
728.75        65.30103
729.17         65.4221
729.59        65.52892
730.01        65.58272
730.43        65.51068
730.85        65.32676
731.27        65.08542
731.69        64.88234
732.10         64.8549
732.52        65.03153
732.94         65.3651
733.36        65.76742
733.78        66.09625
734.20        66.30061
734.62        66.32135
735.04        66.34055
735.46        66.35145
735.88         66.4222
736.30          66.334
736.72        66.14053
737.13        66.31429
737.55        66.68572
737.97        66.52116
738.39        65.93803
738.81        65.65632
739.23        65.79015
739.65        66.19538
740.06        66.65574
740.48        66.82967
740.90        66.65059
741.32        66.31966
741.74         65.9929
742.16        65.87251
742.57        66.03727
742.99        66.33575
743.41        66.67164
743.83         67.0499
744.25        67.33732
744.67        67.19051
745.08        66.73464
745.50        66.52341
745.92        66.63615
746.34        66.77592
746.75         66.8918
747.17        67.02343
747.59        67.15025
748.01        67.27275
748.42        67.37763
748.84        67.44214
749.26        67.47677
749.68        67.38911
750.09        67.22381
750.51        67.30541
750.93        67.53481
751.35        67.40908
751.76        66.99931
752.18        66.83662
752.60        66.95611
753.01        67.07431
753.43        67.13533
753.85         67.1879
754.27         67.2639
754.68        67.33329
755.10         67.4146
755.52        67.48963
755.93        67.56054
756.35        67.69363
756.77        67.93694
757.18        68.15479
757.60        68.32355
758.02        68.85909
758.43        69.47469
758.85        68.94223
759.26        67.60065
759.68         67.2573
760.10        67.92541
760.51         68.4098
760.93        68.13885
761.34        68.32191
761.76        68.70275
762.18        68.49835
762.59        67.85089
763.01        67.57969
763.42        67.75121
763.84        67.81693
764.26        67.80579
764.67        67.86652
765.09        67.97308
765.50         68.6963
765.92        68.78813
766.33        68.97439
766.75        68.83219
767.16        68.76312
767.58        68.74837
768.00        68.48907
768.41        68.11876
768.83        68.18771
769.24        68.56325
769.66        68.59886
770.07        68.29847
770.49        68.02567
770.90        67.92533
771.32        68.27515
771.73        68.93506
772.15         69.1844
772.56        68.96279
772.97        68.86105
773.39        68.54166
773.80        68.65092
774.22        69.01056
774.63        69.39458
775.05        69.61844
775.46        69.70965
775.88        69.60202
776.29         69.2515
776.70         68.8114
777.12        68.62527
777.53        68.76495
777.95        69.10536
778.36        69.52695
778.77        69.79907
779.19         69.8506
779.60        69.86547
780.02        69.84651
780.43        69.70066
780.84        69.54976
781.26        69.63403
781.67        69.93989
782.09        70.43278
782.50        70.89194
782.91         70.6851
783.33        69.93137
783.74         69.5293
784.15        69.56195
784.57        69.52493
784.98        69.40212
785.39        69.41257
785.81         69.5584
786.22        69.77724
786.63        70.06501
787.04        70.41115
787.46        70.79161
787.87         71.1701
788.28         71.5049
788.70        71.72002
789.11        71.79146
789.52        71.78446
789.93        71.70733
790.35        71.51711
790.76        71.26981
791.17        71.08952
791.58        71.03667
792.00        71.01459
792.41        71.02961
792.82        71.31586
793.23        71.75885
793.65        71.65446
794.06         71.1919
794.47        71.47041
794.88        72.28397
795.29        72.46707
795.71         71.9432
796.12        71.37312
796.53        70.96486
796.94        70.81506
797.35        71.01653
797.76        71.54289
798.18         72.1769
798.59        72.60707
799.00        72.71257
799.41        72.56913
799.82        72.29478
800.23        72.10223
800.64        72.07153
801.06        72.12138
801.47        72.22148
801.88        72.28701
802.29        72.28771
802.70         72.1347
803.11         71.9407
803.52        72.12457
803.93        72.62417
804.34        72.85715
804.75        72.70878
805.17        72.60458
805.58         72.5983
805.99         72.0875
806.40        71.36619
806.81        71.80204
807.22        73.12228
807.63        73.44273
808.04        72.76797
808.45        72.67474
808.86        73.22059
809.27        73.43795
809.68        73.25513
810.09        73.07819
810.50        72.93085
810.91        72.69253
811.32         72.4733
811.73        72.45168
812.14        72.65358
812.55        73.06248
812.96        73.50778
813.37        73.65108
813.78        73.41864
814.19        72.93552
814.60        72.41032
815.01        72.13975
815.42        72.19232
815.83        72.47449
816.24        72.88676
816.65        73.22858
817.05        73.40197
817.46        73.42471
817.87        73.34532
818.28         73.1777
818.69        72.95351
819.10        72.67974
819.51          72.409
819.92        72.25405
820.33        72.25355
820.74        72.36607
821.14        72.60175
821.55        72.97688
821.96        73.45729
822.37        74.04147
822.78        74.54861
823.19        74.65782
823.60        74.29613
824.00         73.5506
824.41        72.70256
824.82        72.23065
825.23        72.24851
825.64        72.64833
826.04        73.19872
826.45        73.39724
826.86        73.13395
827.27        72.56664
827.68        71.93981
828.08        71.65658
828.49        71.77939
828.90        72.21246
829.31        72.79762
829.72        73.26878
830.12        73.55915
830.53        73.67209
830.94        73.73382
831.35        73.90752
831.75        74.25065
832.16        74.61613
832.57        74.92178
832.97        75.00335
833.38        74.83028
833.79        74.52474
834.20        74.15009
834.60        73.76814
835.01        73.45457
835.42        73.16586
835.82        73.05491
836.23        73.30486
836.64        73.94312
837.04        74.93375
837.45        75.88782
837.86        76.30349
838.26        76.04738
838.67        75.27899
839.08         74.3168
839.48        73.64515
839.89        73.44947
840.29        73.58463
840.70        73.93102
841.11        74.30704
841.51        74.65318
841.92        74.99138
842.33        75.32082
842.73        75.60744
843.14        75.78757
843.54        75.88149
843.95        75.88928
844.35        75.89899
844.76        75.90611
845.17        75.86842
845.57        75.82099
845.98        75.78279
846.38        75.76965
846.79        75.78953
847.19        75.71593
847.60        75.28146
848.00        74.50124
848.41        73.49973
848.81        72.60033
849.22        72.27965
849.62        72.65811
850.03        73.53897
850.43        74.68899
850.84        75.47086
851.24        75.72769
851.65        75.53219
852.05        75.05984
852.46         74.5649
852.86        74.16263
853.27        73.85732
853.67         73.5854
854.07         73.4519
854.48         73.4058
854.88        73.46838
855.29        73.57396
855.69        73.77108
856.10        73.93111
856.50        74.13725
856.90        74.21938
857.31        73.98194
857.71        73.46342
858.12        72.68629
858.52        71.94271
858.92        71.66888
859.33        71.95152
859.73        72.71738
860.13        73.65653
860.54        74.25819
860.94        74.41209
861.34        74.15571
861.75        73.65424
862.15        73.26991
862.55        73.08598
862.96        73.03486
863.36        72.90719
863.76        72.39951
864.17         71.5172
864.57         70.4361
864.97        69.47809
865.38        69.06626
865.78          69.318
866.18        70.07254
866.58        71.11926
866.99        71.99319
867.39        72.52035
867.79        72.77412
868.19        72.73534
868.60        72.39034
869.00        71.80388
869.40        70.97059
869.80        70.20587
870.21        70.05508
870.61        70.67203
871.01         71.8718
871.41        73.19426
871.81        73.89034
872.22        73.76194
872.62         73.0073
873.02        71.99712
873.42        71.36605
873.82        71.31593
874.22        71.69145
874.63        72.19376
875.03        72.36448
875.43        72.10732
875.83        71.57454
876.23         71.1217
876.63         71.3192
877.03        72.25481
877.44        73.65299
877.84        75.07835
878.24        75.72971
878.64        75.43242
879.04        74.50694
879.44        73.32906
879.84        72.44572
880.24        72.01898
880.64        71.85075
881.04        71.96088
881.44        72.37952
881.84        73.04972
882.24        74.01018
882.65        74.86867
883.05         75.0635
883.45        74.43333
883.85        73.18001
884.25        71.87082
884.65        71.37881
885.05        71.86987
885.45        73.05031
885.85        74.48368
886.25         75.4081
886.65        75.55507
887.05        75.17405
887.45        74.40322
887.85        73.49166
888.25        72.63302
888.65        71.79618
889.04        71.14235
889.44         70.9767
889.84        71.26945
890.24        71.97815
890.64        72.89928
891.04        73.55313
891.44        73.74881
891.84        73.61583
892.24        73.31579
892.64        73.09697
893.04        73.03453
893.44        73.03714
893.83        73.16354
894.23         73.4427
894.63        73.87611
895.03        74.44994
895.43        74.99957
895.83        75.26532
896.23        75.19333
896.63        74.82829
897.02        74.33628
897.42        74.06675
897.82        74.08845
898.22        74.34371
898.62        74.62294
899.01        74.58208
899.41        74.14336
899.81         73.4368
900.21        72.75799
900.61        72.55135
901.00         72.8951
901.40        73.64204
901.80        74.44388
902.20        74.73509
902.59        74.37734
902.99         73.5517
903.39        72.60222
903.79         72.0425
904.18        71.99599
904.58        72.32866
904.98        72.78481
905.38        72.98061
905.77        72.79674
906.17        72.36096
906.57        71.88361
906.96        71.71626
907.36        71.91033
907.76        72.38428
908.15        72.89209
908.55        72.90997
908.95        72.40505
909.34        71.54381
909.74        70.78942
910.14        70.70994
910.53        71.45001
910.93         72.7643
911.33        74.33636
911.72        75.67832
912.12        76.51829
912.52        76.98104
912.91        77.16776
913.31        77.25092
913.70        77.30022
914.10        77.20743
914.49        76.90697
914.89        76.29792
915.29        75.43008
915.68        74.43987
916.08        73.54178
916.47        72.90589
916.87        72.64215
917.26        72.64889
917.66        72.94366
918.05        73.56748
918.45        74.41109
918.84        75.48998
919.24         76.4387
919.64        76.79647
920.03        76.46822
920.42        75.55613
920.82        74.48978
921.21        73.84813
921.61        73.79198
922.00        74.18513
922.40        74.76079
922.79        75.13474
923.19        75.15019
923.58        74.97137
923.98        74.73085
924.37        74.63407
924.77        74.73034
925.16        74.92739
925.55         75.1543
925.95        75.32206
926.34        75.40607
926.74        75.41903
927.13        75.35864
927.52        75.17625
927.92        74.89004
928.31        74.51331
928.70        74.10927
929.10        73.76567
929.49        73.51674
929.89        73.31593
930.28        73.19862
930.67        73.13726
931.07        73.11246
931.46        73.14928
931.85         73.1741
932.24        73.07846
932.64        72.87357
933.03         72.6213
933.42        72.43996
933.82        72.51537
934.21        72.91014
934.60        73.49332
934.99         74.2281
935.39        75.03601
935.78        75.88921
936.17        76.75277
936.56        77.29877
936.96        77.04163
937.35        75.96594
937.74        74.31219
938.13        72.67038
938.53        71.77917
938.92        71.74329
939.31        72.43568
939.70         73.4794
940.09        74.12552
940.49        74.10695
940.88        73.63078
941.27        73.08275
941.66        73.06231
942.05        73.70063
942.44        74.84039
942.84         75.9959
943.23        76.39814
943.62        75.79257
944.01        74.43053
944.40        73.02952
944.79        72.63557
945.18        73.44185
945.57        75.15657
945.97        76.94513
946.36        77.59566
946.75        76.67691
947.14        74.62415
947.53        72.33547
947.92        71.14867
948.31        71.40089
948.70        72.73592
949.09        74.44929
949.48        75.26879
949.87        74.80659
950.26        73.47695
950.65         72.0109
951.04        71.41541
951.43        71.90225
951.82        73.16989
952.21        74.59789
952.60        75.08247
952.99        74.32903
953.38        72.75079
953.77        71.11936
954.16        70.43222
954.55        70.89748
954.94        72.30405
955.33        74.05856
955.72        74.87466
956.11        74.30038
956.50        72.76093
956.89        71.15542
957.28        70.67068
957.66         71.5772
958.05        73.45566
958.44        75.60089
958.83        76.58585
959.22        75.96043
959.61        74.27795
960.00        72.35619
960.39        71.21027
960.78        71.02985
961.16        71.51081
961.55        72.27379
961.94        72.67612
962.33        72.46359
962.72        71.94976
963.11          71.293
963.49         70.6569
963.88        70.12257
964.27        69.59604
964.66        69.25474
965.04        69.49276
965.43         70.2777
965.82        71.52525
966.21        72.86579
966.60        73.59306
966.98        73.52911
967.37        72.94746
967.76        72.12247
968.15        71.43201
968.53        70.97715
968.92        70.55289
969.31        70.37938
969.69        70.89077
970.08        72.06908
970.47        73.94778
970.86        75.69166
971.24        75.84956
971.63        74.15774
972.02        71.15499
972.40        68.17922
972.79        67.29619
973.17        68.85824
973.56        72.11244
973.95        75.95083
974.33        78.26457
974.72        78.26407
975.11        76.64894
975.49        74.31271
975.88        72.93672
976.26        72.97315
976.65        73.83504
977.04          75.101
977.42        76.03509
977.81        76.18846
978.19        75.95611
978.58        75.47141
978.96        74.78386
979.35        74.04028
979.74        73.20683
980.12        72.53289
980.51         72.4302
980.89        73.05087
981.28        74.14307
981.66        75.61047
982.05        76.97152
982.43        78.12688
982.82        79.07533
983.20        79.57195
983.59        79.13447
983.97        77.78609
984.35        75.70928
984.74        73.69495
985.12        72.80103
985.51        73.17401
985.89        74.66936
986.28        76.43099
986.66        77.35918
987.04        76.95927
987.43        75.58282
987.81        73.86613
988.20        73.21451
988.58        73.90865
988.96        75.55265
989.35        77.09533
989.73        77.08876
990.12        75.17889
990.50        72.03429
990.88        68.61127
991.27        66.44735
991.65        65.96001
992.03        66.71075
992.42        68.34306
992.80        70.61223
993.18        73.19109
993.56        76.20411
993.95        79.01355
994.33        80.54308
994.71        80.38303
995.10        78.84151
995.48        76.78484
995.86        75.65876
996.24         75.8475
996.63        76.91546
997.01         78.5851
997.39        80.04116
997.77         80.8913
998.15        81.38396
998.54        81.46613
998.92        81.05118
999.30        80.18385
999.68        78.86915
1000.06        77.42834
1000.45        76.49552
1000.83         76.3691
1001.21        76.91493
1001.59        77.98141
1001.97        79.22958
1002.35        80.45451
1002.73        81.69408
1003.12        82.68348
1003.50        82.94638
1003.88        82.48092
1004.26        81.43822
1004.64        80.21316
1005.02        79.53838
1005.40        79.60876
1005.78        80.14812
1006.16        80.95537
1006.54        81.75583
1006.92        82.41472
1007.30        83.01837
1007.69        83.25069
1008.07        82.63797
1008.45        81.02812
1008.83        78.63145
1009.21        76.03065
1009.59        74.19976
1009.97        73.45891
1010.35        73.56808
1010.73        74.39745
1011.11        75.63972
1011.49        77.03115
1011.86        78.65463
1012.24        79.89017
1012.62        80.01718
1013.00        78.90215
1013.38         76.6083
1013.76        73.82676
1014.14         72.1575
1014.52        72.20841
1014.90        73.59894
1015.28        75.45378
1015.66        76.30382
1016.04        75.74666
1016.41        74.33112
1016.79        72.44319
1017.17        70.98908
1017.55        70.48059
1017.93        70.61977
1018.31        71.30692
1018.69        72.64975
1019.06        74.83417
1019.44        77.98345
1019.82        82.30052
1020.20        86.57281
1020.58        89.06082
1020.95        89.33583
1021.33        87.92065
1021.71        85.51783
1022.09        82.16206
1022.46        77.23657
1022.84        71.04742
1023.22        65.40876
1023.60        62.41934
1023.97        62.20818
1024.35        63.73026
1024.73        65.62849
