SpectraSmart Spectrum 2.9.0.0
--------- Device Information -----------
Spectrum Name :  反射率_0
Saving Time :  2024/04/30 00:44:47
Spectro-Module Model Name : SE2030-DUVN
Spectro-Module Serial Number : OS361AC55029948
Wavelength Start : 200
Wavelength End : 1025
Wavelength Unit : Wavelength(nm)
Spectrum Unit : Reflectance(%)
-----------Spectrum Setting ------------
Integration Time : 20ms
Average : 10
Boxcar : 0
Background removal :  enabled
linearity correction :  enabled
SC :  disabled
Intensity correction :  disabled
DWT denoise :  enabled
savitzky-golay :  disabled
FFT :  disabled
Running average :  disabled
Kalman :  disabled
High pass :  disabled
---------------BEGIN--------------------
Wavelength(nm)             Reflectance(%)
200.29               0
200.75         30.2002
201.21        23.12831
201.67        15.11483
202.13        8.856824
202.58         5.87358
203.04        5.829774
203.50        10.21645
203.96        22.09416
204.42         40.6352
204.88        62.57924
205.34         79.9258
205.80        82.43422
206.26        72.55414
206.72        58.49999
207.18        44.92546
207.64        33.63842
208.10        23.87423
208.55        13.70347
209.01         5.53285
209.47        5.912784
209.93        14.80262
210.39        28.24222
210.85        39.73857
211.31        44.13572
211.77        41.38682
212.23          31.248
212.69        16.27353
213.14        10.97294
213.60        21.61045
214.06        39.37524
214.52        53.87708
214.98        58.76151
215.44        55.41943
215.90        46.59267
216.36        35.88752
216.81        30.06364
217.27         32.7784
217.73        43.91082
218.19        62.15283
218.65        76.81986
219.11        79.56284
219.57        73.54434
220.02        66.62926
220.48        65.50402
220.94        70.09034
221.40        79.27666
221.86        89.21774
222.32        88.01383
222.77        74.48762
223.23        59.12012
223.69        48.06542
224.15         43.4612
224.61        43.87529
225.06        47.53848
225.52        53.89572
225.98        60.14572
226.44        64.06242
226.90        66.28243
227.36        67.16821
227.81        67.16623
228.27        66.67686
228.73        65.34785
229.19        63.76741
229.65        63.30671
230.10        64.10757
230.56        65.75226
231.02        67.06043
231.48        66.95947
231.93         65.4172
232.39        62.83743
232.85        60.09677
233.31        58.94458
233.77        59.90162
234.22        62.65745
234.68        65.72507
235.14        66.44511
235.60        64.21074
236.05        59.93213
236.51        55.71104
236.97        54.21477
237.43        56.06318
237.88        61.13798
238.34        68.07334
238.80        72.63871
239.26        71.90472
239.71        66.94646
240.17        60.26419
240.63        55.21286
241.08        52.45646
241.54        51.11987
242.00        51.18748
242.46        52.10837
242.91        53.43774
243.37        55.37024
243.83        58.10613
244.28        62.15409
244.74        67.73419
245.20        74.54835
245.66        81.35986
246.11          85.253
246.57        84.45161
247.03         79.7248
247.48        71.98086
247.94        64.48415
248.40        60.13461
248.85        58.05304
249.31        57.64786
249.77        57.53024
250.22        57.40744
250.68        57.70868
251.14        58.35262
251.59        58.49091
252.05        57.90639
252.51        56.99191
252.96        56.45224
253.42        57.20411
253.88        58.80254
254.33        60.78565
254.79        62.66916
255.25         62.6399
255.70        60.69164
256.16        58.55396
256.62        56.69128
257.07        55.19313
257.53        54.25196
257.99         53.4851
258.44        52.85521
258.90        52.96426
259.35        53.29911
259.81        53.87074
260.27        54.20509
260.72        53.94442
261.18        53.33728
261.63        52.33945
262.09        51.29856
262.55        50.35754
263.00        49.52378
263.46        48.91082
263.91        48.28321
264.37        47.63664
264.83        46.89435
265.28        46.05274
265.74          45.351
266.19        44.92294
266.65        44.83534
267.11        44.94065
267.56        45.04331
268.02        44.88168
268.47        44.36856
268.93        43.59597
269.38        42.63246
269.84        41.71703
270.30          40.933
270.75         40.2476
271.21        39.63128
271.66         38.9927
272.12        38.31298
272.57        37.59905
273.03         36.9368
273.48        36.36538
273.94        35.94352
274.39        35.59687
274.85        35.28272
275.31        34.86384
275.76        34.30505
276.22        33.68507
276.67        33.05173
277.13        32.57664
277.58        32.23092
278.04        31.99464
278.49        31.74333
278.95        31.39943
279.40        30.90328
279.86        30.37288
280.31         29.8098
280.77        29.33458
281.22        28.94012
281.68        28.62922
282.13        28.39833
282.59        28.30217
283.04        28.29497
283.50        28.33644
283.95        28.32796
284.41        28.13731
284.86        27.73206
285.32        27.21326
285.77        26.59497
286.22        25.96791
286.68         25.3869
287.13         24.8056
287.59        24.33258
288.04        24.07578
288.50        24.04856
288.95        24.17241
289.41        24.30931
289.86        24.21098
290.32        23.85287
290.77        23.30835
291.22        22.69668
291.68        22.21268
292.13        21.91725
292.59        21.77963
293.04        21.79995
293.50        21.99764
293.95        22.35016
294.40        22.85732
294.86         23.4228
295.31        23.90535
295.77        24.26686
296.22        24.53161
296.68         24.7884
297.13        25.16173
297.58        25.69216
298.04         26.3125
298.49        26.96535
298.95        27.55591
299.40        28.05192
299.85        28.48118
300.31        28.87372
300.76        29.22054
301.21         29.5567
301.67        29.89274
302.12        30.21148
302.58        30.62643
303.03        31.14239
303.48        31.60384
303.94        31.98305
304.39        32.94382
304.84        33.28407
305.30        33.94422
305.75        34.52496
306.20        35.02359
306.66         35.4294
307.11        35.74207
307.57         35.9903
308.02        36.14527
308.47        36.23186
308.93        36.26357
309.38        36.27192
309.83        36.35567
310.29        36.52768
310.74        36.75816
311.19        36.95909
311.65        36.98388
312.10        36.80482
312.55        36.47481
313.00        36.11518
313.46        35.91411
313.91        35.90332
314.36        36.03173
314.82        36.18906
315.27         36.2163
315.72        36.06071
316.18        35.78273
316.63        35.45243
317.08        35.19156
317.53        35.03907
317.99        34.96087
318.44        34.90678
318.89        34.80682
319.35        34.63816
319.80        34.42122
320.25        34.20314
320.70        34.05593
321.16        33.98236
321.61        33.97606
322.06        33.95337
322.51        33.78993
322.97        33.46363
323.42        33.02326
323.87        32.57357
324.32        32.28269
324.78        32.17723
325.23        32.22073
325.68         32.3042
326.13        32.24622
326.59         31.9914
327.04        31.61154
327.49        31.18831
327.94        30.86846
328.39        30.68895
328.85        30.58234
329.30        30.52046
329.75        30.40706
330.20        30.21418
330.66        29.98466
331.11        29.72669
331.56        29.42037
332.01        29.07734
332.46         28.6933
332.92        28.34162
333.37        28.18953
333.82        28.25896
334.27        28.50772
334.72        28.79858
335.17        28.89654
335.63        28.73269
336.08        28.37868
336.53        27.94195
336.98        27.62897
337.43        27.50927
337.88        27.52358
338.34        27.60336
338.79        27.66092
339.24        27.65589
339.69         27.6259
340.14        27.58644
340.59        27.55714
341.05        27.54557
341.50        27.52913
341.95        27.50338
342.40         27.4762
342.85        27.44367
343.30        27.40175
343.75        27.33283
344.20        27.20908
344.66        27.03975
345.11        26.83468
345.56        26.61947
346.01        26.42998
346.46        26.28594
346.91        26.18323
347.36        26.12746
347.81         26.1262
348.26        26.16778
348.72        26.23356
349.17        26.29766
349.62         26.3163
350.07        26.27313
350.52        26.18367
350.97        26.04239
351.42        25.84012
351.87        25.59467
352.32        25.32573
352.77        25.09329
353.22        24.99253
353.67        25.03934
354.13        25.19216
354.58        25.39856
355.03        25.57294
355.48        25.67196
355.93        25.70739
356.38        25.65277
356.83        25.47392
357.28        25.18124
357.73        24.79407
358.18        24.38034
358.63        24.05014
359.08        23.83201
359.53        23.69948
359.98        23.61535
360.43        23.51156
360.88        23.36584
361.33        23.20292
361.78        23.02181
362.23        22.81972
362.68        22.60376
363.13        22.37094
363.58        22.15119
364.03        21.99632
364.48        21.91178
364.93        21.87864
365.38        21.85808
365.83        21.78591
366.28        21.64584
366.73        21.45992
367.18        21.24781
367.63        21.04113
368.08        20.85269
368.53        20.67171
368.98        20.50918
369.43        20.38268
369.88        20.29358
370.33        20.24209
370.78        20.19728
371.23        20.10716
371.68        19.95781
372.13        19.75461
372.58         19.5392
373.03        19.38119
373.48        19.29237
373.93        19.25276
374.38        19.20226
374.83         19.0438
375.28        18.76749
375.72        18.41224
376.17        18.07284
376.62        17.84638
377.07        17.75056
377.52        17.74497
377.97        17.78785
378.42        17.80998
378.87        17.78736
379.32        17.74648
379.77        17.68303
380.22        17.59075
380.67        17.47171
381.11        17.31274
381.56        17.16072
382.01        17.09482
382.46        17.12718
382.91        17.24192
383.36        17.34768
383.81        17.30114
384.26        17.08427
384.71        16.74474
385.15         16.3987
385.60        16.25514
386.05        16.33826
386.50           16.57
386.95        16.82695
387.40         16.9164
387.85         16.7963
388.29        16.53376
388.74        16.22808
389.19        15.95529
389.64        15.74637
390.09        15.57127
390.54        15.45421
390.98        15.43763
391.43        15.52219
391.88        15.68787
392.33        15.86284
392.78        15.95936
393.23        15.96154
393.67        15.85367
394.12        15.69986
394.57        15.69895
395.02        15.63998
395.47        15.68365
395.91         15.7255
396.36        15.69632
396.81        15.59007
397.26        15.43787
397.71        15.29316
398.15        15.22252
398.60        15.25663
399.05        15.33407
399.50        15.40759
399.95        15.47924
400.39        15.45529
400.84        15.34977
401.29        15.18521
401.74        15.09742
402.18         15.1138
402.63        15.16565
403.08        15.23295
403.53        15.29661
403.97        15.34447
404.42        15.38898
404.87        15.41151
405.32        15.37998
405.76        15.29168
406.21         15.1601
406.66        15.03973
407.11        15.02211
407.55        15.12664
408.00        15.32434
408.45        15.53725
408.90        15.62024
409.34        15.53533
409.79        15.33009
410.24        15.10257
410.68        15.00088
411.13        15.06184
411.58        15.24063
412.03        15.46011
412.47        15.58914
412.92        15.57621
413.37        15.47144
413.81         15.3337
414.26        15.27504
414.71        15.30926
415.15        15.40789
415.60        15.51486
416.05        15.55899
416.49         15.5215
416.94        15.43204
417.39        15.33334
417.83        15.28666
418.28        15.31294
418.73        15.38597
419.17         15.4807
419.62        15.56034
420.07        15.60932
420.51        15.63599
420.96        15.64469
421.41        15.63406
421.85        15.60305
422.30        15.56734
422.74        15.52378
423.19         15.4956
423.64        15.48106
424.08        15.48445
424.53        15.49884
424.98        15.53776
425.42        15.60361
425.87        15.68083
426.31         15.7465
426.76        15.79071
427.21        15.75633
427.65        15.67795
428.10         15.5827
428.54        15.49207
428.99        15.43227
429.44         15.4983
429.88        15.62461
430.33        15.50913
430.77        15.25179
431.22        15.36644
431.66        15.81429
432.11        16.04494
432.56        15.98163
433.00        15.95354
433.45        15.95869
433.89        15.70023
434.34        15.33927
434.78        15.36805
435.23        15.70748
435.67        15.82147
436.12        15.68062
436.57         15.5831
437.01        15.57904
437.46        15.61769
437.90        15.70467
438.35        15.84433
438.79        15.98391
439.24        16.01406
439.68        15.94103
440.13        15.86072
440.57        15.78279
441.02        15.72878
441.46        15.71556
441.91        15.63174
442.35        15.51709
442.80        15.75567
443.24        16.20186
443.69        16.11696
444.13        15.59131
444.58        15.39841
445.02         15.5508
445.47        15.64407
445.91        15.63383
446.36        15.64966
446.80        15.67772
447.24         15.6942
447.69        15.70328
448.13        15.71069
448.58        15.71969
449.02        15.72511
449.47        15.74106
449.91        15.77934
450.36        15.84202
450.80        15.92623
451.25        16.00094
451.69        16.01381
452.13        15.95582
452.58        15.84858
453.02        15.73642
453.47        15.68989
453.91        15.71824
454.36        15.84313
454.80        15.93557
455.24        15.97182
455.69          15.914
456.13        15.78862
456.58        15.64792
457.02        15.55618
457.46        15.53598
457.91        15.56529
458.35        15.61307
458.79         15.6405
459.24        15.64666
459.68        15.65212
460.13         15.6754
460.57         15.6714
461.01        15.76343
461.46        15.78512
461.90        15.78667
462.34        15.94098
462.79        16.17183
463.23         16.1368
463.68        15.87997
464.12        15.76564
464.56        15.81365
465.01        15.85035
465.45        15.83988
465.89        15.79988
466.34         15.7536
466.78        15.77224
467.22        15.88323
467.67        15.87686
468.11        15.76178
468.55         15.6181
468.99        15.49704
469.44        15.43725
469.88         15.4517
470.32        15.53519
470.77        15.64077
471.21         15.7048
471.65         15.7041
472.10        15.66578
472.54        15.62115
472.98        15.63608
473.42        15.72196
473.87         15.8505
474.31        15.98452
474.75        16.07231
475.20        16.10425
475.64        16.09365
476.08        16.05956
476.52        16.02718
476.97        16.00762
477.41        15.99072
477.85        15.98704
478.29        16.01196
478.74        16.07138
479.18        16.15314
479.62        16.23175
480.06        16.30556
480.50        16.37658
480.95         16.2975
481.39        16.34385
481.83        16.39921
482.27        16.55774
482.72        16.66358
483.16        16.90102
483.60        17.01553
484.04        17.05438
484.48         17.0243
484.93        16.99366
485.37        17.08704
485.81        17.22773
486.25        17.46196
486.69        16.88898
487.14        17.14201
487.58        17.80399
488.02        17.69278
488.46        17.91693
488.90        18.23634
489.34        17.74925
489.79        17.70509
490.23        17.75507
490.67          18.033
491.11        18.41229
491.55        18.49722
491.99        18.34518
492.43        18.42509
492.88        18.74958
493.32        19.00245
493.76        19.14548
494.20        19.30202
494.64        19.47436
495.08        19.62203
495.52        19.73633
495.96        19.85797
496.41        19.99852
496.85        20.03441
497.29        20.00286
497.73        20.31976
498.17        20.66427
498.61        20.71857
499.05         20.4581
499.49        20.38342
499.93        20.54039
500.37        20.73297
500.82        20.90815
501.26        21.02938
501.70         21.0801
502.14        21.10497
502.58        21.14652
503.02         21.2455
503.46        21.41292
503.90        21.63356
504.34        21.86693
504.78        22.04331
505.22         22.1406
505.66        22.17582
506.10        22.16333
506.54        22.15318
506.98        22.16587
507.42        22.14548
507.86        22.08455
508.30        22.22182
508.74        22.15337
509.18        22.20806
509.62        22.26775
510.06        22.34317
510.50        22.42991
510.94        22.53173
511.38        22.63472
511.82        22.70527
512.26        22.73813
512.70        22.73926
513.14         22.7378
513.58        22.78166
514.02        22.87839
514.46        23.01091
514.90        23.14294
515.34        23.21464
515.78        23.21094
516.22        23.15247
516.66        23.06894
517.10        23.00668
517.54        22.98025
517.98        22.97535
518.42          22.982
518.86        22.98406
519.30        22.97501
519.74        22.96285
520.18         22.9463
520.62        22.91969
521.06        22.88561
521.50        22.84815
521.93          22.816
522.37         22.7984
522.81        22.79988
523.25        22.81133
523.69        22.83432
524.13        22.87192
524.57        22.91788
525.01        22.96797
525.45        22.99433
525.89        22.95313
526.32        22.83719
526.76        22.67027
527.20        22.49113
527.64        22.36091
528.08        22.29432
528.52        22.27391
528.96        22.27617
529.40        22.26166
529.83        22.21651
530.27         22.1568
530.71        22.08676
531.15        22.01545
531.59         21.9467
532.03        21.87383
532.46        21.80113
532.90        21.74476
533.34        21.70593
533.78        21.68603
534.22        21.66994
534.66        21.63246
535.09        21.56803
535.53        21.48886
535.97        21.41805
536.41        21.39923
536.85        21.43849
537.28        21.51972
537.72        21.60551
538.16        21.63929
538.60         21.6089
539.04        21.53659
539.47        21.44906
539.91        21.40749
540.35        21.42213
540.79        21.48343
541.22        21.57622
541.66        21.67962
542.10        21.78364
542.54        21.89577
542.97         22.0246
543.41        22.18446
543.85        22.37403
544.29        22.58737
544.72        22.79236
545.16        22.95799
545.60        23.07615
546.04        23.14789
546.47        23.21211
546.91        23.36718
547.35          23.609
547.79        23.83899
548.22        24.02023
548.66        24.22583
549.10        24.45482
549.53         24.5883
549.97        24.60356
550.41        24.97075
550.84        24.94767
551.28        25.09175
551.72        25.17665
552.15        25.41875
552.59        25.49998
553.03        25.67383
553.46        25.83897
553.90         25.9785
554.34        26.08229
554.77        26.18332
555.21        26.28636
555.65        26.32835
556.08        26.33865
556.52        26.44725
556.96        26.63416
557.39        26.80528
557.83        26.94419
558.27        27.03339
558.70        27.11377
559.14        27.28435
559.57        27.52263
560.01        27.77387
560.45        27.96646
560.88        27.91524
561.32        27.79338
561.75        27.64616
562.19        27.57638
562.63        27.55217
563.06        27.59142
563.50        27.74801
563.93        27.96914
564.37        28.15815
564.80        28.28156
565.24         28.3752
565.68        28.44271
566.11        28.50801
566.55        28.58203
566.98        28.61544
567.42        28.66226
567.85        28.75561
568.29        28.90468
568.72        29.17476
569.16        29.58368
569.60        29.52906
570.03        29.90964
570.47        30.06804
570.90        30.25221
571.34         30.2697
571.77        30.45003
572.21        30.50416
572.64        30.52775
573.08        30.66603
573.51        30.94765
573.95        30.96874
574.38        31.17581
574.82         31.3301
575.25        31.21317
575.69        31.30311
576.12        31.20423
576.56        31.40608
576.99        31.43631
577.42        31.36917
577.86        31.52863
578.29        31.38624
578.73        31.19835
579.16        31.04214
579.60        31.25758
580.03        31.05141
580.47        31.02044
580.90        30.95619
581.33        30.99368
581.77         30.9136
582.20        30.74787
582.64         30.5731
583.07        30.21409
583.51        30.01653
583.94        30.05971
584.37        29.98933
584.81        29.81328
585.24        29.89073
585.68        30.02374
586.11        29.87538
586.54        29.62265
586.98        29.62626
587.41        29.98801
587.85        29.79006
588.28        29.53025
588.71         30.0006
589.15         29.6075
589.58        29.42305
590.01         29.3931
590.45        29.30496
590.88        29.33054
591.31        29.38273
591.75        29.40334
592.18        29.52648
592.61        29.80356
593.05        29.27456
593.48        29.70765
593.91        29.86636
594.35        29.57129
594.78        29.67146
595.21        29.93983
595.65        29.99332
596.08        29.89519
596.51        30.06223
596.94        30.65598
597.38        31.01389
597.81        31.14053
598.24        31.17927
598.68        31.52928
599.11        31.64814
599.54        32.23942
599.97        32.49093
600.41        32.46466
600.84        32.90249
601.27        33.17376
601.70        33.69033
602.14        34.18572
602.57        34.41051
603.00        34.42578
603.43        34.79121
603.87        35.39131
604.30        35.94846
604.73         36.2408
605.16        36.63702
605.60        37.08283
606.03        37.55165
606.46        37.95186
606.89        38.41953
607.32        38.68129
607.76        39.04062
608.19         39.4283
608.62        39.68909
609.05        39.94808
609.48         40.4694
609.92        40.86226
610.35         41.2676
610.78        41.49681
611.21        41.24781
611.64         41.4638
612.07        42.08607
612.50        42.20026
612.94        42.65304
613.37        43.13573
613.80        43.25808
614.23          43.884
614.66        44.11889
615.09        44.25536
615.52        44.38271
615.96        44.60323
616.39        44.76435
616.82        44.84274
617.25        45.21232
617.68        45.06795
618.11        45.41265
618.54        45.89251
618.97        46.22737
619.40        46.09559
619.84        46.19678
620.27        46.47821
620.70        46.78401
621.13        47.00692
621.56        46.84784
621.99        46.72876
622.42        46.34711
622.85        46.96616
623.28        47.08767
623.71        47.56453
624.14        46.67736
624.57        47.06763
625.00        46.87283
625.43        46.81832
625.86         46.7319
626.29        46.62497
626.72        46.52989
627.15        46.41576
627.58         46.3731
628.01        46.34908
628.44        46.06072
628.87        45.58969
629.30        45.42431
629.73        45.52813
630.16        45.40159
630.59        45.01107
631.02        44.74219
631.45        44.41522
631.88        44.08718
632.31          43.702
632.74        43.31983
633.17        42.94213
633.60        42.45734
634.03        42.06104
634.46        41.59627
634.89        41.14816
635.32        40.76371
635.75         40.4495
636.18        40.18305
636.61        39.91991
637.04        39.60036
637.47        39.21726
637.89        38.76548
638.32        38.26387
638.75         37.8622
639.18        37.60113
639.61        37.07795
640.04        36.95649
640.47        36.68119
640.90        36.44416
641.33        36.24517
641.76        36.07549
642.18        35.90896
642.61          35.727
643.04        35.54134
643.47        35.39563
643.90        35.34983
644.33        35.40805
644.76        35.59646
645.18        35.83208
645.61        35.87918
646.04         35.6872
646.47        35.70999
646.90         35.9318
647.33        36.09753
647.75        36.20206
648.18        36.38305
648.61        36.65483
649.04        37.01882
649.47        37.43343
649.89         37.8024
650.32        38.09988
650.75        38.37124
651.18        38.68433
651.61        39.13339
652.03        39.71953
652.46        40.44226
652.89        41.17315
653.32        41.60916
653.74         41.8096
654.17        42.25819
654.60         42.0452
655.03        43.54566
655.46        42.93314
655.88        44.23547
656.31        46.39336
656.74        47.08368
657.16        46.24541
657.59        45.17498
658.02        45.73394
658.45        46.75768
658.87        47.00651
659.30        47.21773
659.73        48.00563
660.15        48.36737
660.58        48.50636
661.01        48.76759
661.44        49.14191
661.86        49.14008
662.29        48.89645
662.72        49.17546
663.14        49.89948
663.57        50.09577
664.00        49.82751
664.42        49.91079
664.85        50.39045
665.27        50.81009
665.70        51.09762
666.13        51.36632
666.55        51.60376
666.98         51.7785
667.41        51.90721
667.83        52.01097
668.26         52.0942
668.69        52.15917
669.11        52.23339
669.54        52.35017
669.96        52.51329
670.39         52.7508
670.82        53.00179
671.24        53.08743
671.67        53.02095
672.09        53.01726
672.52        53.12483
672.94        53.30382
673.37          53.154
673.80        53.70247
674.22        53.72144
674.65        53.99634
675.07        54.19479
675.50         54.3614
675.92        54.50331
676.35        54.62439
676.77        54.74525
677.20        54.84056
677.62         54.9363
678.05        55.07666
678.47        55.26151
678.90        55.48478
679.32        55.69428
679.75        55.80765
680.17        55.80386
680.60        55.73775
681.02        55.66775
681.45        55.62905
681.87        55.66811
682.30        55.90158
682.72        56.27612
683.15        56.43537
683.57        56.42704
684.00         56.6578
684.42         57.0732
684.85          57.311
685.27        57.35544
685.70        57.29001
686.12        57.21138
686.54         57.5024
686.97        58.04183
687.39        58.21832
687.82        58.00089
688.24        57.94284
688.66          58.058
689.09        58.01302
689.51        57.84271
689.94        57.77356
690.36        57.82524
690.78        57.93681
691.21        58.08266
691.63        58.23048
692.06        58.36024
692.48        58.48095
692.90        58.59225
693.33         58.6988
693.75        58.79883
694.17        58.86943
694.60        58.93735
695.02        59.02114
695.44        59.11285
695.87         59.3504
696.29        59.65951
696.71        59.53816
697.14        59.14117
697.56        59.29006
697.98         59.9061
698.41        60.18443
698.83        60.08892
699.25        60.10578
699.68        60.24033
700.10        60.30508
700.52        60.28986
700.94        60.27208
701.37         60.2493
701.79        60.22545
702.21        60.20188
702.64        60.18563
703.06        60.20609
703.48        60.32042
703.90         60.5346
704.33        60.83803
704.75        61.14163
705.17        61.36028
705.59        61.44341
706.01        61.41878
706.44        61.34586
706.86        61.32118
707.28        61.36945
707.70        61.48869
708.12        61.64866
708.55        61.73619
708.97         61.7643
709.39        61.87283
709.81        62.06358
710.23        62.23552
710.66        62.37276
711.08        62.54356
711.50        62.71915
711.92        62.85889
712.34        62.95651
712.76        63.01944
713.19        63.03869
713.61        63.04126
714.03        63.02116
714.45        62.98928
714.87        62.95863
715.29        62.94543
715.71        62.95462
716.13        62.97906
716.56        63.01495
716.98        63.13209
717.40        63.30244
717.82        63.51057
718.24        63.69704
718.66        63.77147
719.08        63.71642
719.50        63.55569
719.92        63.36019
720.34        63.24597
720.76        63.24458
721.19        63.32227
721.61        63.43296
722.03        63.46629
722.45        63.39581
722.87        63.26827
723.29        63.14791
723.71        63.06821
724.13        63.15918
724.55        63.30259
724.97        63.47276
725.39        63.57339
725.81        63.58504
726.23        63.54416
726.65        63.49586
727.07        63.51636
727.49        63.62069
727.91        63.76564
728.33        63.93798
728.75        64.11678
729.17        64.28275
729.59        64.45416
730.01        64.56353
730.43        64.49975
730.85        64.26619
731.27        63.90875
731.69        63.58407
732.10        63.54136
732.52        63.82883
732.94         64.3575
733.36        64.95937
733.78        65.37544
734.20        65.52041
734.62        65.27358
735.04        65.17475
735.46        65.00388
735.88        64.97724
736.30        65.18789
736.72        65.53851
737.13          65.728
737.55        65.62618
737.97        65.38226
738.39         65.0899
738.81         64.6915
739.23        64.36367
739.65        64.66188
740.06        65.36964
740.48        65.66695
740.90        65.46739
741.32        65.20299
741.74        65.01183
742.16        64.95498
742.57        65.09473
742.99        65.33306
743.41        65.58754
743.83        65.84129
744.25        66.00066
744.67        65.83282
745.08         65.4566
745.50        65.30357
745.92        65.43773
746.34        65.64107
746.75        65.87029
747.17        66.03967
747.59        66.10023
748.01         66.2633
748.42        66.58081
748.84        66.09604
749.26        66.46144
749.68        66.30228
750.09        66.13726
750.51        66.15593
750.93        66.30295
751.35        66.23228
751.76        65.97433
752.18        65.89081
752.60        65.99918
753.01        66.11425
753.43         66.1873
753.85        66.25061
754.27        66.30537
754.68        66.37555
755.10        66.45773
755.52        66.54116
755.93        66.60231
756.35        66.62057
756.77         66.6912
757.18        66.84021
757.60        67.06553
758.02        67.69744
758.43        68.39551
758.85        67.92564
759.26        66.64744
759.68         66.1536
760.10        66.72297
760.51         67.3075
760.93        67.48052
761.34         67.1723
761.76        67.79172
762.18        67.56539
762.59        67.05558
763.01        66.58305
763.42        66.33182
763.84        66.21228
764.26        66.25719
764.67         66.5499
765.09        67.01824
765.50        67.43017
765.92        67.71844
766.33         67.9575
766.75        68.03071
767.16         67.8634
767.58        67.51905
768.00        67.22195
768.41        67.10525
768.83        67.38009
769.24        67.83883
769.66        67.90382
770.07        67.56562
770.49        67.14787
770.90        66.84431
771.32         67.0784
771.73        67.73048
772.15        67.94371
772.56        67.66076
772.97        67.63199
773.39        67.46786
773.80        67.53978
774.22        67.69006
774.63        67.94335
775.05        68.18664
775.46        68.36539
775.88        68.42165
776.29        68.39118
776.70        68.28728
777.12        68.17132
777.53        68.06709
777.95        67.93584
778.36        67.83703
778.77        67.81932
779.19        67.89249
779.60        68.19604
780.02        68.57464
780.43        68.62265
780.84        68.42757
781.26        68.38361
781.67        68.58606
782.09         69.2154
782.50        69.99322
782.91        69.88826
783.33        68.99676
783.74        68.52896
784.15        68.57241
784.57        68.41838
784.98        68.09746
785.39        68.01233
785.81        68.18794
786.22        68.50969
786.63        68.92162
787.04        69.33217
787.46        69.69137
787.87        69.98642
788.28         70.2206
788.70        70.37276
789.11        70.42867
789.52        70.47885
789.93        70.48268
790.35        70.20197
790.76        69.74729
791.17        69.54915
791.58        69.64297
792.00        69.70739
792.41        69.75139
792.82        69.97091
793.23        70.31606
793.65        70.56592
794.06         70.6941
794.47        70.78854
794.88        70.82515
795.29        70.73121
795.71        70.48582
796.12        70.15606
796.53        69.85406
796.94        69.78669
797.35        70.00713
797.76        70.46382
798.18        70.97742
798.59        71.29082
799.00        71.30915
799.41           71.11
799.82        70.80497
800.23        70.58862
800.64        70.53008
801.06        70.55017
801.47        70.64394
801.88        70.72913
802.29        70.77039
802.70        70.78043
803.11        70.78272
803.52        70.80714
803.93         70.8773
804.34        70.99685
804.75        71.08893
805.17        71.12421
805.58        71.13881
805.99        70.83971
806.40        70.43122
806.81        70.94114
807.22        72.08553
807.63        72.16956
808.04        71.27679
808.45        71.03056
808.86        71.53124
809.27        71.81873
809.68        71.79212
810.09        71.77499
810.50        71.75928
810.91        71.65562
811.32        71.53619
811.73         71.5187
812.14        71.62395
812.55        71.83463
812.96        72.07124
813.37        72.17016
813.78        72.09193
814.19        71.90303
814.60        71.67614
815.01        71.50952
815.42        71.43005
815.83         71.3985
816.24        71.41571
816.65        71.48503
817.05        71.59319
817.46         71.7059
817.87        71.78853
818.28        71.72986
818.69        71.52081
819.10        71.19907
819.51        70.86273
819.92        70.69911
820.33        70.76649
820.74        70.99799
821.14        71.32897
821.55         71.6674
821.96        71.96281
822.37        72.24584
822.78        72.45463
823.19        72.48186
823.60        72.30909
824.00        71.95335
824.41        71.54219
824.82        71.31603
825.23        71.32634
825.64        71.53055
826.04        71.79854
826.45        71.81358
826.86        71.53299
827.27        71.06148
827.68        70.58346
828.08        70.40939
828.49        70.57028
828.90        70.99963
829.31          71.575
829.72        72.08202
830.12        72.46604
830.53         72.7117
830.94        72.88785
831.35        73.07031
831.75        73.29777
832.16        73.44933
832.57        73.53029
832.97        73.52526
833.38        73.43623
833.79        73.33315
834.20        73.17917
834.60        72.88655
835.01        72.49815
835.42        72.02092
835.82        71.67385
836.23        71.75104
836.64        72.32029
837.04        73.31534
837.45        74.32323
837.86        74.79711
838.26        74.58346
838.67        73.85599
839.08        72.93864
839.48        72.32231
839.89        72.18852
840.29        72.37762
840.70        72.75401
841.11        73.11543
841.51        73.40049
841.92        73.64616
842.33        73.86304
842.73        74.03829
843.14         74.1199
843.54        74.11857
843.95        74.05923
844.35        74.06335
844.76        74.12864
845.17        74.21346
845.57        74.28387
845.98        74.24503
846.38        74.09569
846.79        73.87412
847.19        73.56963
847.60        73.11703
848.00        72.56617
848.41        71.96368
848.81        71.49401
849.22        71.42179
849.62         71.8186
850.03          72.561
850.43        73.48784
850.84        74.10225
851.24         74.3038
851.65          74.106
852.05         73.7039
852.46        73.38488
852.86        73.22806
853.27        73.21357
853.67        73.15193
854.07        72.96845
854.48        72.59643
854.88        72.10458
855.29        71.56039
855.69        71.31039
856.10        71.36266
856.50        71.72644
856.90         72.1343
857.31         72.2197
857.71        71.95697
858.12         71.4226
858.52        70.87936
858.92        70.71307
859.33        71.00308
859.73        71.65687
860.13        72.44923
860.54        73.03082
860.94        73.32542
861.34        73.33947
861.75        73.10828
862.15        72.76142
862.55        72.33054
862.96        71.82609
863.36        71.20099
863.76        70.40414
864.17        69.49567
864.57        68.56906
864.97        67.81347
865.38        67.44785
865.78        67.53876
866.18        67.99799
866.58        68.70177
866.99        69.35905
867.39        69.87329
867.79        70.26379
868.19         70.4804
868.60        70.47326
869.00        70.27146
869.40        69.86312
869.80        69.49685
870.21         69.5993
870.61        70.28607
871.01        71.39632
871.41        72.51347
871.81        72.96973
872.22        72.60777
872.62        71.62012
873.02        70.40722
873.42        69.64539
873.82        69.54467
874.22        69.94512
874.63        70.51072
875.03        70.71817
875.43        70.44643
875.83        69.85515
876.23        69.31387
876.63        69.41747
877.03        70.27625
877.44        71.63198
877.84        73.03496
878.24        73.66732
878.64        73.34882
879.04        72.37511
879.44        71.21027
879.84        70.53245
880.24        70.50089
880.64        70.88464
881.04        71.47062
881.44        71.90647
881.84        72.06323
882.24        72.07993
882.65        71.92567
883.05        71.68115
883.45        71.35463
883.85        70.94794
884.25        70.62055
884.65        70.63799
885.05        71.02197
885.45        71.65347
885.85        72.37504
886.25        72.89864
886.65        73.10756
887.05        73.10806
887.45        72.81466
887.85        72.11604
888.25        71.11481
888.65        69.91737
889.04        68.89911
889.44        68.62888
889.84        69.12509
890.24        70.26782
890.64        71.66224
891.04        72.45937
891.44        72.36539
891.84        71.65397
892.24        70.75752
892.64        70.27248
893.04        70.33116
893.44        70.73495
893.83        71.35199
894.23        71.88167
894.63        72.22579
895.03        72.47738
895.43        72.64601
895.83        72.73272
896.23        72.74827
896.63        72.65376
897.02        72.47755
897.42        72.35255
897.82        72.29023
898.22        72.30485
898.62         72.3193
899.01        72.20001
899.41        71.91835
899.81        71.52615
900.21        71.18445
900.61        71.13954
901.00        71.42143
901.40        71.94482
901.80        72.46523
902.20         72.5891
902.59        72.22671
902.99        71.50279
903.39        70.68057
903.79        70.14867
904.18        70.00893
904.58         70.1876
904.98        70.48682
905.38        70.60943
905.77        70.45756
906.17        70.10784
906.57        69.76243
906.96        69.76744
907.36        70.15114
907.76        70.83228
908.15        71.47832
908.55        71.41947
908.95        70.61288
909.34        69.29247
909.74        68.06523
910.14        67.72221
910.53        68.46276
910.93        69.97051
911.33        71.85213
911.72        73.49062
912.12        74.55121
912.52        75.18108
912.91        75.45171
913.31        75.48512
913.70        75.36428
914.10        75.02163
914.49         74.4428
914.89        73.61551
915.29        72.61684
915.68        71.53478
916.08        70.65207
916.47        70.24125
916.87        70.39137
917.26        70.97093
917.66        71.74224
918.05        72.32301
918.45        72.53162
918.84        72.50832
919.24        72.26824
919.64        72.01233
920.03        71.83086
920.42        71.63713
920.82         71.5137
921.21        71.50225
921.61        71.61591
922.00        71.87277
922.40        72.18095
922.79        72.45244
923.19        72.61134
923.58        72.68143
923.98        72.68625
924.37         72.6871
924.77        72.69514
925.16        72.70712
925.55        72.67831
925.95        72.54205
926.34        72.31656
926.74        72.01647
927.13        71.73872
927.52        71.59686
927.92        71.62051
928.31         71.7556
928.70        71.91196
929.10        71.92862
929.49        71.76033
929.89        71.41987
930.28        71.01025
930.67        70.63973
931.07        70.36654
931.46        70.20535
931.85        70.09799
932.24        69.95609
932.64        69.78407
933.03        69.62539
933.42        69.60892
933.82        69.92459
934.21        70.60262
934.60        71.49842
934.99         72.4359
935.39        73.11895
935.78        73.49546
936.17        73.61224
936.56         73.3823
936.96         72.7357
937.35        71.76585
937.74        70.56783
938.13        69.52205
938.53        69.09251
938.92        69.30382
939.31        70.08614
939.70        71.08822
940.09        71.60957
940.49        71.41634
940.88         70.7135
941.27        69.86962
941.66        69.45528
942.05        69.60732
942.44        70.18697
942.84        70.86002
943.23        71.10961
943.62        70.74566
944.01        69.94143
944.40        69.16035
944.79        69.07082
945.18        69.78973
945.57        71.12273
945.97        72.46014
946.36        72.98852
946.75        72.39026
947.14        70.96227
947.53        69.38486
947.92        68.68256
948.31        69.10235
948.70        70.36528
949.09        71.89412
949.48         72.6375
949.87        72.27779
950.26        71.16731
950.65        69.89173
951.04        69.25296
951.43        69.43933
951.82        70.22169
952.21        71.18592
952.60        71.60049
952.99        71.23994
953.38        70.34304
953.77        69.40897
954.16        69.08481
954.55        69.49772
954.94          70.525
955.33        71.64881
955.72        71.80428
956.11        70.69572
956.50        68.72186
956.89        66.80344
957.28        66.11652
957.66        66.90335
958.05        68.78217
958.44        70.99896
958.83        72.01216
959.22        71.33157
959.61        69.50864
960.00        67.44473
960.39        66.28094
960.78         66.2253
961.16        66.95731
961.55        67.97913
961.94        68.38598
962.33        67.88328
962.72        66.90034
963.11        65.85039
963.49        65.25832
963.88        65.24787
964.27        65.58017
964.66        66.22495
965.04        67.19999
965.43        68.31843
965.82        69.60194
966.21        70.67165
966.60         70.8428
966.98        70.04932
967.37        68.60916
967.76        67.05643
968.15        66.10317
968.53        65.89471
968.92        66.18338
969.31          66.948
969.69        68.12189
970.08        69.50549
970.47        71.20797
970.86        72.64993
971.24        72.86324
971.63        71.67867
972.02        69.41843
972.40        67.10561
972.79        66.38194
973.17        67.53596
973.56         69.9935
973.95        72.86613
974.33        74.43278
974.72        74.06029
975.11        72.32643
975.49        70.06509
975.88        68.85141
976.26        69.07431
976.65        70.22474
977.04        71.74626
977.42        72.64342
977.81        72.43334
978.19        71.56056
978.58        70.45853
978.96        69.66977
979.35        69.44032
979.74        69.59179
980.12        70.03886
980.51        70.61339
980.89         71.2618
981.28        71.85259
981.66        72.55199
982.05        73.34307
982.43         74.2926
982.82        75.33299
983.20        75.97626
983.59        75.32636
983.97         73.3494
984.35        70.41359
984.74        67.73925
985.12        66.99223
985.51        68.36662
985.89        71.46738
986.28        74.92458
986.66        76.78663
987.04         76.3159
987.43        74.10888
987.81        71.17874
988.20        69.63408
988.58        70.02792
988.96        71.77136
989.35         73.6966
989.73        74.14518
990.12        72.63966
990.50          69.921
990.88        66.83934
991.27        64.72569
991.65        63.96984
992.03        64.18066
992.42        65.12645
992.80        66.78105
993.18        68.88728
993.56        71.51861
993.95        74.06876
994.33        75.49461
994.71        75.37757
995.10        74.01155
995.48        72.13205
995.86        70.97334
996.24        70.87116
996.63         71.4411
997.01        72.49701
997.39        73.43313
997.77        73.96894
998.15        74.33086
998.54        74.43582
998.92        74.14481
999.30        73.46077
999.68        72.36253
1000.06        71.20222
1000.45        70.65335
1000.83        70.96751
1001.21        71.99606
1001.59        73.33543
1001.97         74.2617
1002.35        74.56529
1002.73        74.46595
1003.12        74.19823
1003.50        74.05166
1003.88        74.19657
1004.26        74.55132
1004.64        75.08401
1005.02        75.76778
1005.40        76.49046
1005.78        77.12342
1006.16        77.71234
1006.54        78.34371
1006.92        79.00786
1007.30        79.75241
1007.69        80.04461
1008.07        79.00425
1008.45        76.41039
1008.83        72.59507
1009.21        68.82703
1009.59        67.16009
1009.97        68.06754
1010.35        70.93321
1010.73        74.51748
1011.11        76.71185
1011.49        76.87363
1011.86        75.71271
1012.24        73.63558
1012.62        71.49194
1013.00        69.61296
1013.38        67.65894
1013.76        65.94732
1014.14        65.25288
1014.52        65.78798
1014.90        67.46939
1015.28        69.51933
1015.66        70.58631
1016.04        70.35392
1016.41        69.24178
1016.79        67.63776
1017.17        66.52653
1017.55        66.33559
1017.93        66.64352
1018.31        67.44877
1018.69        68.97636
1019.06        71.42924
1019.44        75.04536
1019.82        79.63869
1020.20        82.92846
1020.58        83.00822
1020.95        80.24532
1021.33        76.49352
1021.71         73.5393
1022.09        71.46321
1022.46         69.6095
1022.84        67.91638
1023.22        65.89381
1023.60        64.01404
1023.97        63.01718
1024.35        63.03979
1024.73        64.05592
