SpectraSmart Spectrum 2.9.0.0
--------- Device Information -----------
Spectrum Name :  反射率_0
Saving Time :  2024/04/30 01:11:52
Spectro-Module Model Name : SE2030-DUVN
Spectro-Module Serial Number : OS361AC55029948
Wavelength Start : 200
Wavelength End : 1025
Wavelength Unit : Wavelength(nm)
Spectrum Unit : Reflectance(%)
-----------Spectrum Setting ------------
Integration Time : 20ms
Average : 10
Boxcar : 0
Background removal :  enabled
linearity correction :  enabled
SC :  disabled
Intensity correction :  disabled
DWT denoise :  enabled
savitzky-golay :  disabled
FFT :  disabled
Running average :  disabled
Kalman :  disabled
High pass :  disabled
---------------BEGIN--------------------
Wavelength(nm)             Reflectance(%)
200.29               0
200.75        70.90319
201.21        63.32048
201.67        56.54762
202.13         50.3672
202.58        45.19903
203.04         41.5979
203.50        41.93214
203.96        50.83222
204.42        68.50293
204.88        91.13136
205.34        110.3373
205.80        115.2791
206.26        107.3576
206.72        94.35096
207.18         81.1459
207.64        69.69539
208.10         59.3919
208.55        48.70972
209.01        39.24553
209.47        36.57836
209.93        41.43402
210.39        50.69947
210.85        59.60256
211.31        64.50208
211.77        65.48188
212.23        62.93041
212.69        58.17047
213.14        57.51275
213.60        62.73919
214.06        70.43015
214.52        76.18128
214.98        77.29876
215.44        74.61684
215.90        69.41563
216.36        64.41258
216.81        64.82442
217.27        73.53933
217.73         91.6139
218.19        117.4962
218.65        137.2942
219.11        140.2813
219.57        130.3322
220.02        118.6871
220.48        114.8321
220.94        118.4646
221.40        128.2718
221.86        140.0303
222.32        140.2198
222.77        126.4971
223.23        110.0998
223.69        98.67206
224.15        95.51915
224.61        99.18788
225.06        108.1263
225.52        119.3952
225.98        125.1814
226.44        123.3894
226.90        117.9729
227.36        113.4693
227.81        113.2871
228.27          117.44
228.73        124.3891
229.19        131.7325
229.65        134.2128
230.10        130.8171
230.56        125.2919
231.02        120.0018
231.48        116.8699
231.93        115.7344
232.39        115.7168
232.85        116.7715
233.31        119.1019
233.77        122.4731
234.22         127.174
234.68        131.3939
235.14        132.0089
235.60        128.4476
236.05        121.5652
236.51         114.501
236.97        111.3067
237.43        112.8372
237.88        119.1011
238.34        127.7662
238.80        132.2753
239.26        128.6469
239.71        118.9423
240.17         107.602
240.63        100.2677
241.08        98.26557
241.54        100.6349
242.00        108.2293
242.46         118.095
242.91        124.8692
243.37        126.9783
243.83         125.786
244.28        124.5483
244.74        123.8694
245.20        121.3132
245.66        117.6473
246.11        115.8323
246.57        117.0291
247.03        122.7693
247.48        127.6458
247.94        120.4851
248.40        104.6565
248.85        87.91334
249.31        77.83479
249.77        77.47022
250.22        86.57484
250.68        106.9958
251.14        138.7647
251.59        157.7402
252.05        145.9449
252.51        122.0026
252.96        103.2399
253.42        95.80929
253.88        96.10903
254.33        100.8201
254.79        107.1552
255.25        109.0532
255.70        105.7803
256.16        101.6695
256.62        99.02583
257.07        99.21569
257.53        102.2776
257.99        106.7799
258.44        110.8099
258.90        112.6267
259.35        111.5992
259.81        109.6579
260.27        107.7972
260.72        106.8872
261.18         107.218
261.63        107.7891
262.09        108.2343
262.55        107.4873
263.00         105.503
263.46        103.2223
263.91        100.9486
264.37        99.63614
264.83        99.13273
265.28        99.04992
265.74        99.21529
266.19        98.97655
266.65        98.35374
267.11        97.46584
267.56        96.49838
268.02        95.80171
268.47        95.35127
268.93        95.03676
269.38        94.64948
269.84        93.96773
270.30        92.93453
270.75         91.6529
271.21         90.3001
271.66        88.97382
272.12        87.74471
272.57        86.49519
273.03        85.26907
273.48        84.00413
273.94        82.80279
274.39        81.61289
274.85        80.50084
275.31        79.33034
275.76        78.05248
276.22        76.79848
276.67        75.56312
277.13        74.58508
277.58        73.76926
278.04        73.12702
278.49        72.46402
278.95        71.72734
279.40         70.8011
279.86        69.86197
280.31        68.83968
280.77        67.85988
281.22        66.87925
281.68        65.94875
282.13        65.11198
282.59        64.59606
283.04        64.31356
283.50        64.22048
283.95        64.02477
284.41        63.37959
284.86        62.20624
285.32        60.73592
285.77        59.17302
286.22        57.94415
286.68          57.155
287.13        56.62524
287.59        56.26685
288.04        55.83874
288.50          55.313
288.95          54.703
289.41        54.08758
289.86        53.47147
290.32        52.90197
290.77        52.34469
291.22        51.77044
291.68          51.145
292.13        50.46609
292.59        49.80556
293.04        49.27997
293.50        49.11722
293.95        49.30765
294.40        49.77988
294.86         50.3149
295.31        50.58489
295.77        50.50982
296.22        50.17336
296.68        49.75789
297.13        49.52443
297.58        49.55639
298.04         49.7456
298.49        49.98314
298.95        50.11304
299.40        50.07615
299.85        49.93987
300.31        49.75964
300.76        49.53537
301.21        49.32002
301.67        49.12554
302.12        48.93537
302.58        48.87731
303.03        48.93944
303.48        49.00716
303.94        49.04605
304.39         49.5082
304.84        49.48732
305.30        49.70617
305.75        49.85389
306.20        49.94693
306.66        49.99067
307.11        49.95947
307.57        49.89927
308.02        49.78022
308.47        49.62702
308.93        49.45591
309.38        49.25623
309.83        49.07228
310.29        48.92192
310.74        48.79865
311.19        48.68474
311.65        48.53933
312.10        48.34719
312.55        48.12155
313.00        47.92258
313.46        47.84285
313.91        47.87739
314.36         47.9948
314.82        48.09276
315.27        48.03388
315.72        47.77417
316.18        47.36296
316.63        46.88397
317.08        46.48296
317.53        46.21215
317.99        46.05291
318.44        45.94133
318.89        45.77884
319.35        45.54195
319.80        45.25788
320.25        45.01969
320.70        44.97474
321.16        45.12637
321.61        45.43631
322.06        45.73182
322.51         45.7435
322.97        45.40869
323.42        44.82176
323.87        44.15719
324.32        43.69823
324.78        43.51225
325.23        43.54433
325.68        43.67321
326.13        43.69473
326.59        43.53678
327.04         43.2811
327.49         43.0042
327.94        42.84457
328.39        42.83109
328.85        42.88607
329.30        42.95689
329.75        42.88895
330.20        42.64771
330.66        42.29311
331.11        41.90841
331.56        41.58638
332.01        41.36893
332.46        41.22615
332.92        41.15854
333.37        41.22029
333.82        41.38445
334.27        41.63596
334.72        41.89044
335.17        42.00475
335.63        41.93538
336.08        41.73723
336.53         41.4618
336.98         41.2329
337.43          41.099
337.88         41.0248
338.34          41.013
338.79        41.08547
339.24        41.22267
339.69        41.43088
340.14        41.62985
340.59        41.67997
341.05        41.55941
341.50        41.30581
341.95        41.02876
342.40        40.91614
342.85        41.00516
343.30        41.22656
343.75        41.48217
344.20        41.61308
344.66        41.58538
345.11        41.45657
345.56        41.26412
346.01         41.0612
346.46         40.8886
346.91        40.73284
347.36        40.65347
347.81        40.74638
348.26        41.00758
348.72         41.3892
349.17        41.78964
349.62          42.019
350.07        42.02044
350.52        41.85554
350.97        41.58162
351.42          41.289
351.87         41.0284
352.32        40.78867
352.77        40.62142
353.22        40.61024
353.67        40.75572
354.13        41.01724
354.58        41.31873
355.03        41.52919
355.48        41.59848
355.93         41.5573
356.38        41.39401
356.83        41.10092
357.28         40.7036
357.73        40.21398
358.18        39.73248
358.63        39.41791
359.08        39.29809
359.53        39.32949
359.98         39.4041
360.43        39.34069
360.88        39.09395
361.33         38.7211
361.78        38.29708
362.23        37.94168
362.68        37.69436
363.13        37.51947
363.58          37.387
364.03        37.25194
364.48        37.09592
364.93        36.93172
365.38        36.77365
365.83        36.64146
366.28        36.53506
366.73        36.44052
367.18        36.32381
367.63        36.13577
368.08        35.87004
368.53        35.54775
368.98        35.21653
369.43        34.95065
369.88        34.77583
370.33        34.67966
370.78        34.62777
371.23        34.56281
371.68        34.46133
372.13        34.32336
372.58        34.18053
373.03        34.08613
373.48        34.03991
373.93        34.01872
374.38        33.94303
374.83        33.68909
375.28        33.25614
375.72        32.70522
376.17        32.18322
376.62          31.838
377.07        31.70021
377.52        31.70933
377.97        31.81894
378.42        31.94937
378.87        32.05361
379.32        32.14614
379.77        32.17803
380.22        32.07894
380.67        31.84471
381.11        31.48856
381.56        31.09685
382.01        30.82315
382.46        30.71195
382.91        30.73145
383.36        30.79621
383.81        30.76747
384.26        30.61316
384.71        30.37296
385.15        30.11647
385.60        29.98454
386.05        29.98635
386.50        30.06877
386.95        30.14487
387.40        30.08434
387.85        29.87143
388.29        29.55238
388.74        29.24128
389.19        29.00329
389.64         28.8582
390.09        28.76699
390.54        28.73624
390.98        28.77264
391.43        28.86984
391.88        29.01433
392.33        29.12105
392.78        29.09948
393.23        28.94694
393.67         28.6291
394.12         28.2674
394.57         28.2264
395.02        28.12101
395.47        28.23546
395.91        28.36584
396.36        28.36008
396.81        28.19303
397.26        27.92908
397.71        27.65356
398.15        27.47674
398.60        27.45621
399.05        27.48544
399.50        27.52063
399.95        27.62486
400.39         27.6373
400.84        27.56813
401.29        27.39684
401.74        27.25684
402.18        27.17203
402.63        27.05673
403.08        26.95172
403.53        26.94077
403.97        27.02497
404.42        27.18286
404.87        27.32969
405.32         27.3265
405.76        27.14325
406.21        26.83504
406.66        26.50574
407.11        26.32155
407.55         26.3303
408.00        26.48277
408.45        26.68772
408.90        26.77513
409.34        26.69553
409.79        26.49857
410.24        26.29685
410.68        26.25841
411.13        26.41616
411.58        26.71221
412.03        27.01828
412.47        27.12275
412.92        26.95942
413.37        26.61449
413.81        26.21847
414.26        25.99641
414.71        25.97917
415.15          26.108
415.60         26.2765
416.05        26.33023
416.49        26.22879
416.94        26.03485
417.39        25.81529
417.83        25.66711
418.28        25.62457
418.73        25.63961
419.17        25.70497
419.62        25.81797
420.07        25.95619
420.51         26.1154
420.96        26.23678
421.41        26.21194
421.85         26.0271
422.30        25.75099
422.74        25.45654
423.19        25.29293
423.64        25.28068
424.08        25.38855
424.53        25.55873
424.98         25.7254
425.42         25.8564
425.87        25.94594
426.31        25.97976
426.76        25.97624
427.21        25.85896
427.65        25.67504
428.10        25.45138
428.54        25.22496
428.99        25.03855
429.44        25.00073
429.88        25.05388
430.33        24.88772
430.77        24.61626
431.22         24.8189
431.66        25.41058
432.11         25.7365
432.56        25.68633
433.00        25.50617
433.45        25.27043
433.89        25.08199
434.34        24.98396
434.78        25.09085
435.23        24.92192
435.67         24.9042
436.12        24.90024
436.57        24.88546
437.01        24.86744
437.46        24.87753
437.90        24.91816
438.35        24.97183
438.79         25.0339
439.24        25.05718
439.68        25.06726
440.13        25.17483
440.57        25.31393
441.02        25.35987
441.46        25.29924
441.91        25.04269
442.35        24.70773
442.80        24.89529
443.24        25.42359
443.69        25.28692
444.13         24.5828
444.58        24.30405
445.02        24.45799
445.47        24.52636
445.91         24.4725
446.36        24.49605
446.80        24.58065
447.24        24.67663
447.69        24.77094
448.13        24.84167
448.58        24.88442
449.02        24.89887
449.47         24.9038
449.91        24.91319
450.36        24.93627
450.80        24.96919
451.25        24.99227
451.69        24.96595
452.13        24.88534
452.58        24.77308
453.02        24.66665
453.47        24.61935
453.91        24.63639
454.36        24.77307
454.80        24.85852
455.24        24.90642
455.69        24.86903
456.13        24.76499
456.58        24.65834
457.02        24.62557
457.46        24.68665
457.91        24.81194
458.35        24.93722
458.79        24.98348
459.24        24.94922
459.68         24.8727
460.13         24.7972
460.57        24.71066
461.01        24.82161
461.46        24.81017
461.90        24.72392
462.34        25.08328
462.79        25.26196
463.23         25.2024
463.68        24.82048
464.12        24.64553
464.56        24.70631
465.01        24.76239
465.45        24.77095
465.89        24.75545
466.34        24.75055
466.78        24.86297
467.22        25.11908
467.67        25.15514
468.11        24.97566
468.55        24.71941
468.99        24.47605
469.44        24.32215
469.88        24.28997
470.32        24.36819
470.77        24.50175
471.21        24.61353
471.65        24.66901
472.10         24.6956
472.54        24.71587
472.98        24.78633
473.42         24.9127
473.87        25.06686
474.31        25.19934
474.75        25.24917
475.20        25.21237
475.64        25.10721
476.08        24.97996
476.52         24.8942
476.97        24.86962
477.41         24.8854
477.85        24.93144
478.29        24.98725
478.74        25.05074
479.18        25.11154
479.62        25.15461
480.06        25.21531
480.50         25.3063
480.95        25.19021
481.39        25.26986
481.83         25.3224
482.27        25.48228
482.72        25.52275
483.16        25.76001
483.60        25.84858
484.04        25.88082
484.48        25.85074
484.93        25.81063
485.37        25.85751
485.81        25.97075
486.25        25.95704
486.69        25.76734
487.14        25.85619
487.58          26.301
488.02        26.32908
488.46        26.65529
488.90        27.16941
489.34        26.37354
489.79        26.38334
490.23        26.65843
490.67        26.82358
491.11        26.81844
491.55        26.76006
491.99        26.71583
492.43        26.79114
492.88        26.99104
493.32        27.20235
493.76        27.39242
494.20        27.59872
494.64        27.81692
495.08        28.02555
495.52        28.18099
495.96        28.28976
496.41        28.36159
496.85        28.23284
497.29        27.99681
497.73        28.29742
498.17        28.70111
498.61        28.75399
499.05        28.40063
499.49        28.29778
499.93         28.4963
500.37        28.73098
500.82        28.94527
501.26        29.11503
501.70        29.21725
502.14        29.29625
502.58        29.37903
503.02        29.47419
503.46        29.59019
503.90        29.72931
504.34        29.86617
504.78        29.95516
505.22        29.98729
505.66        29.97391
506.10        29.93889
506.54        29.95374
506.98        30.03681
507.42        30.10759
507.86        30.11948
508.30        30.33884
508.74         30.2023
509.18        30.17546
509.62        30.13111
510.06        30.14176
510.50        30.21782
510.94         30.3453
511.38        30.49498
511.82        30.60372
512.26        30.65308
512.70        30.65768
513.14        30.64313
513.58        30.64869
514.02        30.68635
514.46        30.74738
514.90         30.8078
515.34        30.83023
515.78        30.80843
516.22        30.75471
516.66        30.70864
517.10        30.73065
517.54        30.82766
517.98        30.97502
518.42        31.11737
518.86        31.16631
519.30        31.10269
519.74        30.95912
520.18        30.78565
520.62        30.65799
521.06         30.6023
521.50        30.60261
521.93        30.64511
522.37        30.69017
522.81        30.72646
523.25        30.76963
523.69        30.82894
524.13         30.8686
524.57        30.96353
525.01        31.03451
525.45        31.07759
525.89        31.05171
526.32        30.94786
526.76        30.79294
527.20        30.61384
527.64        30.45422
528.08        30.33142
528.52        30.24004
528.96        30.17998
529.40        30.14858
529.83        30.13807
530.27        30.14869
530.71        30.16942
531.15        30.18521
531.59        30.18814
532.03          30.179
532.46         30.1449
532.90        30.07987
533.34        29.98694
533.78        29.87634
534.22        29.77463
534.66        29.72124
535.09        29.72115
535.53        29.76892
535.97        29.84129
536.41         29.9072
536.85         29.9516
537.28        29.97695
537.72        29.98223
538.16        29.96793
538.60        29.93754
539.04        29.89689
539.47        29.84022
539.91        29.78702
540.35        29.73756
540.79        29.69881
541.22        29.69149
541.66        29.75163
542.10        29.87834
542.54        30.05855
542.97        30.25657
543.41        30.42153
543.85        30.53902
544.29         30.6319
544.72        30.70257
545.16        30.77672
545.60        30.86312
546.04        30.93982
546.47        31.03793
546.91         31.2562
547.35        31.57291
547.79        31.86269
548.22        32.07014
548.66        32.28366
549.10        32.50043
549.53        32.56384
549.97        32.45259
550.41        32.80455
550.84        32.65309
551.28        32.73263
551.72        32.75701
552.15        33.00464
552.59        33.06027
553.03        33.28037
553.46        33.52627
553.90        33.62778
554.34        33.78379
554.77        33.86506
555.21        33.95262
555.65        33.98247
556.08        33.99371
556.52        34.13563
556.96        34.36596
557.39        34.54292
557.83        34.64214
558.27        34.65998
558.70        34.64752
559.14        34.72918
559.57        34.88787
560.01        35.05825
560.45        35.19665
560.88        35.13874
561.32        35.10159
561.75        35.11227
562.19        35.22484
562.63        35.27598
563.06        35.26218
563.50        35.29478
563.93        35.36872
564.37        35.46194
564.80        35.56144
565.24         35.6786
565.68        35.79728
566.11        35.91624
566.55         36.0312
566.98        36.08888
567.42         36.1402
567.85        36.19841
568.29        36.27656
568.72        36.46288
569.16        36.79194
569.60        36.59377
570.03        37.00505
570.47        37.09964
570.90        37.16355
571.34        37.39488
571.77         37.4058
572.21        37.50468
572.64        37.58721
573.08        37.68629
573.51        37.82615
573.95        38.03071
574.38        38.43731
574.82        38.34266
575.25        38.21829
575.69         38.2038
576.12         38.1285
576.56        38.26316
576.99        38.45996
577.42        38.31461
577.86        38.28455
578.29        38.27814
578.73        38.47859
579.16        38.19436
579.60        38.07048
580.03        38.10147
580.47        38.17749
580.90        38.18214
581.33        38.05916
581.77        38.10727
582.20        38.04792
582.64        38.06609
583.07        37.76306
583.51        37.43966
583.94        37.17829
584.37        37.01177
584.81        37.03689
585.24        37.22375
585.68        37.22458
586.11        37.53382
586.54        36.99212
586.98        36.91246
587.41        37.38464
587.85        37.39766
588.28        37.08431
588.71        37.23321
589.15        36.97803
589.58        36.93183
590.01        36.81623
590.45        36.74118
590.88        36.77181
591.31        36.95797
591.75        37.15983
592.18        37.33097
592.61         37.5283
593.05        36.78703
593.48        37.03235
593.91        37.38171
594.35        36.96844
594.78         37.0569
595.21        37.24796
595.65        37.36926
596.08        37.13115
596.51        37.71032
596.94        37.81802
597.38        38.15133
597.81         38.3285
598.24        38.25031
598.68        38.40823
599.11        38.74761
599.54        39.20369
599.97        39.76394
600.41        39.28007
600.84        39.63826
601.27        39.99764
601.70         40.2818
602.14        40.73178
602.57        40.85854
603.00        40.86303
603.43        41.18577
603.87         41.7039
604.30        42.13794
604.73        42.43674
605.16        42.73969
605.60        43.04799
606.03        43.48492
606.46        43.94564
606.89        44.27388
607.32        44.49049
607.76         44.7488
608.19        45.06956
608.62        45.32632
609.05        45.57269
609.48        45.90996
609.92        46.26896
610.35         46.6151
610.78        46.91293
611.21        46.67745
611.64        47.04176
612.07         47.2831
612.50        47.66838
612.94        48.04451
613.37        48.45386
613.80         48.3383
614.23        48.90416
614.66        49.04876
615.09        49.13952
615.52        49.34087
615.96        49.63638
616.39         49.7046
616.82        49.55328
617.25        49.93755
617.68        49.93364
618.11        50.33475
618.54        50.75411
618.97        50.88209
619.40        50.76653
619.84        50.82614
620.27        51.13117
620.70        51.42414
621.13        51.59724
621.56        51.66385
621.99        51.64263
622.42        51.30771
622.85        51.78652
623.28        51.86163
623.71        52.34971
624.14        51.43918
624.57        52.20185
625.00        52.10287
625.43        52.00945
625.86        51.81298
626.29        51.55706
626.72        51.65796
627.15        51.42458
627.58        51.51169
628.01         51.6266
628.44        51.40292
628.87        50.91964
629.30        50.76998
629.73        50.94319
630.16        50.89474
630.59        50.57555
631.02        50.44617
631.45        50.27246
631.88        50.05054
632.31        49.69887
632.74        49.41668
633.17        48.97242
633.60        48.62346
634.03        48.31004
634.46        48.01976
634.89        47.72997
635.32        47.41676
635.75        47.07484
636.18        46.70495
636.61        46.33735
637.04        46.02745
637.47        45.79315
637.89        45.58722
638.32        45.34386
638.75        45.09499
639.18        44.85064
639.61        44.17719
640.04         43.9343
640.47        43.56986
640.90        43.34558
641.33        43.22491
641.76        43.16591
642.18        43.08569
642.61        42.94054
643.04        42.76464
643.47         42.6124
643.90        42.55521
644.33        42.60163
644.76        42.77791
645.18        42.99599
645.61         42.9971
646.04        42.72316
646.47        42.71283
646.90        42.93383
647.33        43.04198
647.75        43.02919
648.18        43.12263
648.61        43.34165
649.04        43.59755
649.47        43.89064
649.89        44.29023
650.32         44.7364
650.75        45.08339
651.18        45.33176
651.61        45.63526
652.03        46.04682
652.46        46.43392
652.89        46.73043
653.32        47.21216
653.74        47.94423
654.17        47.77528
654.60        47.64414
655.03        49.16208
655.46        48.40792
655.88        49.31372
656.31        52.18904
656.74        52.33786
657.16        51.31357
657.59        50.08423
658.02        50.44189
658.45        51.85007
658.87        52.13419
659.30          52.091
659.73        52.59729
660.15        53.16702
660.58        53.02113
661.01        53.23336
661.44        53.48168
661.86         53.3702
662.29        53.05595
662.72        53.46001
663.14        54.43614
663.57        54.61057
664.00        54.07365
664.42        54.02538
664.85        54.52335
665.27        54.88391
665.70        55.03482
666.13        55.20612
666.55        55.39182
666.98        55.52689
667.41        55.62527
667.83        55.70171
668.26        55.75785
668.69        55.80799
669.11        55.86978
669.54        55.95869
669.96        56.07941
670.39        56.25893
670.82        56.46954
671.24        56.59794
671.67        56.65618
672.09        56.81255
672.52        57.06895
672.94        57.33998
673.37        57.17783
673.80         57.6876
674.22        57.58858
674.65        57.80259
675.07         57.9954
675.50         58.1944
675.92        58.38053
676.35        58.51557
676.77         58.6092
677.20        58.64948
677.62        58.68723
678.05        58.80288
678.47        59.00521
678.90        59.27762
679.32        59.53586
679.75        59.65456
680.17        59.60396
680.60        59.43456
681.02        59.24888
681.45        59.19178
681.87        59.29944
682.30        59.57958
682.72        59.95322
683.15        60.07169
683.57        59.99622
684.00        60.18494
684.42        60.58109
684.85          60.776
685.27        60.76268
685.70        60.64169
686.12        60.53324
686.54        60.91842
686.97        61.66278
687.39         61.9693
687.82        61.75417
688.24        61.94584
688.66        61.97985
689.09        61.93531
689.51         61.6925
689.94        61.56598
690.36         61.5904
690.78        61.64617
691.21        61.73472
691.63        61.96114
692.06        62.25332
692.48        62.36777
692.90        62.32339
693.33        62.36943
693.75        62.51887
694.17        62.60867
694.60        62.65224
695.02        62.72627
695.44        62.82467
695.87        63.03864
696.29        63.32031
696.71        63.26963
697.14        63.03388
697.56        63.22345
697.98        63.77174
698.41        64.02753
698.83        63.96103
699.25        63.97263
699.68        64.07499
700.10        64.13829
700.52        64.15654
700.94        64.19391
701.37        64.23064
701.79        64.24031
702.21        64.21507
702.64        64.17243
703.06        64.15576
703.48        64.24142
703.90        64.44498
704.33        64.75922
704.75        65.08054
705.17         65.3007
705.59        65.36089
706.01        65.29465
706.44         65.2006
706.86        65.20657
707.28        65.33578
707.70        65.65342
708.12        66.05423
708.55        66.11214
708.97        65.91449
709.39        66.08829
709.81        66.60493
710.23        66.88507
710.66        66.88532
711.08        66.95848
711.50        67.11291
711.92        67.22189
712.34         67.2888
712.76         67.3746
713.19        67.47024
713.61        67.45808
714.03        67.55016
714.45        67.56347
714.87        67.58151
715.29        67.62383
715.71        67.69798
716.13        67.79433
716.56        67.87576
716.98        67.98408
717.40        68.08862
717.82        68.14938
718.24        68.17985
718.66        68.29555
719.08        68.45636
719.50        68.44807
719.92        68.30444
720.34        68.26478
720.76         68.3467
721.19        68.41268
721.61        68.45309
722.03        68.48535
722.45        68.49883
722.87        68.48117
723.29        68.44682
723.71         68.4252
724.13        68.42524
724.55        68.44308
724.97        68.47099
725.39        68.49429
725.81        68.51513
726.23        68.54526
726.65        68.60204
727.07        68.71457
727.49        68.88187
727.91          69.075
728.33        69.27663
728.75        69.47276
729.17        69.64829
729.59        69.78816
730.01        69.83735
730.43         69.8445
730.85        69.60279
731.27        69.33374
731.69        69.09466
732.10        69.08176
732.52        69.32279
732.94        69.75629
733.36        70.28265
733.78        70.66697
734.20        70.82355
734.62        70.93074
735.04        71.00034
735.46        70.78452
735.88        70.44146
736.30         70.5758
736.72        71.10113
737.13        71.33132
737.55        71.12904
737.97        70.87136
738.39        70.66098
738.81        70.33732
739.23        70.07513
739.65        70.46811
740.06        71.26874
740.48        71.60706
740.90        71.38708
741.32        71.05396
741.74        70.78099
742.16        70.66364
742.57         70.7768
742.99        71.09322
743.41        71.49554
743.83        71.71286
744.25        71.72759
744.67         71.7673
745.08        71.86755
745.50        71.91119
745.92        71.92118
746.34        71.96262
746.75         72.0408
747.17        72.11927
747.59        72.19473
748.01        72.30491
748.42        72.43513
748.84        72.43827
749.26        72.48873
749.68        72.40522
750.09        72.27532
750.51        72.31177
750.93        72.46134
751.35        72.43645
751.76        72.25692
752.18          72.189
752.60        72.24632
753.01         72.2784
753.43        72.26863
753.85        72.31332
754.27        72.41881
754.68        72.55443
755.10        72.67917
755.52        72.83276
755.93        72.96184
756.35        72.98421
756.77        73.03922
757.18        73.21033
757.60        73.49311
758.02        74.33671
758.43        75.26821
758.85        74.55004
759.26        72.65812
759.68        72.01492
760.10        72.68671
760.51        73.57639
760.93        73.40823
761.34         73.5601
761.76         73.8631
762.18        73.66235
762.59        73.18053
763.01        72.90851
763.42        72.93558
763.84        72.98042
764.26         73.0949
764.67        72.98096
765.09        73.45594
765.50        73.84896
765.92        74.29579
766.33        74.42216
766.75        74.15861
767.16        74.06983
767.58        74.15927
768.00        73.89108
768.41        73.44392
768.83        73.79301
769.24        74.64841
769.66        74.71082
770.07        74.06757
770.49        73.44905
770.90        73.59978
771.32        73.95211
771.73        74.52438
772.15        74.72031
772.56        74.48463
772.97        74.44584
773.39        74.18824
773.80        74.23219
774.22        74.42329
774.63        74.80301
775.05        75.19633
775.46        75.41468
775.88        75.37879
776.29        75.18838
776.70         74.9297
777.12         74.7725
777.53        74.76392
777.95        74.81375
778.36         74.9289
778.77        75.07001
779.19        75.21813
779.60        75.56059
780.02        75.91794
780.43        75.85825
780.84        75.50677
781.26        75.21899
781.67        75.18005
782.09        75.93936
782.50        77.10148
782.91         76.9791
783.33        75.72137
783.74         75.1929
784.15        75.50535
784.57        75.56409
784.98        75.32883
785.39        75.27184
785.81        75.40689
786.22        75.60294
786.63        75.87609
787.04        76.25291
787.46        76.70287
787.87        77.17448
788.28        77.61072
788.70        77.87139
789.11        77.91439
789.52         77.9239
789.93        77.87261
790.35        77.44083
790.76        76.80706
791.17         76.6039
791.58        76.86125
792.00        77.06408
792.41        77.16856
792.82        77.46626
793.23        77.87469
793.65        77.95667
794.06        77.79179
794.47        77.90648
794.88        78.21954
795.29        78.20476
795.71        77.82121
796.12        77.42462
796.53        77.14304
796.94        77.03419
797.35        77.16978
797.76        77.61627
798.18         78.1997
798.59        78.59313
799.00        78.69443
799.41        78.62209
799.82        78.45489
800.23        78.31271
800.64         78.2528
801.06        78.21152
801.47        78.22874
801.88        78.30215
802.29        78.41885
802.70        78.54031
803.11        78.65359
803.52        78.79974
803.93        78.94843
804.34        78.95475
804.75        78.80604
805.17        78.72942
805.58        78.79705
805.99        78.60138
806.40        78.28573
806.81        78.79921
807.22        79.85094
807.63        79.83064
808.04        78.86022
808.45        78.56258
808.86        79.05542
809.27        79.40451
809.68        79.47239
810.09        79.49831
810.50        79.45581
810.91        79.27921
811.32        79.08951
811.73        79.08167
812.14        79.29247
812.55        79.67793
812.96        80.09702
813.37        80.27792
813.78         80.1498
814.19         79.8159
814.60        79.41405
815.01        79.13197
815.42        79.02311
815.83        79.03316
816.24        79.13031
816.65        79.25431
817.05        79.36878
817.46        79.44937
817.87         79.5174
818.28         79.5408
818.69        79.52129
819.10        79.47236
819.51         79.3966
819.92        79.31318
820.33        79.23774
820.74        79.15392
821.14        79.13298
821.55        79.29053
821.96        79.62769
822.37        80.12813
822.78         80.6137
823.19        80.75879
823.60        80.48026
824.00        79.86584
824.41        79.16994
824.82        78.82876
825.23        78.94254
825.64        79.40616
826.04        79.99143
826.45        80.19876
826.86         79.9298
827.27        79.34202
827.68        78.70029
828.08        78.44212
828.49        78.63412
828.90        79.17337
829.31        79.88176
829.72        80.45458
830.12        80.81134
830.53        80.95503
830.94        81.01546
831.35        81.16027
831.75        81.45535
832.16         81.7469
832.57        81.96542
832.97        81.96764
833.38        81.72924
833.79        81.36865
834.20        80.95119
834.60        80.53458
835.01        80.19447
835.42        79.89439
835.82        79.76823
836.23        79.95872
836.64        80.49687
837.04        81.36618
837.45        82.22778
837.86        82.67917
838.26        82.60018
838.67         82.0962
839.08        81.42329
839.48        80.97298
839.89         80.8953
840.29        81.06908
840.70        81.35474
841.11         81.5429
841.51        81.59188
841.92        81.53952
842.33        81.47629
842.73        81.52499
843.14        81.66218
843.54        81.87292
843.95          82.084
844.35        82.25517
844.76        82.33514
845.17        82.31828
845.57        82.24847
845.98        82.15776
846.38        82.08495
846.79        82.03392
847.19        81.91999
847.60        81.54691
848.00        80.93912
848.41        80.18563
848.81        79.58169
849.22        79.56103
849.62        80.23051
850.03         81.4082
850.43        82.80461
850.84        83.66264
851.24        83.81022
851.65        83.32287
852.05        82.53587
852.46         81.9685
852.86        81.77011
853.27        81.86092
853.67        81.95368
854.07        81.87613
854.48        81.52776
854.88        81.01783
855.29        80.44096
855.69        80.23078
856.10        80.39253
856.50        80.89919
856.90        81.40608
857.31         81.4488
857.71        80.98588
858.12        80.13454
858.52        79.22541
858.92        78.74696
859.33        78.82729
859.73        79.36314
860.13        80.12791
860.54        80.76337
860.94        81.18405
861.34        81.38953
861.75        81.38161
862.15        81.23723
862.55        80.95595
862.96        80.55322
863.36        79.96938
863.76        79.14658
864.17        78.16439
864.57        77.12637
864.97        76.28174
865.38        75.93446
865.78        76.17354
866.18        76.89066
866.58        77.91203
866.99        78.82855
867.39        79.49159
867.79        79.91843
868.19        80.06908
868.60        79.91898
869.00         79.5132
869.40        78.84322
869.80        78.17281
870.21        77.96127
870.61        78.35778
871.01        79.21394
871.41         80.1478
871.81        80.53149
872.22        80.20546
872.62        79.34522
873.02        78.30046
873.42        77.66039
873.82        77.60805
874.22        78.00665
874.63        78.53777
875.03        78.70942
875.43        78.41756
875.83        77.80389
876.23        77.26451
876.63        77.44444
877.03        78.44871
877.44        79.99351
877.84        81.56554
878.24         82.2295
878.64        81.79476
879.04        80.62917
879.44        79.24452
879.84        78.38588
880.24        78.24559
880.64        78.56239
881.04        79.20298
881.44        79.94757
881.84        80.66475
882.24        81.44621
882.65        82.03981
883.05        82.14434
883.45        81.66951
883.85        80.74816
884.25        79.77805
884.65        79.38829
885.05        79.69705
885.45        80.47239
885.85        81.48209
886.25        82.30429
886.65        82.74596
887.05        82.95728
887.45        82.77845
887.85        81.96721
888.25        80.63711
888.65        78.96164
889.04        77.45126
889.44         76.8702
889.84        77.26194
890.24        78.45779
890.64        80.03395
891.04        81.06327
891.44        81.19051
891.84        80.69257
892.24        79.95583
892.64         79.5252
893.04        79.53197
893.44        79.78044
893.83        80.18954
894.23        80.55272
894.63         80.8128
895.03        81.04981
895.43        81.23612
895.83         81.3085
896.23        81.25917
896.63        81.06459
897.02        80.79763
897.42        80.65346
897.82        80.65992
898.22         80.8203
898.62        80.97778
899.01        80.87309
899.41        80.45479
899.81        79.80671
900.21        79.22844
900.61        79.17875
901.00        79.72298
901.40        80.71447
901.80        81.71889
902.20        82.02544
902.59        81.47357
902.99        80.29025
903.39        78.95884
903.79        78.20892
904.18        78.20812
904.58        78.76453
904.98        79.49034
905.38        79.78768
905.77        79.48708
906.17        78.78621
906.57        78.01398
906.96        77.71022
907.36        77.97085
907.76        78.65153
908.15        79.41032
908.55        79.55669
908.95        79.01489
909.34        78.01619
909.74        77.09695
910.14         76.9317
910.53        77.69798
910.93        79.10693
911.33          80.825
911.72        82.34512
912.12        83.36948
912.52         84.0242
912.91        84.37154
913.31        84.50497
913.70         84.4838
914.10        84.22785
914.49        83.71511
914.89        82.91887
915.29        81.91919
915.68        80.84102
916.08        79.91698
916.47        79.33687
916.87        79.20116
917.26        79.39158
917.66        79.87363
918.05        80.60993
918.45        81.45345
918.84        82.42909
919.24        83.18356
919.64        83.29868
920.03        82.71492
920.42        81.55729
920.82        80.26549
921.21        79.41336
921.61        79.17813
922.00        79.43997
922.40        79.99932
922.79        80.58277
923.19        81.02105
923.58        81.39431
923.98        81.70374
924.37         81.9638
924.77        82.16564
925.16        82.27035
925.55        82.23286
925.95        82.01522
926.34         81.6606
926.74        81.21049
927.13        80.77175
927.52        80.46043
927.92        80.32918
928.31        80.34066
928.70        80.48238
929.10        80.70834
929.49        80.97945
929.89        81.24591
930.28        81.46938
930.67        81.49699
931.07        81.30744
931.46        80.98865
931.85        80.58154
932.24        80.15664
932.64        79.77851
933.03        79.45524
933.42        79.33609
933.82        79.64633
934.21        80.41135
934.60          81.461
934.99        82.55933
935.39        83.29211
935.78        83.58012
936.17         83.5138
936.56         82.9828
936.96        81.90966
937.35        80.43797
937.74        78.69073
938.13        77.22951
938.53        76.74857
938.92        77.29141
939.31        78.75902
939.70        80.56168
940.09        81.51761
940.49        81.25351
940.88        80.10066
941.27        78.76817
941.66        78.34604
942.05        79.06905
942.44        80.63548
942.84        82.38488
943.23        83.21412
943.62        82.72433
944.01        81.29474
944.40        79.68499
944.79        78.98768
945.18         79.4512
945.57        80.76966
945.97        82.23906
946.36        82.89925
946.75         82.3656
947.14        80.99353
947.53        79.51148
947.92        79.00105
948.31         79.7163
948.70        81.33953
949.09        83.18915
949.48        84.05143
949.87        83.56216
950.26        82.11462
950.65        80.45184
951.04        79.59337
951.43        79.77365
951.82        80.73128
952.21        81.89037
952.60        82.22472
952.99        81.45877
953.38        79.94915
953.77        78.46089
954.16        77.98848
954.55         78.7239
954.94        80.48215
955.33        82.49969
955.72        83.15452
956.11        81.94395
956.50        79.43193
956.89          76.918
957.28        76.10046
957.66        77.32688
958.05        80.05825
958.44        83.25754
958.83        84.80269
959.22        84.00189
959.61        81.62465
960.00        78.87603
960.39        77.27393
960.78        77.10881
961.16        77.95563
961.55        79.18961
961.94        79.70732
962.33        79.13616
962.72        78.00384
963.11        76.79969
963.49         76.1319
963.88        76.15585
964.27         76.5886
964.66        77.37606
965.04         78.5173
965.43        79.78445
965.82        81.19261
966.21        82.35757
966.60        82.58133
966.98        81.78863
967.37        80.32497
967.76        78.67299
968.15        77.47346
968.53        76.87017
968.92        76.61027
969.31        76.82621
969.69        77.75499
970.08        79.26287
970.47        81.40559
970.86        83.32635
971.24        83.56139
971.63        81.84354
972.02         78.7032
972.40        75.49412
972.79        74.32883
973.17        75.58581
973.56        78.52725
973.95        82.11725
974.33         84.3611
974.72        84.49723
975.11        83.20289
975.49        81.28181
975.88        80.26632
976.26        80.55855
976.65        81.56404
977.04        82.91116
977.42        83.96384
977.81        84.28329
978.19        84.24639
978.58        83.88029
978.96        83.07413
979.35         81.9726
979.74        80.62713
980.12        79.48751
980.51        79.29666
980.89        80.28311
981.28        82.04058
981.66        84.30333
982.05        86.27976
982.43        87.74195
982.82        88.76308
983.20        89.00101
983.59        87.81281
983.97        85.31967
984.35        81.83229
984.74        78.55547
985.12        77.12055
985.51        77.74137
985.89        80.06571
986.28        82.90954
986.66        84.60058
987.04        84.44006
987.43        82.94361
987.81        80.79149
988.20        79.47243
988.58        79.39485
988.96        80.14128
989.35        80.95152
989.73         80.8754
990.12        79.62764
990.50        77.71517
990.88        75.72464
991.27        74.54732
991.65         74.3997
992.03        75.02614
992.42        76.17515
992.80        77.79636
993.18        79.64606
993.56        81.71248
993.95        83.57699
994.33        84.62598
994.71        84.55679
995.10        83.64533
995.48        82.21183
995.86        80.82788
996.24        79.72911
996.63        78.68613
997.01        78.15508
997.39         78.6927
997.77        80.30715
998.15        82.84241
998.54         85.3528
998.92        86.37441
999.30        85.59414
999.68        83.35974
1000.06        80.66524
1000.45        79.42695
1000.83        80.35946
1001.21        82.87466
1001.59        86.09229
1001.97        88.55479
1002.35        89.70668
1002.73        89.89944
1003.12        89.39236
1003.50         88.4979
1003.88        87.46346
1004.26        86.26993
1004.64        84.91436
1005.02        83.49565
1005.40        82.17262
1005.78        81.01183
1006.16        80.42666
1006.54        80.93924
1006.92        82.56595
1007.30        85.22635
1007.69        88.05751
1008.07        89.36974
1008.45        88.44965
1008.83        85.70675
1009.21        82.33735
1009.59        80.47753
1009.97         80.7463
1010.35        82.44612
1010.73         84.8861
1011.11        86.88559
1011.49        87.95847
1011.86        88.60225
1012.24         88.4866
1012.62        87.24232
1013.00        84.89668
1013.38        81.36301
1013.76        77.55261
1014.14        75.55384
1014.52        76.10324
1014.90        78.74889
1015.28        82.02753
1015.66        83.51477
1016.04        82.56473
1016.41        79.91847
1016.79        76.41656
1017.17        73.99844
1017.55         73.4855
1017.93        74.16332
1018.31        75.49714
1018.69        77.20341
1019.06        79.44169
1019.44        82.46157
1019.82        86.59721
1020.20        90.97646
1020.58        94.00517
1020.95        95.00062
1021.33         94.2431
1021.71        92.30435
1022.09        89.26566
1022.46        84.62386
1022.84        78.67226
1023.22        73.20885
1023.60        70.30151
1023.97        70.03339
1024.35        71.50703
1024.73        73.52952
