SpectraSmart Spectrum 2.9.0.0
--------- Device Information -----------
Spectrum Name :  反射率_0
Saving Time :  2024/04/30 01:18:49
Spectro-Module Model Name : SE2030-DUVN
Spectro-Module Serial Number : OS361AC55029948
Wavelength Start : 200
Wavelength End : 1025
Wavelength Unit : Wavelength(nm)
Spectrum Unit : Reflectance(%)
-----------Spectrum Setting ------------
Integration Time : 20ms
Average : 10
Boxcar : 0
Background removal :  enabled
linearity correction :  enabled
SC :  disabled
Intensity correction :  disabled
DWT denoise :  enabled
savitzky-golay :  disabled
FFT :  disabled
Running average :  disabled
Kalman :  disabled
High pass :  disabled
---------------BEGIN--------------------
Wavelength(nm)             Reflectance(%)
200.29               0
200.75        27.18381
201.21        11.38935
201.67       -5.366033
202.13       -16.39669
202.58       -18.65347
203.04       -12.04986
203.50        1.350321
203.96        15.65338
204.42        27.06187
204.88        35.54726
205.34        41.01221
205.80        44.22772
206.26        45.72738
206.72        45.60114
207.18        44.18112
207.64        41.67451
208.10        38.11358
208.55        33.30887
209.01        28.46459
209.47        27.03505
209.93        29.52572
210.39        34.39917
210.85        38.19891
211.31        37.64831
211.77        32.21336
212.23        21.10972
212.69         6.49874
213.14        1.339387
213.60        11.25896
214.06        28.19578
214.52        42.51496
214.98        48.44275
215.44        47.37194
215.90        41.88792
216.36        34.90613
216.81        31.90214
217.27        35.85711
217.73        46.36655
218.19        63.02565
218.65        78.16703
219.11        84.15652
219.57        82.34348
220.02         77.4304
220.48        73.91251
220.94        71.53773
221.40        68.60109
221.86         63.7155
222.32        56.43059
222.77        49.36176
223.23        45.28105
223.69        43.01149
224.15         40.7423
224.61        38.05202
225.06        34.88372
225.52        33.03225
225.98        35.66898
226.44        41.96479
226.90        48.92884
227.36        54.24436
227.81        56.76047
228.27        57.00573
228.73        55.55676
229.19        52.97314
229.65        50.66216
230.10        49.40847
230.56        48.96569
231.02         48.8181
231.48        48.45631
231.93        47.70076
232.39        46.76057
232.85        45.89877
233.31        45.64511
233.77        46.13124
234.22        47.30545
234.68        48.42636
235.14        48.23545
235.60        46.57131
236.05        43.93865
236.51        41.61533
236.97        41.22477
237.43        43.17576
237.88        47.51766
238.34        53.56998
238.80        58.76384
239.26        60.91198
239.71        60.37635
240.17        58.13276
240.63        56.10405
241.08        54.81376
241.54        53.27021
242.00        51.74239
242.46        52.07508
242.91        55.99817
243.37        63.18266
243.83        69.62365
244.28        71.28512
244.74        67.69987
245.20        58.67747
245.66        47.04207
246.11        40.53658
246.57        43.61772
247.03        55.58799
247.48        71.04558
247.94        76.30447
248.40        70.08839
248.85        59.64738
249.31        52.52679
249.77        52.77262
250.22         60.6072
250.68        77.08083
251.14        101.8453
251.59        115.2897
252.05        103.9118
252.51        83.77263
252.96        67.88557
253.42        59.89831
253.88        56.84996
254.33        55.97177
254.79        56.57651
255.25         57.1272
255.70        56.89869
256.16        56.82776
256.62        56.69919
257.07        56.21832
257.53        55.74254
257.99        55.12707
258.44        54.27627
258.90        53.79099
259.35        53.38575
259.81        53.21613
260.27        53.12432
260.72        53.03187
261.18        53.04327
261.63        52.90055
262.09        52.62633
262.55        51.94552
263.00        50.86351
263.46        49.71854
263.91        48.49149
264.37        47.41908
264.83         46.4425
265.28        45.45729
265.74        44.63385
266.19        44.01444
266.65        43.66108
267.11        43.50658
267.56          43.371
268.02        42.98979
268.47        42.29281
268.93        41.36119
269.38        40.34861
269.84        39.64238
270.30        39.31109
270.75        39.22152
271.21        39.16654
271.66        38.81629
272.12        38.10852
272.57        37.13749
273.03        36.07085
273.48        35.08916
273.94        34.32625
274.39        33.68544
274.85        33.17509
275.31         32.7306
275.76        32.29795
276.22          31.915
276.67        31.53026
277.13        31.15439
277.58        30.74262
278.04        30.34646
278.49        29.89783
278.95        29.39913
279.40        28.82335
279.86        28.24593
280.31        27.71988
280.77        27.44068
281.22        27.37685
281.68        27.48153
282.13        27.61055
282.59        27.61324
283.04        27.43272
283.50        27.12016
283.95        26.71224
284.41        26.28594
284.86         25.8653
285.32         25.4716
285.77        25.07752
286.22        24.71149
286.68        24.39066
287.13        24.08727
287.59        23.84762
288.04        23.67831
288.50        23.59011
288.95        23.54495
289.41        23.50384
289.86        23.37215
290.32        23.15928
290.77        22.89325
291.22        22.63197
291.68        22.46488
292.13        22.40895
292.59        22.45477
293.04        22.61434
293.50        22.92878
293.95          23.384
294.40        23.96923
294.86        24.57776
295.31        25.05981
295.77        25.37647
296.22        25.55291
296.68        25.70504
297.13         25.9977
297.58        26.47249
298.04        27.04711
298.49        27.61141
298.95        27.98857
299.40        28.13857
299.85        28.12863
300.31        28.05261
300.76        27.99767
301.21        28.02524
301.67        28.11594
302.12        28.22507
302.58        28.42217
303.03        28.69597
303.48        28.89704
303.94        28.98852
304.39        29.65731
304.84        29.64553
305.30        29.93938
305.75        30.14161
306.20        30.28427
306.66        30.36504
307.11        30.38371
307.57        30.35588
308.02        30.23413
308.47        30.03734
308.93        29.79314
309.38        29.54218
309.83         29.3913
310.29        29.36165
310.74         29.4245
311.19        29.50751
311.65        29.48905
312.10        29.34021
312.55        29.09522
313.00         28.8377
313.46        28.69874
313.91        28.69203
314.36        28.77449
314.82        28.85393
315.27        28.80478
315.72         28.5862
316.18        28.24983
316.63        27.85843
317.08        27.52135
317.53         27.2789
317.99        27.11083
318.44        26.98067
318.89        26.83367
319.35         26.6528
319.80        26.45281
320.25        26.27769
320.70        26.19464
321.16         26.2022
321.61        26.28749
322.06        26.35705
322.51        26.26918
322.97        25.99484
323.42        25.58282
323.87        25.14484
324.32        24.86144
324.78         24.7675
325.23        24.82377
325.68        24.92395
326.13        24.88854
326.59        24.66399
327.04        24.31952
327.49        23.94089
327.94        23.67678
328.39        23.56401
328.85        23.53834
329.30        23.55403
329.75        23.49792
330.20        23.33729
330.66         23.1196
331.11        22.87016
331.56        22.60286
332.01        22.33656
332.46        22.05756
332.92        21.82104
333.37        21.75088
333.82        21.85793
334.27        22.10824
334.72        22.38046
335.17        22.46674
335.63        22.31151
336.08        21.97907
336.53        21.56511
336.98         21.2546
337.43        21.11091
337.88        21.07673
338.34        21.11404
338.79        21.18061
339.24        21.24362
339.69        21.33386
340.14        21.40606
340.59        21.37943
341.05        21.24568
341.50        21.01277
341.95        20.77866
342.40        20.71084
342.85        20.83512
343.30        21.09775
343.75        21.36265
344.20        21.41018
344.66        21.20312
345.11        20.81064
345.56        20.36563
346.01         20.0772
346.46        20.00747
346.91        20.08999
347.36        20.24722
347.81        20.36631
348.26        20.40483
348.72        20.38764
349.17        20.33512
349.62        20.27972
350.07        20.23239
350.52        20.18513
350.97         20.1043
351.42        19.94145
351.87        19.70527
352.32        19.43101
352.77        19.20483
353.22        19.15953
353.67        19.31727
354.13        19.62151
354.58        19.98399
355.03        20.26435
355.48        20.40709
355.93        20.44157
356.38        20.37859
356.83        20.24093
357.28        20.05271
357.73        19.81583
358.18        19.56715
358.63        19.36969
359.08         19.2374
359.53        19.15331
359.98        19.10721
360.43        19.07215
360.88        19.03495
361.33        19.01193
361.78        18.96148
362.23        18.81775
362.68        18.58218
363.13        18.27556
363.58        17.99679
364.03        17.90577
364.48         18.0256
364.93        18.29724
365.38        18.60172
365.83        18.74516
366.28        18.67656
366.73        18.45897
367.18        18.16634
367.63        17.91808
368.08        17.75594
368.53        17.64103
368.98        17.57001
369.43        17.53843
369.88        17.53606
370.33        17.57478
370.78        17.61518
371.23        17.58516
371.68        17.46989
372.13        17.28061
372.58        17.07339
373.03        16.94585
373.48        16.91689
373.93        16.95473
374.38        16.99894
374.83        16.94875
375.28        16.78576
375.72        16.55054
376.17        16.30985
376.62        16.12333
377.07        16.00952
377.52        15.94192
377.97        15.92431
378.42        15.96375
378.87        16.04885
379.32        16.17502
379.77        16.29072
380.22        16.32036
380.67        16.24932
381.11        16.08897
381.56        15.90208
382.01        15.79396
382.46        15.79225
382.91        15.87399
383.36        15.96328
383.81        15.94202
384.26        15.79143
384.71        15.54935
385.15        15.30543
385.60        15.22381
386.05        15.31751
386.50         15.5234
386.95        15.73031
387.40        15.76613
387.85        15.60236
388.29        15.30553
388.74         14.9829
389.19        14.72561
389.64        14.56191
390.09        14.45086
390.54        14.40461
390.98        14.44352
391.43        14.55565
391.88        14.72754
392.33        14.87578
392.78        14.89524
393.23        14.77967
393.67        14.53247
394.12        14.25335
394.57        14.18196
395.02        14.13755
395.47        14.24334
395.91        14.37936
396.36        14.43548
396.81        14.38442
397.26        14.26546
397.71        14.12013
398.15        14.00027
398.60        13.94219
399.05        13.89655
399.50        13.84855
399.95        13.83942
400.39        13.79247
400.84        13.71208
401.29        13.60128
401.74        13.54752
402.18         13.5631
402.63        13.59443
403.08        13.63202
403.53        13.67346
403.97         13.7092
404.42        13.73872
404.87        13.73866
405.32        13.67272
405.76        13.53632
406.21        13.34912
406.66        13.15843
407.11        13.04015
407.55        13.01613
408.00        13.06781
408.45        13.14478
408.90         13.1519
409.34        13.06335
409.79         12.9064
410.24         12.7535
410.68        12.71416
411.13        12.80815
411.58        12.99797
412.03        13.19307
412.47        13.24276
412.92        13.10333
413.37        12.83896
413.81        12.54481
414.26        12.38148
414.71        12.37269
415.15        12.47447
415.60        12.61701
416.05         12.7001
416.49        12.69067
416.94        12.62679
417.39        12.53507
417.83        12.45367
418.28        12.40169
418.73        12.35433
419.17        12.32343
419.62        12.33229
420.07        12.37759
420.51        12.45461
420.96           12.52
421.41        12.49704
421.85        12.37474
422.30        12.19494
422.74        12.00989
423.19        11.91716
423.64        11.92893
424.08         12.0209
424.53        12.14199
424.98        12.22577
425.42        12.24723
425.87        12.21597
426.31        12.14369
426.76         12.0699
427.21        11.96692
427.65        11.84983
428.10        11.72871
428.54        11.60332
428.99        11.49272
429.44        11.47556
429.88        11.51572
430.33        11.40941
430.77        11.22883
431.22        11.34135
431.66        11.69867
432.11        11.85077
432.56        11.73137
433.00        11.60668
433.45        11.50256
433.89        11.22035
434.34        10.91569
434.78        10.99882
435.23        11.36838
435.67        11.50264
436.12        11.36149
436.57        11.22525
437.01        11.16186
437.46        11.16908
437.90        11.26221
438.35        11.42497
438.79        11.59234
439.24        11.64345
439.68        11.57205
440.13         11.4634
440.57         11.3327
441.02        11.21421
441.46        11.13207
441.91        11.00093
442.35        10.86244
442.80        11.00876
443.24        11.33234
443.69        11.29397
444.13        10.93966
444.58        10.80365
445.02        10.88923
445.47        10.90907
445.91        10.84936
446.36         10.8347
446.80        10.86084
447.24        10.89964
447.69        10.93772
448.13        10.95612
448.58        10.95038
449.02        10.92659
449.47        10.90329
449.91        10.90235
450.36        10.92984
450.80        10.98011
451.25        11.03044
451.69        11.04464
452.13        11.01512
452.58        10.95976
453.02        10.90503
453.47        10.89356
453.91           10.93
454.36        11.02956
454.80        11.10957
455.24        11.16478
455.69        11.16941
456.13        11.13629
456.58        11.08889
457.02        11.05253
457.46        11.03917
457.91        11.03809
458.35        11.04181
458.79        11.04256
459.24        11.04589
459.68        11.06219
460.13        11.09306
460.57        11.08558
461.01        11.12551
461.46        11.10149
461.90        11.07113
462.34        11.18566
462.79         11.3981
463.23        11.45852
463.68        11.36674
464.12        11.33845
464.56        11.37908
465.01        11.37638
465.45        11.33203
465.89        11.29927
466.34        11.30201
466.78        11.37939
467.22        11.52712
467.67        11.55008
468.11         11.4431
468.55        11.28127
468.99        11.13126
469.44        11.06548
469.88        11.10387
470.32        11.22838
470.77        11.38275
471.21        11.48845
471.65        11.51522
472.10        11.49233
472.54        11.45143
472.98        11.45643
473.42        11.52091
473.87        11.61937
474.31        11.71915
474.75        11.77286
475.20        11.77474
475.64        11.74128
476.08          11.699
476.52        11.68447
476.97        11.70815
477.41        11.75367
477.85        11.81682
478.29         11.8892
478.74        11.96733
479.18        12.04751
479.62        12.11034
480.06        12.15645
480.50        12.18993
480.95        12.09954
481.39        12.10086
481.83        12.12873
482.27         12.2581
482.72        12.36897
483.16        12.57967
483.60        12.68364
484.04        12.71974
484.48        12.65464
484.93        12.56052
485.37        12.70179
485.81        12.97941
486.25        13.04941
486.69        12.49669
487.14        12.71415
487.58        13.43187
488.02        13.43484
488.46        13.42532
488.90        13.89983
489.34        13.21436
489.79        13.24313
490.23        13.40245
490.67         13.6712
491.11         13.9248
491.55        13.91765
491.99        13.73597
492.43        13.77904
492.88        14.06717
493.32        14.32381
493.76        14.49298
494.20        14.64706
494.64        14.77835
495.08        14.85931
495.52        14.90368
495.96        14.97865
496.41        15.10098
496.85        15.16465
497.29        15.18032
497.73        15.43779
498.17        15.68785
498.61        15.70101
499.05         15.4703
499.49        15.39101
499.93        15.50358
500.37         15.6534
500.82         15.8031
501.26        15.93038
501.70        16.01988
502.14        16.10404
502.58        16.19933
503.02        16.31042
503.46        16.44187
503.90        16.59032
504.34         16.7442
504.78         16.8841
505.22        17.00044
505.66        17.09169
506.10        17.15468
506.54        17.20589
506.98        17.25187
507.42        17.25668
507.86        17.20828
508.30        17.28209
508.74        17.16832
509.18        17.12989
509.62        17.09839
510.06        17.11955
510.50        17.19771
510.94        17.32331
511.38        17.46934
511.82        17.58022
512.26        17.63824
512.70        17.65459
513.14        17.64701
513.58        17.64571
514.02        17.66128
514.46        17.68631
514.90        17.71193
515.34        17.72489
515.78        17.72292
516.22        17.71215
516.66        17.70709
517.10        17.72827
517.54        17.77646
517.98        17.84105
518.42        17.89878
518.86        17.91317
519.30        17.87684
519.74        17.80437
520.18        17.71608
520.62        17.64237
521.06        17.59559
521.50        17.57065
521.93         17.5675
522.37        17.57961
522.81         17.6036
523.25        17.63676
523.69        17.67459
524.13        17.71028
524.57        17.73804
525.01        17.75507
525.45        17.74978
525.89        17.70645
526.32        17.62421
526.76        17.51693
527.20         17.4039
527.64         17.3155
528.08         17.2592
528.52        17.22607
528.96        17.20902
529.40        17.19453
529.83        17.17602
530.27        17.16197
530.71        17.14179
531.15         17.1009
531.59         17.0388
532.03        16.95729
532.46        16.87965
532.90         16.8491
533.34        16.87123
533.78        16.93511
534.22        17.00514
534.66        17.02587
535.09        16.98553
535.53        16.90625
535.97        16.82457
536.41         16.8049
536.85         16.8599
537.28        16.96587
537.72        17.08223
538.16        17.14836
538.60        17.14893
539.04        17.10851
539.47        17.04795
539.91        17.01537
540.35        17.02118
540.79        17.05817
541.22        17.12312
541.66         17.2146
542.10         17.3261
542.54        17.45732
542.97        17.60441
543.41        17.76052
543.85        17.91987
544.29        18.08271
544.72        18.22693
545.16        18.33452
545.60        18.40289
546.04        18.43267
546.47        18.45856
546.91        18.56522
547.35        18.75026
547.79         18.9329
548.22        19.08217
548.66         19.2518
549.10        19.43912
549.53        19.55118
549.97        19.56358
550.41        19.83953
550.84        19.78922
551.28        19.85913
551.72        19.88584
552.15        20.06566
552.59        20.15078
553.03        20.33323
553.46        20.51406
553.90        20.64941
554.34        20.72529
554.77        20.77816
555.21        20.82617
555.65        20.84293
556.08         20.8562
556.52        20.95633
556.96        21.12283
557.39        21.27442
557.83        21.39486
558.27        21.47816
558.70        21.54195
559.14        21.63993
559.57         21.7565
560.01        21.85716
560.45        21.92707
560.88         21.8832
561.32        21.86668
561.75        21.88949
562.19        21.98249
562.63        22.03823
563.06        22.05113
563.50        22.09158
563.93        22.15781
564.37        22.23601
564.80        22.31931
565.24        22.41762
565.68        22.51476
566.11         22.6009
566.55        22.67465
566.98        22.70506
567.42        22.74505
567.85        22.83469
568.29        22.98384
568.72        23.23448
569.16         23.5729
569.60        23.52589
570.03        23.81824
570.47        23.85014
570.90        23.82699
571.34         24.0343
571.77        24.05102
572.21        24.16509
572.64        24.22437
573.08        24.38656
573.51        24.68957
573.95        24.60151
574.38         24.8158
574.82        24.98875
575.25        24.68307
575.69        24.63137
576.12        24.66214
576.56        24.96197
576.99        25.21656
577.42         25.0399
577.86        25.09765
578.29        24.90598
578.73        24.76809
579.16        24.83791
579.60         24.7801
580.03        24.80655
580.47        24.65912
580.90          24.539
581.33        24.36634
581.77        24.62898
582.20        24.36151
582.64        24.22925
583.07        24.04087
583.51        23.92156
583.94        23.97149
584.37        23.90731
584.81        23.76356
585.24        23.77119
585.68        23.74483
586.11         23.8459
586.54        23.31097
586.98        23.37077
587.41        23.71489
587.85        23.59867
588.28        23.30392
588.71        23.50324
589.15        23.37583
589.58        23.36753
590.01        23.37409
590.45        23.38644
590.88        23.47554
591.31        23.52162
591.75        23.49303
592.18        23.60799
592.61        23.86012
593.05        23.44586
593.48        23.46012
593.91        23.56271
594.35        23.48408
594.78        23.61635
595.21        23.78582
595.65        23.76728
596.08        23.59272
596.51        24.02332
596.94        24.29384
597.38        24.60101
597.81         24.6721
598.24        24.84207
598.68        25.00309
599.11        25.17924
599.54        25.51775
599.97        25.67456
600.41        25.73083
600.84        26.15191
601.27        26.36083
601.70        26.80964
602.14        27.25007
602.57        27.49867
603.00        27.55589
603.43        27.74132
603.87        28.03394
604.30        28.33904
604.73        28.65485
605.16        29.09494
605.60        29.59258
606.03        29.93324
606.46        30.09374
606.89        30.37898
607.32        30.81008
607.76         31.1545
608.19        31.40554
608.62        31.72925
609.05        32.14276
609.48        32.47359
609.92        32.66401
610.35        33.06342
610.78        33.20338
611.21        33.20006
611.64         33.6875
612.07        33.96442
612.50        34.22061
612.94        34.57098
613.37        35.07055
613.80        35.05577
614.23        35.57732
614.66        35.77494
615.09        35.97746
615.52        36.07763
615.96        36.09024
616.39        36.47416
616.82         36.4659
617.25        36.79716
617.68        37.02683
618.11        37.27203
618.54        37.47033
618.97        37.70592
619.40        37.97626
619.84        38.21355
620.27        38.43982
620.70        38.63157
621.13        38.72847
621.56        39.02022
621.99        38.83894
622.42        38.76528
622.85        39.24405
623.28        39.16999
623.71        39.55515
624.14        38.98406
624.57        39.38277
625.00        39.32547
625.43        39.30989
625.86        39.29173
626.29        39.25101
626.72         39.2478
627.15        39.09563
627.58        38.95611
628.01        38.80094
628.44        38.66428
628.87        38.55495
629.30        38.48341
629.73        38.42663
630.16        38.30247
630.59        38.08998
631.02        37.90814
631.45        37.59275
631.88        37.28314
632.31        36.93622
632.74        36.57608
633.17        36.17859
633.60        35.78867
634.03        35.40442
634.46        35.02081
634.89        34.64569
635.32        34.29102
635.75        33.95785
636.18        33.64489
636.61        33.33158
637.04        32.98926
637.47        32.62052
637.89        32.21099
638.32        31.78371
638.75        31.47453
639.18         31.3122
639.61        30.95552
640.04        30.92207
640.47         30.6913
640.90        30.41373
641.33        30.10447
641.76        29.80084
642.18        29.55853
642.61        29.38485
643.04        29.26919
643.47        29.21047
643.90        29.19629
644.33        29.21313
644.76        29.30219
645.18        29.41834
645.61        29.40657
646.04        29.23313
646.47        29.25013
646.90         29.4321
647.33        29.54334
647.75        29.57542
648.18        29.68609
648.61        29.87844
649.04        30.08593
649.47         30.3162
649.89        30.59129
650.32        30.89068
650.75        31.25407
651.18        31.65808
651.61        31.92937
652.03        32.12343
652.46        32.60253
652.89        33.25883
653.32        33.56124
653.74        33.56137
654.17        33.71967
654.60        33.73402
655.03        34.81473
655.46        34.34636
655.88        35.26004
656.31        37.09365
656.74        36.31055
657.16        35.77625
657.59        35.55829
658.02        36.00762
658.45        37.12554
658.87        37.72369
659.30        37.95533
659.73        38.10914
660.15        38.58298
660.58        38.70014
661.01        38.98822
661.44        39.21252
661.86        39.25469
662.29        39.20578
662.72        39.47825
663.14        40.03681
663.57        40.28101
664.00        40.24043
664.42        40.40764
664.85        40.81448
665.27        41.17856
665.70        41.44765
666.13        41.68617
666.55        41.88846
666.98        42.03924
667.41         42.1605
667.83        42.28047
668.26        42.40768
668.69        42.54275
669.11        42.69477
669.54        42.87993
669.96        43.09768
670.39        43.34177
670.82        43.58164
671.24        43.77156
671.67        43.89247
672.09        43.95677
672.52        44.01252
672.94        44.17469
673.37         44.1181
673.80        44.60613
674.22        44.63345
674.65        44.91636
675.07        45.18185
675.50        45.44771
675.92        45.68431
676.35        45.83532
676.77         45.9077
677.20        45.90504
677.62        45.89473
678.05        45.96329
678.47        46.16332
678.90        46.44371
679.32         46.7368
679.75        46.92315
680.17         46.9691
680.60        46.91848
681.02        46.84269
681.45        46.84249
681.87        46.94644
682.30         47.1592
682.72        47.43444
683.15        47.53868
683.57        47.52213
684.00        47.71031
684.42        48.05277
684.85        48.24551
685.27        48.28642
685.70        48.21376
686.12        48.11554
686.54        48.43684
686.97        49.09209
687.39        49.10377
687.82        49.13906
688.24          49.108
688.66        49.23124
689.09          49.188
689.51        49.04034
689.94        49.03201
690.36        49.17968
690.78        49.42012
691.21        49.69574
691.63         49.9166
692.06        50.05486
692.48        50.15392
692.90        50.23105
693.33        50.30498
693.75        50.38713
694.17        50.45855
694.60        50.54858
695.02        50.68138
695.44        50.85032
695.87        51.16571
696.29        51.54408
696.71        51.54427
697.14        51.27901
697.56        51.40382
697.98         51.8872
698.41        52.15081
698.83        52.17214
699.25        52.30233
699.68        52.51523
700.10        52.63609
700.52        52.64468
700.94        52.60035
701.37        52.54514
701.79        52.56235
702.21        52.66596
702.64        52.83849
703.06        53.04277
703.48        53.23183
703.90        53.39178
704.33        53.54187
704.75        53.67878
705.17        53.85531
705.59         54.0611
706.01        54.28175
706.44        54.48346
706.86        54.63093
707.28        54.71642
707.70        54.72931
708.12        54.72689
708.55        54.85314
708.97        55.09454
709.39        55.26982
709.81        55.37387
710.23        55.55783
710.66        55.80944
711.08        56.03872
711.50        56.21911
711.92        56.38696
712.34        56.54194
712.76        56.67445
713.19        56.76434
713.61        56.81712
714.03        56.82453
714.45        56.80121
714.87        56.79419
715.29        56.87156
715.71        57.04414
716.13        57.28984
716.56        57.54299
716.98        57.75762
717.40        57.88078
717.82        57.93192
718.24        57.93069
718.66        57.91496
719.08        57.90557
719.50        57.88497
719.92         57.8638
720.34        57.88651
720.76        57.96238
721.19        57.97562
721.61        58.10794
722.03        58.17091
722.45        58.21038
722.87        58.22928
723.29        58.24011
723.71        58.26088
724.13        58.29764
724.55        58.34953
724.97        58.41356
725.39        58.48148
725.81         58.5537
726.23        58.64231
726.65         58.7524
727.07         58.8791
727.49        59.02536
727.91        59.20625
728.33        59.40823
728.75        59.57925
729.17        59.70654
729.59        59.81964
730.01        59.88268
730.43        59.85172
730.85         59.7412
731.27        59.53885
731.69         59.3317
732.10         59.4755
732.52        59.64722
732.94        60.07939
733.36        60.56719
733.78        60.93127
734.20        61.10078
734.62         61.1264
735.04        61.07233
735.46        61.03732
735.88        61.05506
736.30        61.08682
736.72         61.1163
737.13        61.13375
737.55        61.07342
737.97        60.98635
738.39         60.9109
738.81        60.68921
739.23        60.47914
739.65        60.92291
740.06        61.77217
740.48        62.10472
740.90        61.83173
741.32        61.42866
741.74        61.08611
742.16        60.92218
742.57        61.02454
742.99        61.34927
743.41        61.78117
743.83        62.09396
744.25        62.24417
744.67        62.35563
745.08         62.4604
745.50        62.53278
745.92        62.59692
746.34        62.66029
746.75        62.72519
747.17        62.79032
747.59        62.85609
748.01        62.92929
748.42        63.00459
748.84        63.04656
749.26        63.05859
749.68        63.03878
750.09        62.98791
750.51        62.96166
750.93        62.94951
751.35        62.90386
751.76        62.84506
752.18        62.84861
752.60        62.92297
753.01        63.01433
753.43        63.09663
753.85        63.22952
754.27         63.3859
754.68        63.44626
755.10        63.42382
755.52         63.4762
755.93        63.58552
756.35        63.61622
756.77        63.65132
757.18        63.79181
757.60        64.04057
758.02        64.63979
758.43        65.23414
758.85        64.91512
759.26        63.55966
759.68         63.0904
760.10        63.45081
760.51        64.27369
760.93        64.45273
761.34        64.56559
761.76        64.36548
762.18        64.38394
762.59        64.60641
763.01        64.35439
763.42        63.75939
763.84        63.50833
764.26        63.69972
764.67        63.86819
765.09        63.96762
765.50        64.40782
765.92        64.98569
766.33        64.65327
766.75        64.62839
767.16        64.47393
767.58        64.58693
768.00        64.59915
768.41        64.42796
768.83        64.57466
769.24        64.85701
769.66        64.71143
770.07        64.22829
770.49        63.98001
770.90        64.07219
771.32        64.42806
771.73        64.90341
772.15        65.16819
772.56        65.18978
772.97        65.17242
773.39         64.6992
773.80        65.32621
774.22        65.22442
774.63        65.60704
775.05        65.83717
775.46        65.95817
775.88        65.90396
776.29         65.6962
776.70        65.42839
777.12        65.25882
777.53        65.23952
777.95        65.30702
778.36         65.4464
778.77        65.59492
779.19         65.7226
779.60        65.95629
780.02        66.21576
780.43        66.25684
780.84        66.14749
781.26        66.20454
781.67        66.45656
782.09        66.82923
782.50        67.18161
782.91        67.12332
783.33         66.6965
783.74        66.39432
784.15        66.23149
784.57        66.02984
784.98        65.88935
785.39        65.60854
785.81        65.57812
786.22        66.44008
786.63        66.46605
787.04        66.89394
787.46        67.17472
787.87        67.46857
788.28        67.75261
788.70        67.90934
789.11        67.94322
789.52        67.98388
789.93        68.01456
790.35        67.83344
790.76        67.52687
791.17        67.43487
791.58        67.59182
792.00        67.70853
792.41        67.78093
792.82        68.07871
793.23        68.49799
793.65        68.49591
794.06        68.17409
794.47        68.21525
794.88        68.55226
795.29        68.57938
795.71        68.25834
796.12         67.9655
796.53        67.80848
796.94        67.81721
797.35        68.02332
797.76        68.41658
798.18        68.84412
798.59        69.09828
799.00         69.1033
799.41        68.92187
799.82        68.65244
800.23         68.4734
800.64        68.44698
801.06        68.49435
801.47        68.62874
801.88        68.80485
802.29         68.9912
802.70         69.1683
803.11        69.30667
803.52         69.4068
803.93        69.44523
804.34        69.31886
804.75        69.06404
805.17         68.9346
805.58        69.01189
805.99        68.96078
806.40        68.84979
806.81        69.34636
807.22        70.20068
807.63        70.17148
808.04        69.38273
808.45        69.14736
808.86        69.57083
809.27        69.91521
809.68        70.02719
810.09        70.01727
810.50        69.85403
810.91        69.51466
811.32        69.18023
811.73        69.13656
812.14         69.4426
812.55        70.02969
812.96        70.69054
813.37        71.03132
813.78        70.93952
814.19        70.54743
814.60        70.05861
815.01        69.76287
815.42        69.73569
815.83        69.89059
816.24        70.14255
816.65        70.32826
817.05        70.38079
817.46        70.32487
817.87        70.23021
818.28        70.13793
818.69        70.06941
819.10        70.00648
819.51        69.95248
819.92        69.92763
820.33        69.93414
820.74        69.96093
821.14        70.01772
821.55        70.12191
821.96        70.26208
822.37        70.44353
822.78        70.59231
823.19        70.58026
823.60        70.38255
824.00        70.03236
824.41        69.66402
824.82        69.52048
825.23        69.64802
825.64        69.99027
826.04        70.39065
826.45        70.49606
826.86        70.24623
827.27        69.74911
827.68         69.2089
828.08         68.9688
828.49        69.07686
828.90        69.47215
829.31        70.01855
829.72        70.47662
830.12        70.78774
830.53        70.93866
830.94        71.05113
831.35        71.28857
831.75         71.6972
832.16        72.12819
832.57        72.46357
832.97        72.48303
833.38        72.15271
833.79        71.62148
834.20         71.0063
834.60        70.44507
835.01         70.0321
835.42        69.70867
835.82        69.60339
836.23        69.85863
836.64        70.48631
837.04        71.46102
837.45        72.40963
837.86         72.8493
838.26        72.64894
838.67        71.95496
839.08        71.06374
839.48        70.43298
839.89        70.24035
840.29        70.34573
840.70        70.65106
841.11        71.00851
841.51        71.36665
841.92        71.74258
842.33        72.10503
842.73        72.37071
843.14        72.46537
843.54        72.41874
843.95        72.28217
844.35        72.21884
844.76        72.24738
845.17          72.322
845.57        72.40454
845.98        72.39525
846.38        72.28687
846.79         72.1109
847.19        71.87133
847.60        71.52595
848.00        71.11498
848.41        70.67154
848.81        70.31214
849.22        70.20045
849.62        70.39384
850.03        70.79914
850.43        71.35631
850.84        71.76045
851.24        71.97529
851.65        71.97692
852.05        71.86427
852.46        71.75112
852.86         71.6655
853.27        71.63808
853.67        71.54654
854.07        71.40765
854.48        71.17292
854.88        70.86649
855.29        70.51794
855.69        70.39161
856.10        70.45676
856.50        70.75367
856.90         71.0184
857.31        70.88451
857.71        70.34368
858.12          69.477
858.52         68.6214
858.92        68.29147
859.33         68.5984
859.73        69.42196
860.13        70.44205
860.54        71.14112
860.94         71.3963
861.34        71.26132
861.75        70.85674
862.15        70.46111
862.55        70.15138
862.96        69.88168
863.36        69.54637
863.76         69.0069
864.17        68.29039
864.57        67.51566
864.97        66.88382
865.38        66.63487
865.78        66.84365
866.18         67.4073
866.58        68.19831
866.99        68.92031
867.39        69.47054
867.79        69.87769
868.19        70.08161
868.60        70.01535
869.00         69.7099
869.40        69.15533
869.80         68.6413
870.21        68.66617
870.61        69.35594
871.01        70.52694
871.41        71.69704
871.81        72.09006
872.22         71.5338
872.62        70.27309
873.02        68.77603
873.42        67.82809
873.82        67.68142
874.22        68.14336
874.63        68.87284
875.03        69.34069
875.43        69.40158
875.83        69.20068
876.23        69.04086
876.63        69.40878
877.03        70.37351
877.44        71.68569
877.84        72.93764
878.24        73.39296
878.64        72.91879
879.04        71.82664
879.44        70.56647
879.84         69.7854
880.24         69.6466
880.64        69.92849
881.04        70.50466
881.44        71.15827
881.84        71.76994
882.24        72.42816
882.65         72.9113
883.05        72.96818
883.45        72.51971
883.85        71.66809
884.25        70.78857
884.65        70.47154
885.05        70.82314
885.45        71.63926
885.85        72.63742
886.25        73.31683
886.65        73.48065
887.05         73.2846
887.45        72.73858
887.85        71.88097
888.25        70.85851
888.65          69.748
889.04        68.78586
889.44        68.34871
889.84        68.43551
890.24        68.97073
890.64        69.80516
891.04        70.56913
891.44        71.06976
891.84        71.37259
892.24        71.50777
892.64        71.55912
893.04        71.57592
893.44        71.51258
893.83        71.47663
894.23        71.59475
894.63        71.91558
895.03        72.40472
895.43        72.91264
895.83        73.20139
896.23        73.21081
896.63        72.98032
897.02        72.63903
897.42        72.46653
897.82        72.51051
898.22        72.73258
898.62        72.92858
899.01        72.77265
899.41        72.20348
899.81        71.34485
900.21        70.53935
900.61        70.30196
901.00         70.7191
901.40         71.6315
901.80        72.61127
902.20        72.95557
902.59        72.49834
902.99        71.46243
903.39        70.29465
903.79        69.66659
904.18        69.73559
904.58        70.31765
904.98        71.06032
905.38         71.4277
905.77        71.25697
906.17         70.7114
906.57        70.08735
906.96        69.87225
907.36        70.14874
907.76        70.79676
908.15         71.4612
908.55        71.44102
908.95        70.66953
909.34        69.37933
909.74        68.18645
910.14        67.88848
910.53        68.67854
910.93        70.24317
911.33        72.12051
911.72        73.58478
912.12        74.30333
912.52        74.47283
912.91        74.32525
913.31         74.2592
913.70        74.41172
914.10         74.6027
914.49         74.6539
914.89        74.29665
915.29        73.53362
915.68        72.54743
916.08        71.63029
916.47        71.07034
916.87         71.0034
917.26        71.28837
917.66        71.84816
918.05        72.57613
918.45        73.32552
918.84        74.14291
919.24        74.78502
919.64        75.00059
920.03        74.73849
920.42        74.03327
920.82        73.15317
921.21        72.42709
921.61        71.97486
922.00        71.76187
922.40        71.68001
922.79        71.61207
923.19        71.49323
923.58        71.40293
923.98        71.40105
924.37        71.57848
924.77        71.92686
925.16        72.38328
925.55        72.83116
925.95        73.10323
926.34         73.1657
926.74        73.04436
927.13        72.81083
927.52        72.55124
927.92        72.32111
928.31        72.09853
928.70        71.90012
929.10        71.73496
929.49        71.60028
929.89        71.46249
930.28          71.359
930.67        71.26551
931.07        71.17532
931.46         71.1328
931.85        71.04964
932.24        70.79527
932.64        70.39085
933.03        69.89919
933.42        69.54334
933.82        69.68791
934.21        70.41012
934.60        71.51129
934.99        72.74942
935.39        73.70736
935.78        74.27568
936.17        74.52954
936.56        74.32719
936.96        73.51993
937.35        72.21953
937.74        70.56786
938.13        69.08658
938.53        68.42197
938.92        68.63525
939.31        69.63123
939.70        70.96738
940.09        71.75001
940.49        71.67044
940.88        70.96539
941.27        70.12101
941.66        69.89227
942.05        70.45041
942.44        71.60455
942.84        72.83276
943.23        73.28703
943.62        72.67813
944.01        71.26916
944.40        69.80322
944.79         69.3568
945.18        70.13232
945.57        71.84749
945.97        73.60879
946.36        74.10027
946.75        72.90564
947.14        70.51956
947.53        68.01096
947.92        66.97565
948.31         67.7879
948.70        69.99252
949.09        72.69443
949.48        74.25504
949.87        74.12669
950.26         72.8034
950.65        71.10301
951.04        70.16889
951.43        70.28239
951.82        71.12003
952.21        72.11397
952.60        72.28587
952.99        71.38477
953.38        69.79064
953.77        68.24834
954.16        67.69909
954.55        68.31452
954.94        69.90495
955.33        71.73803
955.72        72.26698
956.11        71.02443
956.50        68.57377
956.89        66.12045
957.28         65.2299
957.66        66.22253
958.05        68.58289
958.44        71.44486
958.83        73.01488
959.22        72.66436
959.61        71.03112
960.00        69.00809
960.39        67.72463
960.78        67.41027
961.16        67.70625
961.55        68.26375
961.94        68.51065
962.33        68.24374
962.72        67.81311
963.11        67.33604
963.49        66.90253
963.88        66.57076
964.27        66.22662
964.66        66.13154
965.04        66.82268
965.43         68.2721
965.82        70.34977
966.21         72.3857
966.60        73.16879
966.98        72.44828
967.37        70.69566
967.76        68.67075
968.15        67.39159
968.53        67.07548
968.92        67.38503
969.31        68.16801
969.69        69.13573
970.08        70.03956
970.47         71.0975
970.86         71.9446
971.24        71.95166
971.63        71.03162
972.02        69.37426
972.40        67.78344
972.79        67.60729
973.17        69.06083
973.56        71.64876
973.95        74.55502
974.33         76.1849
974.72        75.94508
975.11         74.3532
975.49        72.21371
975.88        71.07506
976.26        71.30591
976.65        72.39743
977.04        73.79798
977.42        74.50697
977.81        74.05928
978.19        72.95097
978.58        71.58088
978.96        70.42728
979.35        69.74668
979.74        69.37218
980.12          69.427
980.51        70.09193
980.89        71.37608
981.28        73.05965
981.66        74.93105
982.05        76.32528
982.43        77.13265
982.82        77.42046
983.20        77.12275
983.59        76.11733
983.97        74.57459
984.35        72.58715
984.74        70.95787
985.12        70.75166
985.51        72.03454
985.89        74.62844
986.28        77.39146
986.66        78.73828
987.04        78.05766
987.43        75.81444
987.81        72.94661
988.20        71.43834
988.58        71.78873
988.96        73.48362
989.35        75.32723
989.73        75.58962
990.12        73.79916
990.50        70.70811
990.88         67.2871
991.27        65.07639
991.65        64.50365
992.03        65.11016
992.42        66.51502
992.80         68.4636
993.18        70.62659
993.56        73.11316
993.95         75.4136
994.33        76.67628
994.71        76.56052
995.10        75.34049
995.48        73.60973
995.86        72.39502
996.24        71.99418
996.63        72.04743
997.01        72.64114
997.39        73.64964
997.77         74.8802
998.15        76.41117
998.54        77.64629
998.92        77.65404
999.30          76.279
999.68        73.70443
1000.06        70.86371
1000.45        69.55891
1000.83        70.41993
1001.21        72.96828
1001.59        76.20084
1001.97         78.4104
1002.35        79.04823
1002.73        78.57156
1003.12        77.51514
1003.50        76.64853
1003.88         76.3042
1004.26        76.26748
1004.64        76.35217
1005.02        76.31104
1005.40        76.08499
1005.78        75.78072
1006.16        75.70287
1006.54        76.24497
1006.92        77.45454
1007.30        79.26756
1007.69        81.06568
1008.07        81.69603
1008.45        80.69402
1008.83        78.37207
1009.21        75.71188
1009.59        74.41667
1009.97        74.92529
1010.35        76.65199
1010.73        78.87387
1011.11         80.3668
1011.49        80.70947
1011.86        80.43562
1012.24         79.3922
1012.62        77.50999
1013.00        74.87324
1013.38        71.30818
1013.76        67.69498
1014.14        65.98785
1014.52        66.86806
1014.90         70.0158
1015.28        73.73381
1015.66        75.24583
1016.04        73.88275
1016.41        70.36698
1016.79        66.23177
1017.17        64.60882
1017.55        66.19127
1017.93        69.47478
1018.31        72.95555
1018.69        75.54773
1019.06        77.41369
1019.44        78.90843
1019.82        80.59356
1020.20        83.04136
1020.58        85.79823
1020.95        87.84029
1021.33        88.43094
1021.71        87.02085
1022.09        83.50072
1022.46        77.57993
1022.84        69.88206
1023.22         63.3128
1023.60        60.54869
1023.97        61.14531
1024.35        63.49837
1024.73        65.77305
