SpectraSmart Spectrum 2.9.0.0
--------- Device Information -----------
Spectrum Name :  反射率_0
Saving Time :  2024/04/30 01:20:45
Spectro-Module Model Name : SE2030-DUVN
Spectro-Module Serial Number : OS361AC55029948
Wavelength Start : 200
Wavelength End : 1025
Wavelength Unit : Wavelength(nm)
Spectrum Unit : Reflectance(%)
-----------Spectrum Setting ------------
Integration Time : 20ms
Average : 10
Boxcar : 0
Background removal :  enabled
linearity correction :  enabled
SC :  disabled
Intensity correction :  disabled
DWT denoise :  enabled
savitzky-golay :  disabled
FFT :  disabled
Running average :  disabled
Kalman :  disabled
High pass :  disabled
---------------BEGIN--------------------
Wavelength(nm)             Reflectance(%)
200.29               0
200.75        73.57623
201.21        60.22742
201.67        45.05597
202.13        32.16213
202.58         23.7296
203.04        18.67328
203.50        19.26509
203.96        29.58469
204.42        49.20855
204.88        75.73214
205.34        97.39577
205.80        98.40708
206.26        82.49422
206.72        61.01283
207.18        42.65334
207.64         32.3348
208.10        28.62759
208.55        28.51458
209.01         31.3204
209.47        35.99257
209.93        40.84769
210.39        45.95342
210.85        49.60095
211.31        50.44298
211.77        48.53586
212.23        42.95229
212.69        35.24652
213.14        33.85448
213.60        41.35001
214.06        52.91879
214.52        61.83999
214.98        63.74513
215.44        59.80048
215.90         51.9279
216.36        43.40611
216.81        40.69121
217.27        47.28234
217.73        63.42123
218.19        88.34169
218.65        110.1093
219.11         117.579
219.57        112.9767
220.02        104.4829
220.48        99.55589
220.94        98.00548
221.40        97.94716
221.86        96.85595
222.32        90.39034
222.77        80.17896
223.23        71.69332
223.69        66.64027
224.15        64.91539
224.61        65.58575
225.06        68.05732
225.52        71.71675
225.98        74.38981
226.44        75.14427
226.90         74.8089
227.36        74.28432
227.81        74.32869
228.27        75.11787
228.73        76.20979
229.19        77.46381
229.65        78.43326
230.10        78.78107
230.56        79.00421
231.02        78.89701
231.48        78.28886
231.93        77.15777
232.39        75.59527
232.85        74.11462
233.31        73.83041
233.77        75.02824
234.22        77.60715
234.68        80.34326
235.14        81.07218
235.60        79.32006
236.05        75.76922
236.51        72.26759
236.97        71.18047
237.43        73.07819
237.88         78.0015
238.34        84.64678
238.80        89.16542
239.26        88.86893
239.71        84.71811
240.17        79.06207
240.63        75.29158
241.08        74.29321
241.54        75.34562
242.00        78.89827
242.46        83.69831
242.91        87.42498
243.37        89.46078
243.83        89.82333
244.28        89.20107
244.74        87.64898
245.20        83.83765
245.66        79.15245
246.11         77.5641
246.57        80.96579
247.03        89.93098
247.48        98.98136
247.94        96.18546
248.40        83.39251
248.85        68.28226
249.31        58.46816
249.77        57.24911
250.22        64.28536
250.68        80.84162
251.14        106.5789
251.59         120.987
252.05        109.8305
252.51        89.34692
252.96         73.7254
253.42        67.62052
253.88        68.00564
254.33        71.98843
254.79        77.47319
255.25        79.61433
255.70         77.5834
256.16        74.69077
256.62        72.53408
257.07         71.9971
257.53        73.17141
257.99        75.06463
258.44        76.63866
258.90        77.27618
259.35        76.49086
259.81        75.30674
260.27        74.06849
260.72        73.06722
261.18         72.5276
261.63         71.9718
262.09        71.34863
262.55        70.20065
263.00         68.5546
263.46        66.92271
263.91        65.39703
264.37        64.46244
264.83        63.99443
265.28         63.7453
265.74        63.70428
266.19         63.5752
266.65        63.36112
267.11        63.07308
267.56        62.64889
268.02        62.03363
268.47        61.18802
268.93        60.13704
269.38        58.97275
269.84        57.98767
270.30        57.25522
270.75        56.71635
271.21        56.24939
271.66        55.59018
272.12         54.6987
272.57        53.61216
273.03        52.49094
273.48        51.48612
273.94        50.71897
274.39         50.0758
274.85        49.51511
275.31        48.85934
275.76        48.04976
276.22        47.18956
276.67        46.32158
277.13        45.64813
277.58        45.11961
278.04        44.72692
278.49        44.28536
278.95        43.67142
279.40        42.81517
279.86        41.87901
280.31        40.92912
280.77        40.21437
281.22        39.72743
281.68        39.42852
282.13        39.22892
282.59        39.09489
283.04        38.94245
283.50        38.77867
283.95        38.51139
284.41        38.04191
284.86         37.3555
285.32        36.56464
285.77        35.71098
286.22        34.94372
286.68        34.32285
287.13        33.77744
287.59        33.38285
288.04        33.17636
288.50        33.16016
288.95        33.26723
289.41        33.38018
289.86        33.26733
290.32        32.91617
290.77         32.3809
291.22        31.78782
291.68        31.34611
292.13        31.10663
292.59        31.03645
293.04        31.10216
293.50        31.28644
293.95        31.55858
294.40        31.94231
294.86        32.36717
295.31        32.73396
295.77         33.0201
296.22          33.232
296.68        33.46245
297.13        33.83813
297.58        34.38928
298.04        35.04536
298.49        35.70618
298.95        36.21659
299.40        36.53551
299.85        36.71878
300.31         36.8479
300.76        36.98629
301.21          37.189
301.67        37.44081
302.12        37.69925
302.58        38.04364
303.03        38.45346
303.48        38.79832
303.94        39.03686
304.39        39.72923
304.84        39.79943
305.30        40.10967
305.75        40.32577
306.20        40.49854
306.66        40.64159
307.11        40.74214
307.57        40.82575
308.02        40.84445
308.47        40.81529
308.93        40.75459
309.38        40.68351
309.83        40.68803
310.29        40.77947
310.74        40.92903
311.19        41.05336
311.65         41.0153
312.10         40.7888
312.55         40.4231
313.00        40.04491
313.46        39.85147
313.91        39.87083
314.36        40.04483
314.82        40.24386
315.27        40.27951
315.72        40.09064
316.18        39.74586
316.63        39.32966
317.08        38.98698
317.53          38.769
317.99        38.64317
318.44        38.55607
318.89        38.43229
319.35        38.24647
319.80        38.01586
320.25        37.80229
320.70        37.70034
321.16        37.71006
321.61        37.81805
322.06        37.89109
322.51        37.72504
322.97        37.28434
323.42        36.64488
323.87        35.98476
324.32        35.58736
324.78        35.50798
325.23        35.68471
325.68        35.94655
326.13        36.00154
326.59        35.76031
327.04        35.32644
327.49        34.83592
327.94         34.5275
328.39        34.45948
328.85        34.52674
329.30         34.6498
329.75        34.63824
330.20        34.43502
330.66        34.11683
331.11        33.73136
331.56         33.3173
332.01        32.91027
332.46        32.48822
332.92        32.12683
333.37         32.0036
333.82        32.13311
334.27        32.47337
334.72        32.85668
335.17        32.99239
335.63        32.79705
336.08        32.35846
336.53         31.8119
336.98        31.41883
337.43        31.26806
337.88        31.28433
338.34        31.39194
338.79        31.49081
339.24         31.5307
339.69        31.55342
340.14        31.55783
340.59        31.53271
341.05        31.48401
341.50        31.40288
341.95        31.30606
342.40        31.23883
342.85        31.20597
343.30        31.18458
343.75        31.16163
344.20        31.11466
344.66        31.04522
345.11         30.9658
345.56        30.84851
346.01        30.64411
346.46        30.36667
346.91        30.04246
347.36        29.77496
347.81        29.71864
348.26        29.89084
348.72         30.2338
349.17        30.62334
349.62        30.84234
350.07         30.8258
350.52        30.63744
350.97        30.36806
351.42        30.15833
351.87        30.05631
352.32        30.02684
352.77        30.04252
353.22        30.06173
353.67        30.06647
354.13        30.06553
354.58        30.07853
355.03        30.13188
355.48        30.21559
355.93        30.30431
356.38         30.3321
356.83        30.20563
357.28        29.91809
357.73        29.51293
358.18        29.07142
358.63        28.72035
359.08        28.49544
359.53        28.36066
359.98        28.28072
360.43         28.1944
360.88        28.07845
361.33        27.95639
361.78        27.81875
362.23        27.64754
362.68        27.44719
363.13        27.22074
363.58        27.00536
364.03        26.86405
364.48        26.80785
364.93        26.81626
365.38        26.85006
365.83        26.84533
366.28        26.78039
366.73        26.66828
367.18        26.52624
367.63        26.38362
368.08        26.24837
368.53        26.11069
368.98        25.96084
369.43        25.78317
369.88        25.58191
370.33        25.37665
370.78        25.18375
371.23        25.02723
371.68        24.91188
372.13        24.81792
372.58        24.75172
373.03        24.72478
373.48        24.72294
373.93        24.73637
374.38         24.6995
374.83        24.50802
375.28        24.16195
375.72        23.71132
376.17        23.27633
376.62        22.98365
377.07        22.86233
377.52        22.86378
377.97         22.9599
378.42        23.09995
378.87        23.24441
379.32        23.39595
379.77        23.49707
380.22        23.46584
380.67        23.29229
381.11        22.99265
381.56        22.64571
382.01        22.38974
382.46        22.26937
382.91        22.26019
383.36        22.29369
383.81        22.25773
384.26        22.12673
384.71        21.93211
385.15        21.73848
385.60        21.67208
386.05        21.73848
386.50        21.89029
386.95        22.02874
387.40        22.00649
387.85        21.80306
388.29        21.46548
388.74        21.12675
389.19        20.89974
389.64        20.80936
390.09        20.81207
390.54         20.8597
390.98        20.87018
391.43        20.82746
391.88        20.75926
392.33        20.67877
392.78         20.6221
393.23        20.59658
393.67        20.53452
394.12        20.45468
394.57        20.52279
395.02        20.43732
395.47        20.43608
395.91        20.41437
396.36        20.33547
396.81        20.20543
397.26        20.04377
397.71        19.88757
398.15        19.78166
398.60        19.75934
399.05        19.75929
399.50        19.75614
399.95        19.79974
400.39        19.77752
400.84        19.69349
401.29        19.53933
401.74        19.42393
402.18         19.3679
402.63        19.30785
403.08        19.26308
403.53         19.2767
403.97        19.34573
404.42        19.45811
404.87         19.5593
405.32        19.56082
405.76        19.44078
406.21        19.23034
406.66        18.99902
407.11        18.86022
407.55        18.84555
408.00        18.92362
408.45        19.02015
408.90        18.99893
409.34        18.82899
409.79        18.55813
410.24        18.29688
410.68         18.2073
411.13         18.3208
411.58        18.58411
412.03         18.8794
412.47        19.00735
412.92        18.90285
413.37        18.64153
413.81        18.33106
414.26        18.15858
414.71        18.15139
415.15        18.25608
415.60        18.39157
416.05        18.44461
416.49        18.38137
416.94        18.24898
417.39        18.08645
417.83        17.94734
418.28        17.85737
418.73        17.79005
419.17        17.75518
419.62        17.77297
420.07        17.83594
420.51        17.93624
420.96        18.02939
421.41        18.03396
421.85        17.93355
422.30        17.77338
422.74        17.59668
423.19        17.49731
423.64        17.48717
424.08        17.54822
424.53        17.63885
424.98        17.71556
425.42        17.76122
425.87        17.77433
426.31        17.75632
426.76          17.738
427.21        17.66478
427.65        17.55961
428.10        17.43006
428.54         17.2667
428.99         17.0964
429.44          17.046
429.88        17.06193
430.33        16.84083
430.77        16.50069
431.22        16.58496
431.66        17.04917
432.11        17.30421
432.56        17.26309
433.00        17.28032
433.45         17.3347
433.89        17.06436
434.34        16.63823
434.78        16.61229
435.23        16.91558
435.67        16.98677
436.12        16.80446
436.57        16.68908
437.01         16.6829
437.46        16.71043
437.90        16.77297
438.35        16.88103
438.79        16.99264
439.24        17.01289
439.68        16.95115
440.13        16.90165
440.57        16.85094
441.02        16.78626
441.46        16.72048
441.91        16.54398
442.35        16.33173
442.80        16.54103
443.24        17.01699
443.69        16.94231
444.13        16.39322
444.58        16.18087
445.02        16.31281
445.47        16.35839
445.91         16.2903
446.36        16.27975
446.80        16.31788
447.24        16.36641
447.69        16.41496
448.13        16.44639
448.58         16.4583
449.02        16.45469
449.47        16.45443
449.91        16.47716
450.36        16.52646
450.80        16.59048
451.25        16.64602
451.69        16.65305
452.13        16.60349
452.58        16.52235
453.02        16.42539
453.47        16.33614
453.91        16.26171
454.36        16.24195
454.80        16.20465
455.24        16.22078
455.69        16.26593
456.13        16.33104
456.58        16.39675
457.02          16.417
457.46        16.38844
457.91        16.32454
458.35        16.24393
458.79        16.18411
459.24        16.16573
459.68        16.18565
460.13        16.23904
460.57         16.2437
461.01         16.3175
461.46         16.3037
461.90        16.26965
462.34        16.41371
462.79        16.66224
463.23        16.65343
463.68        16.41771
464.12         16.3106
464.56        16.34943
465.01        16.36353
465.45        16.32773
465.89        16.27695
466.34         16.2374
466.78        16.27382
467.22        16.41058
467.67        16.42364
468.11        16.31792
468.55         16.1819
468.99        16.05932
469.44        15.97514
469.88        15.94387
470.32        15.96419
470.77        16.01584
471.21        16.07894
471.65        16.13647
472.10        16.20006
472.54        16.26325
472.98        16.33318
473.42         16.4082
473.87        16.47874
474.31         16.5373
474.75        16.57984
475.20        16.61001
475.64        16.62575
476.08        16.62967
476.52        16.62177
476.97        16.60599
477.41        16.58191
477.85        16.56792
478.29        16.59033
478.74         16.6578
479.18        16.75135
479.62        16.84165
480.06        16.92288
480.50        16.99712
480.95        16.91784
481.39        16.96784
481.83        17.01806
482.27        17.16498
482.72        17.25015
483.16        17.48184
483.60        17.60318
484.04        17.65412
484.48         17.6997
484.93        17.78784
485.37        17.81095
485.81        17.73099
486.25        18.12141
486.69        17.69329
487.14        17.84651
487.58        18.33848
488.02        18.13946
488.46        18.61369
488.90        18.54456
489.34        18.22008
489.79        18.12686
490.23        18.25123
490.67        18.56473
491.11        18.92783
491.55        18.94727
491.99        18.69956
492.43        18.73922
492.88        19.08908
493.32        19.39409
493.76        19.58896
494.20        19.76828
494.64        19.92345
495.08        20.02211
495.52        20.07345
495.96        20.14894
496.41        20.26903
496.85        20.29937
497.29        20.26529
497.73        20.56792
498.17        20.87882
498.61        20.88901
499.05        20.58605
499.49        20.49038
499.93        20.65175
500.37        20.86263
500.82        21.07123
501.26        21.24462
501.70        21.35942
502.14        21.45639
502.58        21.55223
503.02        21.64632
503.46        21.74544
503.90        21.85073
504.34        21.95655
504.78        22.05244
505.22        22.13479
505.66        22.20386
506.10        22.25678
506.54        22.31378
506.98        22.38139
507.42        22.41044
507.86        22.38352
508.30        22.52713
508.74        22.43093
509.18         22.4303
509.62        22.42387
510.06        22.45444
510.50        22.52587
510.94        22.63519
511.38        22.75553
511.82        22.82942
512.26        22.84459
512.70        22.81485
513.14        22.77803
513.58        22.79452
514.02        22.87566
514.46        23.00048
514.90        23.12703
515.34        23.18745
515.78        23.16499
516.22        23.08314
516.66        22.97995
517.10        22.91391
517.54        22.90149
517.98        22.92466
518.42         22.9611
518.86        22.97494
519.30        22.95574
519.74         22.9175
520.18        22.87373
520.62         22.8421
521.06        22.82973
521.50         22.8326
521.93        22.84509
522.37        22.85261
522.81        22.85347
523.25        22.84736
523.69        22.84594
524.13        22.86774
524.57        22.91106
525.01        22.96525
525.45        23.00095
525.89        22.97237
526.32        22.86962
526.76         22.7178
527.20        22.54917
527.64        22.41381
528.08        22.32694
528.52        22.27692
528.96        22.25109
529.40        22.22775
529.83        22.19719
530.27        22.16816
530.71          22.141
531.15         22.1179
531.59        22.09789
532.03         22.0763
532.46        22.04622
532.90        22.00665
533.34        21.95793
533.78        21.90643
534.22         21.8581
534.66        21.82098
535.09        21.79524
535.53        21.78248
535.97        21.78329
536.41        21.80462
536.85        21.84261
537.28        21.89206
537.72        21.93321
538.16        21.93718
538.60        21.90101
539.04        21.84079
539.47        21.77168
539.91        21.73758
540.35         21.7456
540.79        21.79214
541.22        21.87635
541.66        21.99951
542.10        22.15215
542.54        22.32884
542.97         22.5167
543.41        22.69812
543.85        22.86542
544.29        23.02641
544.72        23.16105
545.16        23.25801
545.60        23.31757
546.04         23.3336
546.47        23.35581
546.91        23.49914
547.35        23.75897
547.79        24.03338
548.22        24.25496
548.66        24.45049
549.10        24.61139
549.53         24.6297
549.97        24.52314
550.41          24.827
550.84        24.81726
551.28         25.0266
551.72        25.18732
552.15        25.44935
552.59        25.48045
553.03        25.55949
553.46        25.61847
553.90        25.69061
554.34        25.78023
554.77        25.90269
555.21        26.04639
555.65        26.12459
556.08          26.154
556.52        26.26721
556.96        26.44948
557.39         26.6097
557.83         26.7331
558.27        26.81233
558.70        26.87695
559.14        26.97078
559.57         27.1367
560.01        27.28245
560.45         27.3954
560.88        27.35036
561.32        27.32052
561.75        27.32496
562.19        27.41459
562.63        27.47759
563.06        27.51119
563.50        27.59616
563.93        27.71329
564.37        27.82013
564.80        27.90216
565.24        27.97846
565.68        28.04868
566.11        28.13092
566.55        28.22963
566.98        28.29871
567.42        28.37925
567.85        28.48307
568.29        28.61778
568.72        28.84938
569.16        29.19287
569.60        29.11317
570.03        29.51229
570.47        29.62333
570.90        29.67148
571.34        29.96964
571.77        29.97048
572.21         30.0938
572.64        30.17452
573.08        30.31731
573.51        30.53037
573.95        30.61766
574.38        30.74855
574.82         30.8156
575.25        30.85166
575.69        30.83382
576.12        30.78275
576.56        30.95211
576.99        31.03868
577.42        31.09131
577.86        30.95807
578.29        30.99943
578.73        31.19137
579.16        30.92448
579.60        30.68354
580.03        30.52733
580.47        30.83377
580.90        30.80065
581.33        30.50924
581.77        30.59758
582.20        30.54858
582.64        30.44057
583.07          30.064
583.51        29.80263
583.94        29.77766
584.37        29.71164
584.81        29.63413
585.24        29.73197
585.68        29.75047
586.11        29.86331
586.54        29.25736
586.98         29.2886
587.41        29.81723
587.85        29.58418
588.28        29.38786
588.71        29.22422
589.15         29.2065
589.58        29.12971
590.01        29.01845
590.45        28.93259
590.88        28.93952
591.31        29.04228
591.75        29.15552
592.18        29.27879
592.61        29.46336
593.05        28.96581
593.48        29.42813
593.91        29.49129
594.35        29.13955
594.78        29.15119
595.21        29.36163
595.65         29.6557
596.08        29.47174
596.51        29.84881
596.94        30.08349
597.38        30.37226
597.81         30.5096
598.24        30.57703
598.68         30.8665
599.11        30.95594
599.54        31.60658
599.97        32.12485
600.41        31.90858
600.84        32.31448
601.27        32.59568
601.70         32.9688
602.14        33.23757
602.57        33.47462
603.00        33.67444
603.43        33.93215
603.87        34.20264
604.30        34.55239
604.73         34.9712
605.16        35.44854
605.60        35.92632
606.03        36.33417
606.46        36.61671
606.89        36.93328
607.32        37.30524
607.76        37.61025
608.19        37.85989
608.62        38.13148
609.05        38.45288
609.48        38.77132
609.92        39.05296
610.35        39.31211
610.78        39.69838
611.21        39.63853
611.64        40.08381
612.07        40.43322
612.50        40.55585
612.94        40.93601
613.37        41.52343
613.80        41.49919
614.23        42.20458
614.66        42.34414
615.09        42.37136
615.52        42.43697
615.96        42.56874
616.39        42.82026
616.82        42.78019
617.25        43.12274
617.68        43.11297
618.11        43.47818
618.54        43.93804
618.97        44.09866
619.40        43.99205
619.84         44.0747
620.27        44.41801
620.70        44.65965
621.13        44.70071
621.56        45.06185
621.99        44.94907
622.42        44.74606
622.85        45.15877
623.28        45.08635
623.71        45.43523
624.14        44.81214
624.57         45.2518
625.00        45.17248
625.43        45.16047
625.86        45.08189
626.29        44.99311
626.72        45.04883
627.15        44.86013
627.58        44.83199
628.01        44.80711
628.44        44.52478
628.87        44.06757
629.30        43.92025
629.73        44.05014
630.16         43.9584
630.59        43.61232
631.02        43.39181
631.45        43.11773
631.88        42.84702
632.31        42.52507
632.74        42.18466
633.17        41.82583
633.60        41.45568
634.03        41.07998
634.46        40.69055
634.89        40.29929
635.32        39.93135
635.75        39.58925
636.18        39.26299
636.61        38.93674
637.04        38.59055
637.47        38.22839
637.89        37.83537
638.32         37.4089
638.75        37.05899
639.18        36.81516
639.61        36.29432
640.04        36.16083
640.47        35.89427
640.90        35.68805
641.33        35.53063
641.76        35.40369
642.18        35.26715
642.61        35.09641
643.04          34.908
643.47        34.74471
643.90          34.664
644.33        34.67316
644.76        34.80055
645.18         34.9718
645.61        34.96876
646.04        34.74366
646.47        34.73352
646.90        34.92461
647.33        35.05933
647.75        35.13102
648.18        35.31356
648.61        35.59814
649.04        35.87981
649.47        36.15871
649.89        36.49137
650.32         36.8447
650.75         37.1942
651.18        37.53358
651.61        37.79343
652.03        38.04512
652.46         38.5399
652.89        39.16886
653.32        39.55747
653.74        39.77183
654.17        39.76913
654.60        39.77627
655.03        40.89629
655.46        40.56889
655.88        41.94013
656.31        44.96314
656.74        45.67988
657.16        44.70818
657.59        43.05806
658.02         43.1963
658.45        43.92744
658.87        44.63438
659.30        44.37984
659.73        44.81187
660.15        45.12661
660.58        45.41131
661.01        45.64204
661.44        45.72571
661.86        45.79849
662.29        45.89911
662.72        46.18945
663.14        46.61744
663.57        46.74025
664.00        46.61903
664.42        46.70895
664.85        47.05099
665.27         47.3696
665.70        47.62053
666.13        47.88317
666.55        48.14787
666.98        48.38634
667.41        48.58662
667.83        48.72454
668.26        48.79579
668.69        48.81725
669.11         48.8353
669.54        48.92005
669.96        49.08632
670.39        49.33697
670.82        49.62155
671.24        49.79705
671.67        49.86147
672.09        49.98095
672.52        50.16657
672.94        50.35606
673.37        50.16608
673.80        50.56251
674.22        50.44316
674.65        50.65059
675.07        50.89627
675.50        51.19342
675.92        51.48967
676.35          51.692
676.77        51.79404
677.20        51.79951
677.62         51.7812
678.05        51.85769
678.47         52.0488
678.90        52.32252
679.32        52.58948
679.75         52.7158
680.17         52.6708
680.60        52.51401
681.02         52.3365
681.45        52.27284
681.87        52.36068
682.30         52.5755
682.72         52.8729
683.15        53.05341
683.57        53.14411
684.00        53.38976
684.42          53.728
684.85        53.90931
685.27         53.9257
685.70        53.79177
686.12        53.64628
686.54        53.97299
686.97        54.65817
687.39        55.03933
687.82          55.024
688.24        55.08781
688.66        55.21997
689.09        55.09926
689.51         54.8129
689.94        54.68049
690.36        54.74544
690.78        54.91716
691.21        55.13744
691.63        55.32174
692.06        55.43265
692.48         55.5026
692.90        55.55705
693.33        55.59768
693.75        55.62864
694.17        55.70132
694.60        55.85383
695.02        55.73872
695.44        55.95656
695.87        56.12688
696.29        56.40323
696.71        56.27712
697.14        56.20663
697.56        56.29365
697.98        56.62064
698.41        56.76838
698.83        56.74793
699.25        56.90519
699.68        57.19615
700.10        57.37199
700.52        57.39814
700.94        57.39882
701.37        57.39063
701.79        57.37894
702.21        57.37139
702.64        57.37592
703.06         57.4068
703.48        57.49395
703.90        57.64427
704.33        57.86558
704.75        58.09457
705.17        58.28336
705.59         58.3911
706.01        58.42885
706.44        58.44928
706.86         58.5219
707.28        58.65598
707.70        58.89729
708.12        59.17941
708.55        59.23519
708.97        59.12061
709.39        59.21756
709.81        59.53086
710.23        59.75414
710.66        59.87326
711.08        60.06306
711.50        60.26889
711.92        60.43672
712.34        60.57826
712.76        60.32824
713.19        60.42108
713.61        60.37157
714.03        60.39772
714.45        60.48186
714.87        60.61354
715.29        60.71645
715.71        60.79427
716.13        60.96707
716.56         61.1832
716.98        61.32837
717.40        61.36061
717.82        61.35413
718.24        61.33487
718.66        61.31864
719.08        61.31986
719.50        61.33334
719.92        61.36066
720.34        61.40197
720.76        61.45369
721.19        61.51234
721.61         61.5689
722.03        61.58284
722.45        61.54866
722.87        61.47569
723.29        61.39959
723.71        61.37937
724.13        61.43021
724.55        61.53877
724.97        61.67131
725.39        61.76816
725.81        61.81735
726.23        61.84187
726.65        61.87052
727.07        61.95199
727.49        62.09066
727.91         62.2517
728.33        62.42308
728.75        62.57518
729.17        62.69033
729.59        62.82241
730.01        62.91515
730.43        62.79201
730.85         62.5028
731.27        62.27623
731.69        62.20438
732.10        62.28048
732.52        62.52518
732.94        62.96759
733.36        63.50271
733.78        63.91354
734.20        64.13274
734.62         64.0916
735.04        64.14345
735.46         63.9933
735.88         63.8374
736.30        63.83953
736.72        63.98485
737.13        64.22067
737.55        64.37826
737.97        64.14046
738.39        63.64737
738.81        63.41799
739.23        63.55193
739.65        63.94113
740.06        64.37714
740.48        64.55233
740.90        64.39294
741.32        64.05742
741.74        63.70617
742.16        63.51877
742.57        63.56698
742.99        63.86038
743.41        64.27651
743.83        64.34991
744.25        64.31699
744.67        64.30249
745.08        64.42027
745.50        64.55485
745.92        64.71564
746.34        64.74069
746.75         64.9343
747.17        65.04723
747.59        65.17266
748.01         65.2976
748.42        65.38108
748.84        65.39528
749.26        65.35455
749.68        65.11094
750.09        64.79173
750.51         64.9941
750.93        65.55968
751.35        65.61523
751.76        65.19154
752.18        65.04668
752.60        65.20771
753.01        65.22808
753.43        65.09803
753.85        65.05858
754.27         65.1358
754.68        65.28834
755.10         65.4754
755.52        65.63493
755.93        65.72744
756.35        65.73954
756.77        65.77539
757.18        65.93179
757.60        66.22291
758.02         66.8012
758.43        67.47754
758.85        67.17525
759.26        66.13792
759.68        65.62663
760.10        65.80399
760.51        66.11316
760.93        66.26757
761.34        66.66439
761.76        67.04919
762.18        66.90004
762.59        66.31449
763.01        65.85242
763.42        65.66328
763.84        65.54322
764.26        65.56775
764.67        65.67486
765.09         65.8996
765.50        66.69579
765.92        67.73054
766.33        67.75887
766.75        66.80215
767.16        66.39148
767.58        66.64871
768.00        66.65983
768.41        66.43103
768.83        66.57901
769.24        66.95947
769.66         66.9705
770.07        66.66238
770.49        66.47881
770.90        66.51843
771.32        66.84064
771.73        67.30849
772.15        67.41103
772.56        67.10339
772.97        66.86694
773.39        66.41255
773.80        66.43813
774.22        66.81028
774.63        67.39777
775.05        67.94582
775.46        68.22487
775.88          68.129
776.29        67.74647
776.70        67.24067
777.12        66.93385
777.53        66.90971
777.95         67.0327
778.36        67.28529
778.77        67.55605
779.19        67.78844
779.60        68.28242
780.02        68.82357
780.43        68.63562
780.84        67.93832
781.26        67.75999
781.67        68.19143
782.09        68.87397
782.50        69.51293
782.91          69.419
783.33        68.69058
783.74        68.29166
784.15         68.2752
784.57        68.12862
784.98        67.93224
785.39        67.42516
785.81        67.82463
786.22        68.05976
786.63        68.42743
787.04        68.78268
787.46        69.13805
787.87        69.42924
788.28        69.66267
788.70        69.82949
789.11        69.91615
789.52        69.99488
789.93         70.0251
790.35        69.81707
790.76        69.44914
791.17        69.23595
791.58         69.2511
792.00        69.28782
792.41        69.35819
792.82        69.73083
793.23        70.28922
793.65        70.37984
794.06        70.12076
794.47        70.39054
794.88         71.0329
795.29        71.12659
795.71         70.6078
796.12        70.05968
796.53         69.6572
796.94        69.34804
797.35        69.28857
797.76        69.82436
798.18        70.69475
798.59        71.16959
799.00        71.10468
799.41        70.81804
799.82        70.47532
800.23        70.26144
800.64        70.26163
801.06        70.38002
801.47        70.58212
801.88        70.74522
802.29        70.81649
802.70        70.82189
803.11        70.77799
803.52        70.70361
803.93        70.63251
804.34        70.57899
804.75        70.51291
805.17         70.4818
805.58        70.53934
805.99        70.37144
806.40        70.14104
806.81        70.80057
807.22        72.04239
807.63        72.19993
808.04        71.34949
808.45        71.08941
808.86        71.52183
809.27        71.69849
809.68        71.53725
810.09        71.39339
810.50         71.2778
810.91        71.10612
811.32        70.95654
811.73        70.94583
812.14        71.09379
812.55        71.38705
812.96        71.73359
813.37        71.94307
813.78         71.9593
814.19        71.83946
814.60        71.66804
815.01        71.57079
815.42        71.57973
815.83        71.65059
816.24        71.75048
816.65        71.81831
817.05           71.83
817.46         71.7805
817.87        71.69859
818.28        71.56361
818.69        71.38533
819.10        71.17374
819.51        70.98494
819.92        70.92584
820.33        71.02077
820.74         71.2243
821.14        71.48322
821.55        71.72295
821.96         71.9052
822.37        72.05621
822.78        72.13359
823.19        72.07076
823.60        71.86552
824.00         71.5315
824.41        71.18376
824.82        71.03635
825.23        71.12931
825.64        71.42332
826.04        71.77744
826.45        71.85841
826.86        71.61491
827.27        71.14603
827.68         70.6507
828.08        70.46573
828.49        70.63331
828.90        71.09268
829.31         71.6973
829.72        72.19186
830.12        72.51131
830.53        72.63794
830.94        72.70902
831.35        72.91354
831.75        73.31132
832.16        73.76324
832.57        74.12807
832.97         74.1406
833.38        73.76639
833.79        73.16776
834.20        72.53289
834.60        72.10943
835.01        71.99426
835.42        72.07511
835.82        72.37167
836.23        72.84027
836.64        73.44296
837.04        74.21766
837.45        74.85329
837.86         74.9937
838.26        74.56737
838.67        73.68017
839.08        72.67849
839.48        72.08905
839.89        72.08257
840.29        72.51648
840.70        73.14147
841.11        73.55324
841.51         73.6557
841.92        73.53136
842.33        73.36643
842.73        73.45825
843.14        73.82431
843.54        74.37081
843.95        74.91943
844.35        75.26543
844.76         75.3177
845.17        75.13469
845.57        74.82116
845.98        74.50815
846.38          74.271
846.79        74.08054
847.19        73.87103
847.60        73.48643
848.00        72.94456
848.41        72.33521
848.81        71.86127
849.22        71.80499
849.62        72.24241
850.03        73.02757
850.43        73.99403
850.84        74.64371
851.24        74.87183
851.65        74.69762
852.05        74.29773
852.46        73.92729
852.86        73.67376
853.27        73.54057
853.67        73.38374
854.07        73.18967
854.48        72.89693
854.88        72.55137
855.29         72.1886
855.69        72.08283
856.10        72.20235
856.50         72.5769
856.90        72.93449
857.31        72.90617
857.71        72.48208
858.12        71.74302
858.52        71.01501
858.92        70.79314
859.33        71.18123
859.73        72.05737
860.13        73.12546
860.54        73.91041
860.94        74.29667
861.34        74.32314
861.75        74.05431
862.15         73.6787
862.55        73.25289
862.96        72.76496
863.36        72.18158
863.76        71.47516
864.17        70.70493
864.57        69.96317
864.97        69.39828
865.38        69.16513
865.78        69.31473
866.18        69.75878
866.58        70.41595
866.99        71.08402
867.39        71.68409
867.79        72.20029
868.19        72.49042
868.60        72.36458
869.00         71.8367
869.40        70.95789
869.80        70.08637
870.21        69.83784
870.61        70.38934
871.01        71.51907
871.41        72.76301
871.81        73.36848
872.22         73.1435
872.62         72.3229
873.02        71.24858
873.42        70.50258
873.82        70.28404
874.22         70.4306
874.63        70.76347
875.03        71.01264
875.43        71.09585
875.83        71.11412
876.23        71.17666
876.63         71.4425
877.03        71.91779
877.44        72.45399
877.84        72.95351
878.24        73.17799
878.64        73.07878
879.04         72.7788
879.44        72.34489
879.84        71.86742
880.24        71.40228
880.64        70.91096
881.04         70.5705
881.44        70.66255
881.84        71.22339
882.24        72.20234
882.65        73.18314
883.05        73.56677
883.45        73.15401
883.85        72.16322
884.25        71.10078
884.65        70.74295
885.05        71.23641
885.45        72.29211
885.85         73.5355
886.25        74.32397
886.65        74.42743
887.05        74.07928
887.45        73.34796
887.85         72.3642
888.25        71.30911
888.65        70.20415
889.04        69.32104
889.44        69.09886
889.84        69.52823
890.24        70.53477
890.64        71.79839
891.04         72.6039
891.44         72.6881
891.84        72.25486
892.24        71.63515
892.64        71.30735
893.04        71.37949
893.44        71.68403
893.83        72.14179
894.23        72.54178
894.63        72.82417
895.03        73.07073
895.43        73.24192
895.83         73.2642
896.23        73.13256
896.63        72.82049
897.02        72.45014
897.42        72.30195
897.82        72.40936
898.22        72.74804
898.62        73.06467
899.01        72.93736
899.41        72.29175
899.81        71.28217
900.21         70.3151
900.61        70.01335
901.00        70.48276
901.40        71.51428
901.80        72.65152
902.20        73.14067
902.59        72.78902
902.99        71.84856
903.39        70.71267
903.79         69.9686
904.18        69.78342
904.58        70.00424
904.98         70.4252
905.38         70.7466
905.77        70.84345
906.17        70.79721
906.57        70.72652
906.96        70.83669
907.36        71.12669
907.76        71.54237
908.15        71.84912
908.55        71.55772
908.95        70.68222
909.34        69.41602
909.74        68.28467
910.14        67.94386
910.53        68.56352
910.93        69.87892
911.33        71.56931
911.72        73.12897
912.12        74.25266
912.52        75.04613
912.91        75.52077
913.31        75.70139
913.70        75.63269
914.10        75.27032
914.49        74.64037
914.89        73.78874
915.29         72.8195
915.68        71.82331
916.08          71.046
916.47        70.70554
916.87        70.88275
917.26        71.44526
917.66        72.25555
918.05        73.09535
918.45        73.79347
918.84        74.43135
919.24        74.79308
919.64        74.69541
920.03        74.14813
920.42        73.19347
920.82        72.20121
921.21        71.64637
921.61        71.64988
922.00        72.11474
922.40        72.77113
922.79        73.21464
923.19        73.28358
923.58        73.12957
923.98        72.89067
924.37        72.79855
924.77        72.90689
925.16        73.11278
925.55        73.35192
925.95        73.54198
926.34        73.66122
926.74        73.73628
927.13        73.73468
927.52        73.55605
927.92          73.216
928.31        72.73757
928.70        72.26219
929.10        72.00766
929.49        72.02277
929.89        72.21342
930.28        72.48751
930.67        72.59808
931.07        72.47192
931.46        72.21603
931.85        71.87041
932.24        71.49528
932.64        71.15308
933.03        70.85052
933.42        70.69115
933.82        70.83932
934.21        71.32443
934.60        72.01601
934.99        72.81882
935.39        73.54993
935.78        74.16518
936.17        74.67532
936.56         74.8078
936.96        74.18536
937.35        72.85715
937.74        71.04519
938.13        69.37832
938.53        68.64891
938.92        68.94532
939.31        70.11278
939.70         71.6535
940.09        72.56989
940.49        72.51284
940.88        71.76733
941.27        70.83327
941.66        70.47957
942.05        70.89042
942.44        71.85757
942.84        72.92699
943.23        73.37772
943.62        72.94624
944.01        71.86913
944.40        70.74875
944.79        70.44835
945.18        71.13547
945.57        72.57996
945.97        74.04689
946.36        74.50894
946.75        73.60622
947.14        71.71088
947.53         69.7029
947.92        68.89989
948.31        69.60258
948.70         71.4474
949.09         73.6197
949.48        74.64135
949.87        74.07011
950.26        72.38781
950.65        70.45259
951.04        69.44888
951.43        69.65373
951.82        70.74759
952.21        72.11326
952.60        72.64826
952.99        72.03011
953.38        70.62889
953.77        69.21402
954.16        68.79093
954.55        69.55479
954.94        71.30632
955.33        73.26588
955.72        73.79494
956.11        72.40787
956.50        69.71149
956.89         67.0352
957.28        66.09608
957.66        67.24168
958.05        69.93604
958.44        73.18433
958.83         74.9264
959.22        74.45523
959.61        72.49005
960.00        70.12404
960.39        68.75576
960.78        68.65446
961.16        69.38581
961.55        70.41219
961.94        70.78888
962.33        70.19268
962.72        69.11503
963.11        67.91065
963.49        66.97311
963.88        66.44279
964.27        66.15532
964.66          66.244
965.04        67.02534
965.43        68.39776
965.82        70.25496
966.21        72.14053
966.60        73.19926
966.98        73.19762
967.37        72.43951
967.76        71.24702
968.15        70.06377
968.53        69.03416
968.92        67.97102
969.31        67.19329
969.69         67.3139
970.08        68.41059
970.47        70.51013
970.86        72.71788
971.24        73.43822
971.63        72.29886
972.02        69.78357
972.40        67.21059
972.79        66.65766
973.17        68.47562
973.56        71.91536
973.95        75.75577
974.33        77.70801
974.72         76.9977
975.11        74.42661
975.49        71.19817
975.88        69.46814
976.26        69.79819
976.65        71.49606
977.04        73.84737
977.42        75.54259
977.81        75.91842
978.19         75.5079
978.58        74.62664
978.96        73.64034
979.35        72.80088
979.74        71.95419
980.12        71.31127
980.51        71.24163
980.89        71.86403
981.28        72.97257
981.66        74.42934
982.05        75.65221
982.43        76.53321
982.82        77.11552
983.20         77.2416
983.59        76.59294
983.97        75.25951
984.35        73.38599
984.74        71.72652
985.12        71.30063
985.51        72.20003
985.89        74.22955
986.28        76.48862
986.66        77.80499
987.04        77.64061
987.43        76.37383
987.81         74.5291
988.20        73.33132
988.58        73.09245
988.96         73.5266
989.35        73.94855
989.73        73.50047
990.12        71.94331
990.50         69.7209
990.88         67.4651
991.27        66.14935
991.65         65.9959
992.03         66.7646
992.42        68.06147
992.80        69.58976
993.18        71.08617
993.56        72.62721
993.95        74.07209
994.33        75.29489
994.71         76.1055
995.10        76.52865
995.48        76.57739
995.86        76.42054
996.24        76.16019
996.63        75.66617
997.01        75.30109
997.39        75.48985
997.77        76.26893
998.15        77.52607
998.54        78.63715
998.92        78.62572
999.30        77.28281
999.68        74.88875
1000.06        72.18103
1000.45        70.54423
1000.83        70.55758
1001.21         71.8796
1001.59        73.93977
1001.97         75.7504
1002.35        76.91108
1002.73        77.61354
1003.12        78.00881
1003.50        78.26533
1003.88        78.50105
1004.26        78.66555
1004.64        78.58914
1005.02        78.07092
1005.40        77.17393
1005.78        76.04088
1006.16        75.19881
1006.54        75.35387
1006.92         76.6068
1007.30        78.84339
1007.69        81.34211
1008.07        82.65335
1008.45        82.14163
1008.83        80.16206
1009.21        77.64867
1009.59        76.26603
1009.97        76.49888
1010.35        77.78154
1010.73        79.54893
1011.11        80.86987
1011.49        81.36952
1011.86        81.44925
1012.24        80.90473
1012.62          79.561
1013.00        77.46745
1013.38        74.58102
1013.76        71.46665
1014.14        69.48573
1014.52        69.14953
1014.90        70.14523
1015.28        71.74866
1015.66        72.67802
1016.04         72.5434
1016.41        71.84457
1016.79        70.58112
1017.17         68.9855
1017.55        67.60812
1017.93        66.56997
1018.31        66.35706
1018.69        67.64172
1019.06        70.67413
1019.44        75.59818
1019.82        82.52869
1020.20        89.09118
1020.58        92.44495
1020.95        92.32048
1021.33        89.97179
1021.71        87.00626
1022.09        83.64578
1022.46        79.03475
1022.84        73.36104
1023.22        68.10815
1023.60        65.12241
1023.97        64.68628
1024.35        65.92052
1024.73        67.54585
