SpectraSmart Spectrum 2.9.0.0
--------- Device Information -----------
Spectrum Name :  反射率_0
Saving Time :  2024/04/30 01:16:00
Spectro-Module Model Name : SE2030-DUVN
Spectro-Module Serial Number : OS361AC55029948
Wavelength Start : 200
Wavelength End : 1025
Wavelength Unit : Wavelength(nm)
Spectrum Unit : Reflectance(%)
-----------Spectrum Setting ------------
Integration Time : 20ms
Average : 10
Boxcar : 0
Background removal :  enabled
linearity correction :  enabled
SC :  disabled
Intensity correction :  disabled
DWT denoise :  enabled
savitzky-golay :  disabled
FFT :  disabled
Running average :  disabled
Kalman :  disabled
High pass :  disabled
---------------BEGIN--------------------
Wavelength(nm)             Reflectance(%)
200.29               0
200.75        20.67904
201.21        15.49603
201.67        10.50315
202.13        8.177436
202.58        9.551019
203.04         14.5938
203.50        23.06054
203.96        34.16283
204.42        46.08929
204.88        57.39285
205.34        64.04009
205.80        61.79325
206.26        53.43919
206.72        43.65271
207.18         35.4817
207.64        30.39275
208.10        27.64226
208.55        25.86174
209.01        25.56299
209.47        28.17561
209.93        32.89496
210.39        38.72047
210.85        42.78213
211.31        42.52718
211.77         37.6685
212.23        27.16943
212.69        13.13514
213.14        8.281648
213.60        17.97192
214.06        34.50013
214.52         48.2401
214.98        53.22194
215.44        50.78321
215.90        43.47481
216.36        34.43732
216.81        29.65141
217.27        32.34844
217.73        42.09197
218.19        58.25882
218.65        72.72895
219.11        77.81461
219.57        75.12122
220.02        69.89835
220.48        66.89443
220.94        65.90791
221.40        65.57683
221.86         63.5835
222.32        56.36474
222.77        46.25431
223.23        38.21236
223.69        33.51101
224.15        31.79852
224.61        32.23755
225.06        34.24773
225.52         38.0715
225.98        42.75173
226.44        46.79547
226.90        49.87967
227.36        51.77436
227.81        52.65976
228.27        52.90827
228.73        52.39146
229.19        51.67908
229.65        51.87943
230.10        52.99608
230.56        54.62761
231.02        55.73167
231.48        55.34204
231.93         53.4816
232.39        50.56406
232.85        47.49649
233.31        46.09468
233.77        46.90607
234.22        49.54303
234.68        52.68464
235.14        53.88912
235.60        52.52608
236.05        49.44181
236.51        46.21387
236.97        44.83059
237.43        45.76291
237.88        48.76131
238.34        53.09605
238.80        56.63419
239.26         57.6246
239.71        56.64604
240.17         54.3209
240.63        51.67663
241.08        48.85421
241.54        44.78514
242.00        39.59504
242.46        37.01281
242.91        41.49239
243.37        52.33015
243.83        64.35226
244.28        72.99423
244.74        78.16273
245.20        80.49284
245.66        80.18739
246.11        78.18821
246.57        75.23674
247.03        71.44447
247.48        67.00755
247.94        62.73128
248.40        60.13894
248.85        59.15074
249.31        59.88634
249.77        61.91009
250.22        65.46728
250.68        71.45365
251.14        79.92789
251.59         84.6405
252.05        81.05381
252.51        74.16246
252.96        68.16145
253.42         64.5527
253.88         62.0657
254.33        59.57353
254.79        57.47541
255.25        56.30748
255.70        55.97375
256.16        56.45091
256.62          56.737
257.07        55.99691
257.53        54.72455
257.99        53.13533
258.44        51.63625
258.90         51.4447
259.35        52.08479
259.81         53.1405
260.27        54.07176
260.72        54.52527
261.18        54.67704
261.63         54.4602
262.09        53.98053
262.55         53.0411
263.00        51.71393
263.46        50.33942
263.91        48.97308
264.37        47.95118
264.83        47.19634
265.28        46.55163
265.74        46.09494
266.19        45.71544
266.65        45.43726
267.11        45.23819
267.56        44.98315
268.02        44.47735
268.47        43.67009
268.93        42.61896
269.38        41.48198
269.84        40.66004
270.30        40.23129
270.75         40.0787
271.21        39.98211
271.66        39.57876
272.12        38.80542
272.57        37.76521
273.03        36.65707
273.48        35.71257
273.94        35.06268
274.39        34.57363
274.85        34.21373
275.31        33.86095
275.76        33.45517
276.22        33.07055
276.67        32.65427
277.13        32.22176
277.58        31.73509
278.04        31.23125
278.49        30.70747
278.95        30.26379
279.40        29.86745
279.86        29.56349
280.31        29.26171
280.77        28.94605
281.22        28.57306
281.68        28.19155
282.13        27.84338
282.59        27.64009
283.04          27.561
283.50        27.55914
283.95        27.52337
284.41        27.30449
284.86        26.87248
285.32         26.3332
285.77        25.74573
286.22        25.26075
286.68        24.92808
287.13        24.67176
287.59        24.50915
288.04        24.41018
288.50        24.36607
288.95        24.34616
289.41        24.31372
289.86        24.17027
290.32        23.92662
290.77        23.61558
291.22        23.27914
291.68        22.98619
292.13        22.76303
292.59         22.6155
293.04        22.61467
293.50        22.88549
293.95        23.42192
294.40        24.18484
294.86        24.99254
295.31        25.57336
295.77        25.86024
296.22        25.91535
296.68        25.92047
297.13        26.14729
297.58         26.6645
298.04        27.35205
298.49        28.05538
298.95        28.53045
299.40        28.71731
299.85        28.70819
300.31        28.61473
300.76        28.54837
301.21        28.57858
301.67        28.67289
302.12        28.78567
302.58        28.98881
303.03        29.26847
303.48         29.4789
303.94        29.57426
304.39        30.21821
304.84        30.16402
305.30         30.4002
305.75        30.54939
306.20        30.66947
306.66        30.76537
307.11        30.82857
307.57        30.86608
308.02        30.81689
308.47        30.69387
308.93        30.52502
309.38        30.34601
309.83        30.25839
310.29        30.27707
310.74        30.36477
311.19        30.45037
311.65        30.41632
312.10        30.23556
312.55        29.94947
313.00        29.62966
313.46        29.38675
313.91        29.23934
314.36        29.15673
314.82        29.09303
315.27        28.99473
315.72        28.83369
316.18         28.6382
316.63         28.4126
317.08        28.17225
317.53        27.93153
317.99          27.694
318.44        27.46579
318.89        27.26272
319.35        27.08746
319.80        26.93295
320.25        26.81205
320.70        26.74369
321.16        26.71316
321.61        26.72407
322.06        26.71331
322.51        26.58704
322.97        26.32914
323.42        25.97441
323.87        25.59846
324.32        25.32656
324.78          25.181
325.23        25.13731
325.68        25.13021
326.13        25.05059
326.59        24.86191
327.04        24.61122
327.49        24.33492
327.94        24.10148
328.39        23.92759
328.85        23.77427
329.30        23.64066
329.75        23.49242
330.20        23.32388
330.66        23.15808
331.11        22.99065
331.56        22.78864
332.01        22.55214
332.46        22.27894
332.92        22.03028
333.37        21.93942
333.82        22.02285
334.27        22.24469
334.72        22.47917
335.17         22.5139
335.63        22.29731
336.08        21.90031
336.53        21.44566
336.98        21.15844
337.43        21.10852
337.88        21.22524
338.34         21.4275
338.79        21.60715
339.24        21.71094
339.69        21.77741
340.14        21.79826
340.59        21.75752
341.05        21.66275
341.50         21.5069
341.95        21.33543
342.40        21.23407
342.85        21.21802
343.30        21.26415
343.75        21.31848
344.20        21.28886
344.66        21.16595
345.11        20.98085
345.56        20.77429
346.01        20.60777
346.46        20.50675
346.91        20.44729
347.36         20.4382
347.81        20.49679
348.26        20.60961
348.72        20.76251
349.17        20.89464
349.62        20.90498
350.07        20.77211
350.52        20.53227
350.97        20.24487
351.42         19.9991
351.87        19.83019
352.32        19.72802
352.77        19.68679
353.22         19.6925
353.67        19.73474
354.13        19.80938
354.58        19.91817
355.03        20.06341
355.48        20.22615
355.93        20.38541
356.38        20.48652
356.83        20.45425
357.28        20.28518
357.73        20.01594
358.18        19.71142
358.63        19.47515
359.08        19.33591
359.53        19.25974
359.98        19.23082
360.43        19.21894
360.88         19.2044
361.33        19.20143
361.78        19.16533
362.23        19.02286
362.68        18.77275
363.13        18.44063
363.58        18.11345
364.03        17.93303
364.48        17.92701
364.93        18.04708
365.38        18.21549
365.83        18.30294
366.28        18.27048
366.73         18.1607
367.18        18.00036
367.63        17.83302
368.08        17.67923
368.53        17.51895
368.98        17.37882
369.43        17.30597
369.88        17.30445
370.33        17.36777
370.78        17.43669
371.23        17.40832
371.68        17.26064
372.13          17.021
372.58        16.75899
373.03        16.59068
373.48        16.54156
373.93        16.57136
374.38        16.62102
374.83        16.59227
375.28        16.46266
375.72         16.2715
376.17        16.06668
376.62        15.88095
377.07        15.72885
377.52        15.58861
377.97        15.48872
378.42        15.48008
378.87        15.56009
379.32        15.71045
379.77        15.84993
380.22        15.85598
380.67        15.70808
381.11        15.44025
381.56        15.14232
382.01        14.96387
382.46        14.94661
382.91        15.04824
383.36        15.18817
383.81        15.24277
384.26        15.18101
384.71        15.03753
385.15        14.87036
385.60        14.79372
386.05        14.81658
386.50        14.89674
386.95        14.96312
387.40         14.9092
387.85        14.72497
388.29        14.45658
388.74         14.1942
389.19        14.00627
389.64        13.91076
390.09        13.87389
390.54        13.89236
390.98        13.95933
391.43        14.05854
391.88        14.18274
392.33        14.27446
392.78        14.26759
393.23        14.16113
393.67        13.94709
394.12         13.7047
394.57        13.63811
395.02        13.57009
395.47        13.63316
395.91        13.72273
396.36        13.75052
396.81        13.69732
397.26        13.59079
397.71        13.47683
398.15        13.41483
398.60        13.43343
399.05        13.47839
399.50        13.50631
399.95        13.51604
400.39        13.42746
400.84        13.25637
401.29        13.03874
401.74        12.92068
402.18        12.93283
402.63        13.00618
403.08        13.10272
403.53        13.17308
403.97        13.19621
404.42        13.18999
404.87         13.1447
405.32         13.0449
405.76        12.89465
406.21        12.70404
406.66        12.52364
407.11        12.43668
407.55        12.46289
408.00        12.58234
408.45        12.72797
408.90        12.77329
409.34        12.68484
409.79        12.49959
410.24        12.30884
410.68        12.25199
411.13        12.35798
411.58        12.58167
412.03        12.82578
412.47        12.92622
412.92        12.83058
413.37        12.60345
413.81        12.33859
414.26        12.19507
414.71        12.19648
415.15        12.29818
415.60        12.42615
416.05        12.47556
416.49        12.41463
416.94        12.28458
417.39        12.12707
417.83        12.00205
418.28        11.93517
418.73        11.90132
419.17        11.89433
419.62        11.90671
420.07        11.93021
420.51        11.96813
420.96        12.00508
421.41        12.00885
421.85        11.97081
422.30         11.9099
422.74         11.8404
423.19        11.80635
423.64        11.80995
424.08        11.84538
424.53        11.88604
424.98        11.90936
425.42        11.90815
425.87        11.88049
426.31        11.83227
426.76        11.79245
427.21        11.72766
427.65         11.6562
428.10        11.57932
428.54        11.48072
428.99         11.3762
429.44        11.34721
429.88        11.36693
430.33        11.24954
430.77        11.07117
431.22        11.19089
431.66        11.55991
432.11        11.73039
432.56        11.63505
433.00        11.53924
433.45        11.46818
433.89        11.22005
434.34        10.94404
434.78         11.0465
435.23        11.42684
435.67          11.563
436.12        11.41394
436.57        11.26178
437.01        11.16779
437.46        11.11866
437.90        11.13335
438.35        11.20592
438.79        11.28923
439.24        11.28863
439.68         11.2041
440.13          11.111
440.57        11.01833
441.02        10.94807
441.46        10.91322
441.91         10.8273
442.35        10.72034
442.80        10.86834
443.24        11.16477
443.69        11.08308
444.13        10.68304
444.58        10.50735
445.02        10.56455
445.47        10.57227
445.91        10.51861
446.36        10.52496
446.80        10.58322
447.24        10.66242
447.69        10.74123
448.13        10.78764
448.58        10.79404
449.02        10.77224
449.47        10.73806
449.91        10.71095
450.36        10.70013
450.80        10.69937
451.25        10.70772
451.69        10.72368
452.13        10.74178
452.58        10.76754
453.02        10.78927
453.47         10.7883
453.91        10.75824
454.36        10.73593
454.80        10.67854
455.24        10.64191
455.69        10.61848
456.13        10.60185
456.58         10.5966
457.02        10.59796
457.46        10.60709
457.91        10.62473
458.35        10.64181
458.79        10.64645
459.24        10.64539
459.68         10.6459
460.13        10.66155
460.57         10.6629
461.01        10.73411
461.46         10.7591
461.90        10.77409
462.34        10.89538
462.79        11.06936
463.23        11.06349
463.68        10.89593
464.12        10.80055
464.56        10.79204
465.01        10.75997
465.45         10.7017
465.89        10.66037
466.34        10.65515
466.78        10.72307
467.22        10.86445
467.67        10.90214
468.11        10.82906
468.55        10.71078
468.99        10.59304
469.44        10.51876
469.88        10.50358
470.32        10.54006
470.77        10.59804
471.21        10.64196
471.65        10.65382
472.10        10.65073
472.54        10.64634
472.98        10.67458
473.42         10.7403
473.87        10.82783
474.31        10.91158
474.75        10.95443
475.20        10.95315
475.64        10.91748
476.08         10.8734
476.52        10.85864
476.97        10.88244
477.41        10.92967
477.85        10.98884
478.29        11.03935
478.74        11.07668
479.18        11.10208
479.62        11.11045
480.06        11.12212
480.50        11.14419
480.95        11.06897
481.39         11.0818
481.83        11.10375
482.27        11.20131
482.72        11.27518
483.16        11.43855
483.60        11.51579
484.04        11.54607
484.48        11.46524
484.93        11.36399
485.37        11.52131
485.81        11.83679
486.25        11.86944
486.69        11.58171
487.14        11.50083
487.58        12.09901
488.02        12.00036
488.46        12.05314
488.90        12.39155
489.34        11.95609
489.79         11.9732
490.23        12.05631
490.67        12.28985
491.11        12.56324
491.55        12.56243
491.99        12.35629
492.43        12.35738
492.88        12.58747
493.32        12.78017
493.76        12.90094
494.20         13.0423
494.64        13.19748
495.08        13.33399
495.52        13.43743
495.96        13.51365
496.41        13.56654
496.85        13.54478
497.29        13.48055
497.73        13.60593
498.17        13.73694
498.61        13.79504
499.05        13.74174
499.49        13.75466
499.93        13.85293
500.37        13.98619
500.82        14.13263
501.26        14.25544
501.70        14.34385
502.14        14.42489
502.58        14.51197
503.02        14.61017
503.46        14.72305
503.90        14.85006
504.34        14.97308
504.78        15.06145
505.22        15.10751
505.66        15.11625
506.10        15.10631
506.54         15.1253
506.98        15.18567
507.42        15.24613
507.86        15.27311
508.30        15.38484
508.74        15.29468
509.18        15.24613
509.62        15.19469
510.06        15.20783
510.50        15.29718
510.94        15.44655
511.38        15.61898
511.82        15.74439
512.26         15.8013
512.70        15.80567
513.14        15.78824
513.58         15.7986
514.02        15.84943
514.46        15.92517
514.90        15.99761
515.34        16.02237
515.78         15.9906
516.22         15.9201
516.66        15.84491
517.10        15.81564
517.54        15.84297
517.98        15.90926
518.42        15.98304
518.86        16.01375
519.30        15.98834
519.74        15.92437
520.18        15.84521
520.62        15.78577
521.06        15.75771
521.50        15.75166
521.93        15.75895
522.37        15.76145
522.81         15.7545
523.25        15.74188
523.69        15.73065
524.13        15.73043
524.57        15.74095
525.01        15.75645
525.45        15.76045
525.89        15.72893
526.32        15.65632
526.76        15.55459
527.20        15.44602
527.64        15.36495
528.08        15.31952
528.52        15.30261
528.96        15.29352
529.40        15.25806
529.83        15.18953
530.27        15.10225
530.71        15.01948
531.15        14.97958
531.59        14.98846
532.03        15.02858
532.46        15.07408
532.90         15.0901
533.34        15.06562
533.78        15.01462
534.22         14.9467
534.66        14.87573
535.09         14.8082
535.53        14.74625
535.97        14.69729
536.41        14.67846
536.85        14.69109
537.28        14.73018
537.72        14.78072
538.16        14.82008
538.60        14.84145
539.04        14.85379
539.47        14.85508
539.91        14.85973
540.35        14.86896
540.79        14.88305
541.22        14.91478
541.66        14.98781
542.10        15.10167
542.54        15.24855
542.97        15.40656
543.41        15.54053
543.85        15.64238
544.29        15.72482
544.72        15.79248
545.16        15.86698
545.60        15.95303
546.04        16.03676
546.47        16.12886
546.91        16.27137
547.35        16.45294
547.79        16.61527
548.22        16.73637
548.66         16.8709
549.10        17.02206
549.53        17.10402
549.97        17.11006
550.41        17.38179
550.84        17.40407
551.28        17.56048
551.72         17.6784
552.15        17.88665
552.59        17.95585
553.03        18.07086
553.46         18.1728
553.90        18.26918
554.34        18.35812
554.77        18.45626
555.21        18.55809
555.65        18.60388
556.08        18.60932
556.52         18.6705
556.96        18.78233
557.39        18.89159
557.83        18.99072
558.27        19.06707
558.70        19.13715
559.14         19.2501
559.57        19.38991
560.01        19.52579
560.45        19.63327
560.88        19.62072
561.32        19.61162
561.75        19.61963
562.19        19.68679
562.63        19.74009
563.06        19.77898
563.50        19.85993
563.93        19.96319
564.37        20.04788
564.80        20.10282
565.24        20.14646
565.68        20.18696
566.11        20.24972
566.55        20.34128
566.98        20.42471
567.42         20.5238
567.85        20.63752
568.29        20.76725
568.72        20.96417
569.16        21.24557
569.60        21.21438
570.03         21.5262
570.47        21.65313
570.90        21.75935
571.34        21.92749
571.77        22.00162
572.21        22.08553
572.64        22.13511
573.08        22.27683
573.51        22.54312
573.95        22.60159
574.38         22.8035
574.82        22.96575
575.25        22.90072
575.69        22.81656
576.12         22.6588
576.56        22.92427
576.99        23.12179
577.42        22.99937
577.86        23.06623
578.29        22.97743
578.73        22.98879
579.16          22.858
579.60        22.97267
580.03        22.82438
580.47        22.89126
580.90        22.74294
581.33        22.49005
581.77        22.58708
582.20        22.41151
582.64        22.29068
583.07        22.09546
583.51        22.00719
583.94        21.95548
584.37        21.87332
584.81        21.72916
585.24        21.77716
585.68        21.85759
586.11        21.68576
586.54        21.30651
586.98        21.30847
587.41        21.75305
587.85        21.47197
588.28        21.32086
588.71        21.37275
589.15        21.27087
589.58        21.28325
590.01         21.2289
590.45        21.18025
590.88        21.17114
591.31        21.20775
591.75        21.34662
592.18        21.36931
592.61        21.34407
593.05        21.05566
593.48        21.36798
593.91        21.33712
594.35        21.37231
594.78         21.4259
595.21        21.53923
595.65        21.73069
596.08          21.634
596.51        21.94368
596.94        22.16404
597.38        22.31188
597.81        22.56649
598.24        22.71513
598.68        23.07981
599.11        22.92974
599.54        23.40415
599.97        23.57391
600.41         23.7037
600.84        24.37592
601.27        24.39699
601.70        24.78841
602.14        25.17165
602.57        25.49212
603.00        25.73625
603.43        26.07507
603.87        26.45911
604.30        26.85474
604.73        27.25291
605.16        27.67629
605.60        28.10408
606.03        28.50982
606.46        28.83413
606.89        29.24825
607.32        29.58285
607.76        29.93706
608.19        30.25264
608.62        30.57288
609.05        30.94425
609.48        31.34144
609.92        31.68862
610.35        32.24122
610.78        32.41124
611.21        32.45592
611.64        32.95155
612.07        33.29114
612.50        33.48559
612.94        33.76803
613.37        34.33396
613.80        34.32244
614.23        34.92157
614.66        35.17097
615.09        35.40207
615.52        35.64704
615.96         35.9273
616.39        36.10117
616.82        36.17535
617.25        36.70719
617.68         36.9628
618.11        37.32347
618.54        37.54623
618.97        37.71972
619.40        37.89361
619.84        38.07284
620.27        38.27515
620.70         38.6143
621.13        39.05906
621.56        38.91587
621.99        38.96604
622.42        39.03133
622.85        39.31614
623.28        39.08821
623.71        39.54739
624.14        39.16336
624.57        39.37415
625.00        39.38747
625.43        39.57967
625.86        39.09673
626.29        39.34315
626.72        39.17854
627.15        39.01367
627.58        38.82726
628.01        38.63987
628.44        38.45094
628.87        38.25243
629.30        38.07753
629.73        37.91316
630.16        37.69879
630.59        37.41842
631.02        37.18682
631.45        36.83577
631.88        36.47508
632.31         36.0537
632.74          35.661
633.17        35.16829
633.60        34.70956
634.03        34.25396
634.46        33.80041
634.89         33.3544
635.32         32.9276
635.75         32.5215
636.18        32.13051
636.61        31.74551
637.04         31.3548
637.47        30.96122
637.89        30.54884
638.32         30.1111
638.75        29.73033
639.18        29.42918
639.61         28.9059
640.04        28.69357
640.47        28.38118
640.90        28.12507
641.33        27.91672
641.76        27.74589
642.18        27.58802
642.61        27.42564
643.04        27.26855
643.47        27.14495
643.90        27.09224
644.33        27.11072
644.76        27.21976
645.18        27.36085
645.61        27.36489
646.04        27.19801
646.47         27.2054
646.90        27.37172
647.33        27.50276
647.75        27.60068
648.18        27.75656
648.61        27.98817
649.04        28.37206
649.47        28.85532
649.89        29.19252
650.32         29.3958
650.75        29.76273
651.18        30.29636
651.61        30.75486
652.03        31.13851
652.46        31.67765
652.89         32.3258
653.32        32.74612
653.74        32.99183
654.17        33.58635
654.60        33.65663
655.03        34.89382
655.46        34.35901
655.88        35.71946
656.31        38.39128
656.74        39.06926
657.16        38.03179
657.59        37.10038
658.02        37.46027
658.45        38.28435
658.87        38.92957
659.30        39.12995
659.73        39.99546
660.15        39.98257
660.58        40.50961
661.01        40.80526
661.44        41.18879
661.86        41.23195
662.29        41.08386
662.72        41.49696
663.14        42.37514
663.57        42.72952
664.00        42.58115
664.42        42.73361
664.85        43.22832
665.27        43.60306
665.70        43.83028
666.13        44.10642
666.55        44.43544
666.98        44.75956
667.41        45.06301
667.83        45.31067
668.26        45.49208
668.69        45.63346
669.11        45.76164
669.54         45.9202
669.96         46.1222
670.39        46.35076
670.82        46.59181
671.24        46.82673
671.67        47.03564
672.09        47.22566
672.52        47.40501
672.94        47.62793
673.37        47.53342
673.80        47.96611
674.22        47.89355
674.65        48.17184
675.07        48.52922
675.50        48.95515
675.92        49.37697
676.35        49.67133
676.77        49.82408
677.20          49.854
677.62        49.84178
678.05        49.91763
678.47        50.11034
678.90         50.3865
679.32        50.67875
679.75        50.87253
680.17        50.91385
680.60        50.92587
681.02        50.98487
681.45        50.95249
681.87        50.79968
682.30        51.53466
682.72        51.39338
683.15        51.61979
683.57         51.7382
684.00        52.04032
684.42        52.43856
684.85        52.65829
685.27        52.69823
685.70        52.58209
686.12        52.44666
686.54        52.73758
686.97         53.3559
687.39        53.70192
687.82        53.68484
688.24        53.74285
688.66        53.87105
689.09        53.73899
689.51        53.44714
689.94        53.41992
690.36        53.65228
690.78        53.81976
691.21        53.90159
691.63        54.08613
692.06        54.34708
692.48        54.54269
692.90        54.65985
693.33        54.76456
693.75        54.85687
694.17        54.89362
694.60        54.92109
695.02        54.98224
695.44        55.07607
695.87        55.35137
696.29         55.7473
696.71        55.60833
697.14        55.44933
697.56        55.58212
697.98        56.08282
698.41        56.35848
698.83        56.38288
699.25        56.49386
699.68        56.67623
700.10        56.79672
700.52        56.83913
700.94         56.8528
701.37        56.84933
701.79        56.86441
702.21        56.90361
702.64        56.96577
703.06        57.05571
703.48        57.19413
703.90        57.38218
704.33        57.61919
704.75        57.85871
705.17        58.08806
705.59          58.218
706.01        58.34969
706.44        58.50026
706.86        58.46512
707.28        58.66943
707.70        58.77451
708.12        58.91084
708.55        59.03468
708.97        59.12449
709.39        59.34673
709.81        59.32743
710.23        59.50314
710.66        59.75393
711.08        60.04176
711.50         60.3017
711.92        60.49256
712.34        60.60412
712.76        60.64471
713.19        60.63317
713.61        60.64218
714.03        60.67581
714.45        60.72471
714.87        60.79033
715.29        60.86599
715.71        60.94681
716.13         61.0554
716.56        61.16474
716.98         61.2514
717.40        61.30806
717.82        61.44508
718.24        61.63015
718.66        61.71646
719.08        61.69445
719.50        61.63847
719.92        61.59036
720.34        61.58696
720.76        61.64338
721.19        61.74451
721.61        61.86296
722.03        61.92778
722.45        61.92253
722.87        61.86644
723.29        61.79996
723.71        61.78897
724.13        61.85048
724.55         61.9654
724.97        62.09907
725.39        62.19222
725.81        62.23568
726.23        62.25934
726.65        62.29294
727.07        62.38459
727.49        62.54216
727.91        62.72964
728.33         62.9473
728.75        63.19426
729.17        63.45316
729.59        63.73151
730.01        63.93776
730.43        63.91912
730.85        63.69563
731.27        63.28699
731.69        63.04693
732.10        62.96211
732.52         63.1405
732.94        63.55293
733.36        64.08707
733.78        64.50021
734.20         64.7028
734.62        64.77478
735.04        64.78475
735.46        64.74241
735.88        64.67165
736.30        64.73434
736.72        64.97175
737.13        64.52148
737.55        64.85175
737.97        64.59827
738.39        64.30547
738.81        64.00361
739.23        63.85744
739.65        64.30912
740.06        65.09325
740.48         65.4167
740.90        65.19453
741.32        64.86973
741.74        64.61475
742.16        64.51961
742.57        64.66177
742.99        64.98417
743.41        65.37131
743.83        65.66245
744.25          65.786
744.67        65.70324
745.08        65.51353
745.50        65.45872
745.92        65.58566
746.34        65.76801
746.75        65.98022
747.17        66.13394
747.59        66.18723
748.01        66.38029
748.42        66.69506
748.84        66.26957
749.26        66.07006
749.68        66.08777
750.09        66.49767
750.51        66.67625
750.93        66.58408
751.35        66.54287
751.76        66.58964
752.18        66.64514
752.60        66.68698
753.01        66.80146
753.43        66.96232
753.85        66.90602
754.27        66.59013
754.68        67.10176
755.10        66.68211
755.52        66.75781
755.93        66.78354
756.35        66.74986
756.77        66.80045
757.18        67.05633
757.60        67.52425
758.02        68.57119
758.43        69.69568
758.85        69.23252
759.26        67.59135
759.68        66.94202
760.10         67.3774
760.51        68.25411
760.93        67.97939
761.34        68.14365
761.76        68.47794
762.18         68.3203
762.59        67.84492
763.01        67.48722
763.42        67.36906
763.84        67.25713
764.26        67.19994
764.67         67.2534
765.09         67.4431
765.50        67.90725
765.92        68.49576
766.33        68.63807
766.75         68.2798
767.16         68.1432
767.58        68.27193
768.00        68.17355
768.41        67.94846
768.83        68.24615
769.24        68.84942
769.66        68.92883
770.07        68.51966
770.49        68.09399
770.90        67.85459
771.32        68.28001
771.73        69.15692
772.15        69.25578
772.56        68.58868
772.97        68.45343
773.39        68.47499
773.80        68.58817
774.22        68.63025
774.63        68.93882
775.05        69.35544
775.46        69.56876
775.88        69.50147
776.29        69.28642
776.70        69.00922
777.12        68.83876
777.53        68.82284
777.95        68.86551
778.36        68.98863
778.77        69.17512
779.19         69.4048
779.60        69.87519
780.02        70.37257
780.43        70.34064
780.84        69.91323
781.26        69.61744
781.67        69.64624
782.09         70.3661
782.50        71.42934
782.91        71.42174
783.33        70.43163
783.74        69.99191
784.15        70.17164
784.57        70.07155
784.98        69.73524
785.39        69.57217
785.81        69.59024
786.22        70.19029
786.63        70.40785
787.04        70.82269
787.46        71.14002
787.87        71.50185
788.28        71.88151
788.70        72.09039
789.11        72.11134
789.52        72.16576
789.93        72.20281
790.35        71.84042
790.76        71.23583
791.17         71.0144
791.58        71.22393
792.00        71.40521
792.41        71.49795
792.82        71.76401
793.23        72.12804
793.65        72.07444
794.06        71.77615
794.47        72.10162
794.88        72.85175
795.29        73.01366
795.71        72.51312
796.12        71.97814
796.53        71.60728
796.94         71.4011
797.35        71.49957
797.76        72.13331
798.18        73.04037
798.59        73.58989
799.00         73.6366
799.41        73.43665
799.82        73.13302
800.23        72.90419
800.64        72.83475
801.06        72.83707
801.47        72.91187
801.88        72.99216
802.29        73.04244
802.70        73.07474
803.11        73.08811
803.52        73.06817
803.93        73.02984
804.34        72.99217
804.75        72.91525
805.17        72.82462
805.58         72.7772
805.99        72.49065
806.40        72.14301
806.81        72.66666
807.22        73.78695
807.63        73.93307
808.04        73.18193
808.45        73.03439
808.86        73.57954
809.27        73.92899
809.68        73.96357
810.09        73.94391
810.50        73.86077
810.91        73.64326
811.32        73.42177
811.73        73.40754
812.14        73.63828
812.55        74.06721
812.96         74.5402
813.37         74.7558
813.78        74.63259
814.19        74.28347
814.60        73.84589
815.01         73.5079
815.42        73.32571
815.83        73.24032
816.24        73.24669
816.65        73.33762
817.05         73.4914
817.46        73.67513
817.87        73.85635
818.28        73.92441
818.69        73.86503
819.10        73.70956
819.51        73.51422
819.92        73.39742
820.33        73.40125
820.74        73.47698
821.14         73.6305
821.55        73.87877
821.96        74.19855
822.37         74.6004
822.78        74.95666
823.19        75.03498
823.60        74.78116
824.00        74.25051
824.41        73.65174
824.82        73.34978
825.23        73.42604
825.64        73.80242
826.04        74.27347
826.45        74.38756
826.86        74.06336
827.27         73.4447
827.68        72.79747
828.08        72.55971
828.49         72.7968
828.90        73.40977
829.31        74.19947
829.72        74.82266
830.12         75.1847
830.53        75.29364
830.94         75.3083
831.35         75.4553
831.75        75.80986
832.16        76.20692
832.57        76.52309
832.97         76.5258
833.38        76.17935
833.79        75.64493
834.20        75.05149
834.60        74.54944
835.01        74.23178
835.42        74.02595
835.82        74.03914
836.23        74.37564
836.64        75.03785
837.04        76.01376
837.45        76.93271
837.86         77.3303
838.26        77.08352
838.67        76.32617
839.08         75.3819
839.48        74.74685
839.89        74.60468
840.29        74.81895
840.70        75.22552
841.11        75.56626
841.51        75.77538
841.92        75.89569
842.33        76.02003
842.73        76.27576
843.14        76.62878
843.54        77.04084
843.95        77.39398
844.35        77.58555
844.76        77.56178
845.17        77.34695
845.57        77.04839
845.98        76.80215
846.38        76.67588
846.79        76.64619
847.19        76.60123
847.60        76.29794
848.00        75.73279
848.41        75.00881
848.81        74.39401
849.22        74.27602
849.62        74.75804
850.03        75.67422
850.43        76.78603
850.84        77.45689
851.24        77.54748
851.65        77.10886
852.05        76.44067
852.46        75.99477
852.86        75.89164
853.27        76.06629
853.67        76.21338
854.07        76.11879
854.48        75.68664
854.88        75.01237
855.29        74.27055
855.69        74.03075
856.10        74.35358
856.50        75.18044
856.90        76.02621
857.31        76.20477
857.71         75.6284
858.12        74.45924
858.52        73.20638
858.92        72.67303
859.33        73.05949
859.73        74.17154
860.13        75.53256
860.54         76.3667
860.94        76.48815
861.34        76.02793
861.75        75.27585
862.15        74.80102
862.55        74.73956
862.96         74.9277
863.36         75.0657
863.76        74.72088
864.17        73.85769
864.57        72.71092
864.97        71.60455
865.38        70.94924
865.78        70.87938
866.18        71.22949
866.58        71.89123
866.99        72.61371
867.39        73.28662
867.79        73.92265
868.19        74.34611
868.60        74.30043
869.00        73.78979
869.40        72.87543
869.80        71.93993
870.21        71.65537
870.61         72.2203
871.01        73.39124
871.41        74.71259
871.81        75.44901
872.22        75.39104
872.62        74.75237
873.02        73.82405
873.42         73.0983
873.82        72.76872
874.22        72.73702
874.63        72.84608
875.03        72.85649
875.43        72.70921
875.83        72.49358
876.23        72.49031
876.63        72.95384
877.03        73.86739
877.44        75.37309
877.84        77.14704
878.24        76.75526
878.64         76.9323
879.04        75.68255
879.44        74.30918
879.84        73.40898
880.24        73.16628
880.64        73.32177
881.04        73.74879
881.44        74.30148
881.84        74.86652
882.24        75.53852
882.65        76.03503
883.05        75.99647
883.45         75.3353
883.85        74.19859
884.25        73.08808
884.65        72.78282
885.05        73.41035
885.45        74.69062
885.85        76.20734
886.25        77.22523
886.65        77.47729
887.05        77.20628
887.45        76.47179
887.85        75.41026
888.25         74.2229
888.65        72.93896
889.04        71.89014
889.44        71.59645
889.84        72.05941
890.24        73.20114
890.64        74.64269
891.04        75.54289
891.44        75.59444
891.84        75.02622
892.24         74.2663
892.64        73.92795
893.04        74.13718
893.44        74.69317
893.83        75.39472
894.23        75.81783
894.63        75.86446
895.03        75.69328
895.43        75.45044
895.83        75.34131
896.23        75.41698
896.63        75.56577
897.02        75.73038
897.42        75.89292
897.82         76.0041
898.22        76.12409
898.62        76.14474
899.01        75.88899
899.41        75.34377
899.81         74.5698
900.21         73.8617
900.61        73.67478
901.00         74.0791
901.40        74.94778
901.80        75.87755
902.20         76.1954
902.59        75.74604
902.99         74.7384
903.39        73.60832
903.79        73.01588
904.18        73.10927
904.58        73.70432
904.98        74.44701
905.38        74.79795
905.77        74.59629
906.17        74.01375
906.57         73.3371
906.96        73.04161
907.36        73.20944
907.76        73.71871
908.15        74.26489
908.55        74.22521
908.95        73.55052
909.34        72.46296
909.74        71.47964
910.14        71.24271
910.53        71.92007
910.93        73.23433
911.33        74.87267
911.72        76.35515
912.12        77.39578
912.52        78.11929
912.91        78.55592
913.31        78.75023
913.70        78.75313
914.10        78.50021
914.49        78.02753
914.89        77.40144
915.29        76.69954
915.68        75.98243
916.08        75.40907
916.47        75.05822
916.87        75.00415
917.26        75.19161
917.66         75.5733
918.05        76.08792
918.45        76.61952
918.84        77.19045
919.24        77.63824
919.64        77.85535
920.03         77.8197
920.42        77.54708
920.82        77.14677
921.21         76.6994
921.61        76.27132
922.00         75.8643
922.40        75.56686
922.79        75.60619
923.19        75.97157
923.58        76.62222
923.98        77.30511
924.37        77.63039
924.77        77.50713
925.16        77.04051
925.55        76.45784
925.95        76.15425
926.34        76.24848
926.74        76.59185
927.13        76.99361
927.52        77.10928
927.92         76.8653
928.31        76.38416
928.70         75.8148
929.10        75.37234
929.49        75.12785
929.89         74.9589
930.28        74.88305
930.67        74.85361
931.07        74.84177
931.46        74.91854
931.85        74.95052
932.24        74.72317
932.64        74.25288
933.03        73.62624
933.42        73.13651
933.82        73.28001
934.21        74.16158
934.60        75.51799
934.99        77.04797
935.39         78.2343
935.78         78.9286
936.17        79.24783
936.56        78.99645
936.96        77.94489
937.35        76.24184
937.74        74.09066
938.13        72.19555
938.53        71.44781
938.92        71.92941
939.31        73.46267
939.70        75.44174
940.09        76.63988
940.49        76.61063
940.88        75.67676
941.27        74.41424
941.66        73.70909
942.05        73.78594
942.44        74.42582
942.84        75.16103
943.23        75.26257
943.62        74.50832
944.01         73.1881
944.40         71.9968
944.79        71.91853
945.18        73.11463
945.57        75.27165
945.97         77.5223
946.36        78.60824
946.75         78.0501
947.14        76.25602
947.53        74.10334
947.92        72.91927
948.31        73.05717
948.70        74.18819
949.09        75.64531
949.48        76.22737
949.87        75.59422
950.26        74.16152
950.65        72.69993
951.04        72.25732
951.43        73.04399
951.82        74.75945
952.21        76.66978
952.60        77.44966
952.99        76.72568
953.38        74.93675
953.77        73.02848
954.16        72.25734
954.55        72.87027
954.94        74.59801
955.33        76.62948
955.72        77.23866
956.11        75.89133
956.50        73.24873
956.89        70.56917
957.28        69.45393
957.66        70.24724
958.05        72.41644
958.44        75.14366
958.83        76.74055
959.22        76.59045
959.61        75.27273
960.00         73.6081
960.39        72.64513
960.78        72.60105
961.16        73.15177
961.55        73.89502
961.94        74.18297
962.33         73.7858
962.72        73.05023
963.11        72.23189
963.49        71.61391
963.88        71.28484
964.27        71.11198
964.66        71.15279
965.04        71.58143
965.43        72.29247
965.82        73.26274
966.21        74.20628
966.60        74.58929
966.98        74.30899
967.37        73.58884
967.76        72.70467
968.15        72.02987
968.53        71.64993
968.92        71.38581
969.31        71.38078
969.69        71.91097
970.08        72.92497
970.47        74.49349
970.86         75.9397
971.24        76.10093
971.63        74.75892
972.02        72.31582
972.40        69.93001
972.79        69.42643
973.17        71.10307
973.56        74.30441
973.95        77.93484
974.33        79.91302
974.72        79.50229
975.11        77.39333
975.49        74.64845
975.88        73.21807
976.26        73.60196
976.65        75.16933
977.04        77.23922
977.42        78.57524
977.81         78.5757
978.19        77.77045
978.58        76.58909
978.96        75.56359
979.35        74.97793
979.74         74.6702
980.12        74.68465
980.51        75.07775
980.89        75.87379
981.28        76.89626
981.66        78.22069
982.05        79.64568
982.43        81.14774
982.82        82.63979
983.20        83.62115
983.59        83.17097
983.97        81.25224
984.35        78.24567
984.74        75.33168
985.12        74.11041
985.51        74.81491
985.89        77.09432
986.28        79.81255
986.66        81.39941
987.04        81.19648
987.43        79.70125
987.81        77.61076
988.20        76.44302
988.58        76.56808
988.96        77.52192
989.35        78.43412
989.73        78.17441
990.12        76.42331
990.50        73.77622
990.88        70.87138
991.27        68.69072
991.65        67.55123
992.03        67.23067
992.42        67.66518
992.80        69.06203
993.18         71.2319
993.56         74.1455
993.95        77.15795
994.33        79.15601
994.71        79.62444
995.10        78.85262
995.48        77.44267
995.86        76.44771
996.24        76.21014
996.63        76.40502
997.01        77.02962
997.39        77.83033
997.77        78.61646
998.15         79.4623
998.54        80.20061
998.92        80.54899
999.30        80.46078
999.68        80.04404
1000.06        79.38657
1000.45        78.67259
1000.83        78.08873
1001.21        77.53261
1001.59        77.36037
1001.97        78.11395
1002.35        79.76096
1002.73         82.0931
1003.12        84.20129
1003.50        84.56368
1003.88        82.97406
1004.26        79.97188
1004.64        76.58436
1005.02        74.62178
1005.40        74.61927
1005.78        75.95007
1006.16        78.00581
1006.54        79.97503
1006.92        81.59003
1007.30        83.13284
1007.69        84.38406
1008.07        84.97062
1008.45        84.68991
1008.83        83.52881
1009.21         81.9297
1009.59        80.77946
1009.97        80.36624
1010.35        80.50552
1010.73        81.02141
1011.11        81.54147
1011.49         81.8791
1011.86         82.1999
1012.24        82.20777
1012.62        81.63393
1013.00        80.43445
1013.38        78.61552
1013.76        76.48466
1014.14        74.84088
1014.52        74.01653
1014.90        73.84038
1015.28        74.04652
1015.66        74.06934
1016.04        73.77193
1016.41        73.55195
1016.79        73.27954
1017.17        72.81207
1017.55        72.33364
1017.93        71.85007
1018.31        71.99581
1018.69        73.67154
1019.06        77.19845
1019.44        82.77522
1019.82        89.94386
1020.20        94.88007
1020.58        94.52094
1020.95         89.6987
1021.33         83.4946
1021.71        78.78551
1022.09        75.69859
1022.46        73.29565
1022.84        71.21514
1023.22        68.46442
1023.60        65.50497
1023.97        63.46075
1024.35        62.87605
1024.73        64.03474
