SpectraSmart Spectrum 2.9.0.0
--------- Device Information -----------
Spectrum Name :  反射率_0
Saving Time :  2024/04/30 00:56:00
Spectro-Module Model Name : SE2030-DUVN
Spectro-Module Serial Number : OS361AC55029948
Wavelength Start : 200
Wavelength End : 1025
Wavelength Unit : Wavelength(nm)
Spectrum Unit : Reflectance(%)
-----------Spectrum Setting ------------
Integration Time : 20ms
Average : 10
Boxcar : 0
Background removal :  enabled
linearity correction :  enabled
SC :  disabled
Intensity correction :  disabled
DWT denoise :  enabled
savitzky-golay :  disabled
FFT :  disabled
Running average :  disabled
Kalman :  disabled
High pass :  disabled
---------------BEGIN--------------------
Wavelength(nm)             Reflectance(%)
200.29               0
200.75        66.71342
201.21        49.53955
201.67        29.56197
202.13        12.64436
202.58        1.877923
203.04       -3.401206
203.50       -2.304056
203.96        6.107997
204.42        20.48235
204.88        39.07206
205.34        55.73676
205.80        61.62554
206.26        57.49095
206.72        49.21525
207.18        39.77273
207.64        30.27987
208.10        20.50099
208.55        9.052928
209.01      -0.7898999
209.47      -0.6663238
209.93        9.629642
210.39         25.0733
210.85        38.30973
211.31        43.55486
211.77        40.77068
212.23        29.98244
212.69        13.44662
213.14        5.683783
213.60        13.99823
214.06        29.97648
214.52          43.687
214.98        48.93078
215.44        46.79718
215.90        39.91537
216.36        31.05546
216.81        25.29303
217.27        25.27077
217.73         30.0467
218.19        38.46051
218.65        44.26261
219.11        43.31335
219.57        38.66029
220.02        33.69181
220.48        30.42214
220.94        28.31535
221.40        26.00876
221.86        23.21298
222.32         20.7467
222.77        19.61902
223.23        20.25437
223.69        20.94664
224.15        20.41251
224.61        18.73816
225.06        15.86365
225.52        13.78038
225.98        15.98038
226.44         21.8627
226.90        28.65547
227.36        33.62151
227.81        35.08051
228.27        33.55118
228.73        29.83756
229.19        25.45541
229.65        23.72016
230.10        25.34048
230.56        28.48214
231.02        31.49758
231.48        33.05971
231.93        33.12229
232.39        32.33117
232.85        31.03223
233.31        29.84904
233.77        29.06888
234.22        28.55627
234.68        28.15234
235.14        27.64591
235.60        27.06851
236.05        26.61292
236.51        26.60441
236.97        27.39508
237.43        29.09635
237.88        31.82796
238.34        35.29844
238.80        38.45794
239.26         40.2331
239.71         40.7453
240.17         40.1151
240.63        38.98563
241.08         37.5391
241.54        35.15536
242.00        32.60411
242.46        34.19218
242.91        43.54055
243.37        58.49489
243.83        72.27055
244.28        80.06894
244.74        82.05856
245.20        78.20321
245.66        70.36877
246.11        63.97736
246.57        62.23172
247.03        65.20295
247.48        69.26279
247.94        66.29272
248.40        57.56735
248.85         48.3422
249.31        43.15265
249.77        44.00941
250.22        50.87539
250.68        64.87495
251.14        85.86333
251.59        97.63284
252.05        88.76405
252.51        72.44598
252.96        59.29575
253.42        52.37207
253.88        49.30249
254.33        47.66686
254.79        47.69614
255.25        49.26383
255.70        51.24601
256.16        53.47767
256.62         54.7893
257.07        54.31335
257.53        52.71865
257.99         50.2913
258.44        47.72939
258.90        46.73663
259.35        46.94464
259.81        47.75495
260.27        48.41434
260.72        48.33561
261.18        47.71406
261.63        46.68105
262.09         45.4928
262.55        44.19307
263.00        42.87673
263.46        41.71035
263.91        40.67285
264.37        39.97065
264.83        39.50848
265.28        39.15478
265.74        38.95808
266.19        38.78452
266.65         38.6331
267.11        38.47517
267.56         38.2002
268.02        37.64353
268.47        36.77108
268.93        35.64496
269.38        34.40337
269.84        33.41254
270.30        32.76942
270.75          32.401
271.21        32.15289
271.66        31.76112
272.12        31.16085
272.57        30.41049
273.03        29.64551
273.48        29.00119
273.94        28.56268
274.39        28.23274
274.85        27.95275
275.31        27.58736
275.76        27.09672
276.22        26.54896
276.67        25.98874
277.13        25.55563
277.58        25.22474
278.04        24.97592
278.49        24.69325
278.95        24.28968
279.40        23.72534
279.86        23.12197
280.31        22.51427
280.77        22.05337
281.22        21.74339
281.68        21.55959
282.13        21.49413
282.59        21.57233
283.04        21.75251
283.50         22.0052
283.95        22.21461
284.41         22.2074
284.86        21.95522
285.32        21.55649
285.77        21.09784
286.22        20.76883
286.68        20.62614
287.13        20.58558
287.59        20.64333
288.04        20.73887
288.50         20.8525
288.95        20.96962
289.41        21.06119
289.86         21.0481
290.32        20.94538
290.77        20.77934
291.22        20.59499
291.68        20.46383
292.13        20.41066
292.59        20.44392
293.04        20.61899
293.50        21.03389
293.95        21.68758
294.40        22.55171
294.86        23.48288
295.31        24.27012
295.77        24.85152
296.22        25.26073
296.68        25.63199
297.13        26.16312
297.58        26.90044
298.04         27.7468
298.49        28.56675
298.95        29.14681
299.40        29.44894
299.85        29.56858
300.31         29.6334
300.76        29.77785
301.21        30.07172
301.67        30.46751
302.12         30.9133
302.58        31.47042
303.03        32.10515
303.48        32.67101
303.94        33.08199
304.39        33.90061
304.84         33.9415
305.30        34.16804
305.75        34.28087
306.20         34.4309
306.66        34.64856
307.11        34.89542
307.57        35.14073
308.02        35.26123
308.47        35.25381
308.93        35.16055
309.38        35.03611
309.83        35.01364
310.29         35.1143
310.74        35.28977
311.19        35.43748
311.65        35.39339
312.10        35.12848
312.55        34.70876
313.00        34.26503
313.46        33.99776
313.91        33.94241
314.36        34.03848
314.82        34.18091
315.27        34.22012
315.72        34.09779
316.18        33.86756
316.63        33.56815
317.08        33.27226
317.53         33.0129
317.99        32.77584
318.44        32.55125
318.89        32.33217
319.35        32.11699
319.80        31.91368
320.25        31.74954
320.70        31.66211
321.16        31.64029
321.61        31.68048
322.06        31.70931
322.51        31.61845
322.97        31.38303
323.42        31.03925
323.87        30.65932
324.32        30.36482
324.78        30.17842
325.23          30.081
325.68        30.01002
326.13         29.8648
326.59        29.61173
327.04        29.29464
327.49         28.9608
327.94        28.69591
328.39        28.51668
328.85        28.38199
329.30        28.25722
329.75        28.03992
330.20        27.71542
330.66        27.32951
331.11        26.94696
331.56        26.64219
332.01        26.43941
332.46        26.30426
332.92        26.23173
333.37        26.24427
333.82        26.31569
334.27        26.43718
334.72        26.52053
335.17        26.42078
335.63        26.10944
336.08        25.63808
336.53        25.11316
336.98        24.73762
337.43        24.57619
337.88        24.57511
338.34        24.66575
338.79        24.75084
339.24        24.78303
339.69        24.80066
340.14        24.78903
340.59        24.72346
341.05         24.6087
341.50        24.43493
341.95        24.26197
342.40        24.19926
342.85        24.25986
343.30        24.40787
343.75        24.54819
344.20        24.52612
344.66        24.31948
345.11        23.97741
345.56        23.59069
346.01        23.30102
346.46        23.15813
346.91         23.1239
347.36         23.1632
347.81         23.2232
348.26        23.27762
348.72        23.33296
349.17        23.38405
349.62         23.4199
350.07        23.43085
350.52        23.41074
350.97        23.34291
351.42        23.20624
351.87        23.01221
352.32         22.7877
352.77         22.5783
353.22         22.4551
353.67        22.43546
354.13        22.48764
354.58        22.59943
355.03        22.74949
355.48        22.90793
355.93        23.06877
356.38        23.16163
356.83        23.08298
357.28        22.82856
357.73        22.43957
358.18        22.01789
358.63        21.72797
359.08        21.60859
359.53        21.60785
359.98        21.66359
360.43        21.67052
360.88        21.59401
361.33        21.47455
361.78        21.31343
362.23        21.10973
362.68        20.87991
363.13        20.62437
363.58        20.39685
364.03        20.28747
364.48        20.30715
364.93        20.42291
365.38         20.5705
365.83        20.64233
366.28        20.60576
366.73        20.49243
367.18        20.32463
367.63        20.14073
368.08        19.96119
368.53        19.77469
368.98        19.60685
369.43        19.50074
369.88        19.46245
370.33        19.48514
370.78        19.52678
371.23        19.51265
371.68        19.42245
372.13        19.27274
372.58        19.09884
373.03        18.96225
373.48        18.87629
373.93        18.81644
374.38        18.75729
374.83        18.65876
375.28        18.51485
375.72        18.34563
376.17        18.17753
376.62        18.00804
377.07        17.84253
377.52        17.67284
377.97        17.53508
378.42        17.49171
378.87        17.54585
379.32         17.6733
379.77        17.79559
380.22        17.79628
380.67        17.65292
381.11        17.39671
381.56        17.10803
382.01        16.92024
382.46        16.87292
382.91        16.93275
383.36        17.02669
383.81        17.04116
384.26        16.95238
384.71        16.79582
385.15        16.63655
385.60         16.6005
386.05        16.69322
386.50        16.86059
386.95        17.01858
387.40        17.04068
387.85        16.90567
388.29        16.66026
388.74        16.38859
389.19        16.14696
389.64        15.95607
390.09          15.788
390.54        15.66725
390.98        15.63376
391.43        15.68937
391.88        15.82118
392.33        15.94483
392.78        15.95409
393.23        15.84072
393.67        15.60216
394.12        15.34474
394.57        15.32628
395.02        15.34511
395.47        15.52955
395.91        15.72694
396.36         15.7814
396.81        15.65974
397.26        15.42351
397.71        15.14801
398.15        14.93355
398.60        14.83112
399.05        14.77463
399.50        14.74143
399.95        14.76553
400.39        14.75708
400.84          14.721
401.29        14.64495
401.74        14.59439
402.18        14.57641
402.63        14.54338
403.08        14.50158
403.53        14.47463
403.97        14.46361
404.42        14.46451
404.87        14.45959
405.32        14.41952
405.76         14.3363
406.21        14.22412
406.66        14.11459
407.11           14.06
407.55        14.07504
408.00        14.14443
408.45        14.22059
408.90        14.21593
409.34        14.11003
409.79        13.92986
410.24        13.75495
410.68        13.70494
411.13        13.80216
411.58        14.00881
412.03        14.23048
412.47        14.30675
412.92        14.18939
413.37         13.9445
413.81        13.66646
414.26        13.51752
414.71        13.52107
415.15        13.62991
415.60        13.77636
416.05        13.86543
416.49          13.864
416.94        13.80918
417.39        13.71865
417.83        13.61559
418.28        13.51863
418.73        13.41077
419.17        13.32027
419.62        13.29578
420.07        13.34009
420.51        13.44033
420.96        13.54237
421.41        13.55113
421.85        13.44849
422.30        13.28168
422.74         13.1037
423.19        13.01536
423.64        13.02995
424.08        13.12116
424.53        13.24007
424.98        13.32632
425.42         13.3567
425.87        13.33995
426.31        13.28292
426.76        13.21807
427.21        13.11263
427.65        12.98584
428.10        12.85478
428.54        12.72914
428.99         12.6302
429.44        12.64019
429.88        12.71133
430.33        12.60581
430.77        12.40193
431.22        12.51124
431.66        12.88797
432.11        13.05103
432.56        12.93228
433.00        12.82271
433.45        12.74255
433.89        12.45677
434.34        12.12948
434.78        12.21802
435.23        12.61938
435.67        12.76918
436.12        12.62431
436.57        12.49108
437.01        12.42791
437.46        12.40367
437.90        12.43425
438.35        12.51817
438.79        12.61087
439.24        12.62035
439.68        12.55052
440.13        12.48186
440.57        12.41852
441.02        12.37409
441.46        12.35895
441.91        12.27653
442.35        12.16705
442.80          12.354
443.24        12.71857
443.69        12.65697
444.13        12.22421
444.58        12.02394
445.02        12.06422
445.47        12.02822
445.91        11.91699
446.36        11.88867
446.80        11.94087
447.24        12.03606
447.69         12.1414
448.13        12.20513
448.58        12.21517
449.02        12.18727
449.47        12.15116
449.91        12.14775
450.36        12.18707
450.80         12.2508
451.25        12.31616
451.69        12.34728
452.13        12.33349
452.58        12.29695
453.02        12.24406
453.47        12.18368
453.91        12.12055
454.36        12.08742
454.80         12.0392
455.24        12.04309
455.69        12.08394
456.13        12.14893
456.58        12.21936
457.02        12.25312
457.46        12.24509
457.91        12.20858
458.35        12.15311
458.79        12.09813
459.24        12.06095
459.68        12.04123
460.13        12.05133
460.57        12.05312
461.01        12.13885
461.46        12.18356
461.90        12.21887
462.34        12.36202
462.79        12.54982
463.23        12.51838
463.68        12.30764
464.12        12.21269
464.56        12.25153
465.01        12.28555
465.45         12.2829
465.89         12.2521
466.34        12.21038
466.78        12.21593
467.22        12.29204
467.67        12.27963
468.11        12.18682
468.55         12.0749
468.99        11.98485
469.44        11.94781
469.88        11.97386
470.32        12.06064
470.77        12.16756
471.21          12.241
471.65        12.26007
472.10        12.24487
472.54        12.22472
472.98         12.2622
473.42        12.36469
473.87        12.50285
474.31        12.63468
474.75        12.69763
475.20        12.68424
475.64        12.61998
476.08        12.53189
476.52        12.45763
476.97        12.41409
477.41        12.38608
477.85         12.3967
478.29        12.48012
478.74        12.63652
479.18        12.84601
479.62        13.04356
480.06        13.16053
480.50        13.18723
480.95        13.02585
481.39         12.9458
481.83        12.93311
482.27        13.08479
482.72        13.25698
483.16        13.55448
483.60        13.72045
484.04        13.78751
484.48        13.72422
484.93        13.60998
485.37         13.7442
485.81        14.04689
486.25        14.03798
486.69        13.60218
487.14        13.77779
487.58        14.32422
488.02        14.36607
488.46        14.51944
488.90         14.8508
489.34        14.25996
489.79        14.28904
490.23        14.52896
490.67        14.87238
491.11        15.18711
491.55        15.21474
491.99        15.03628
492.43        15.08781
492.88        15.39175
493.32        15.64441
493.76        15.80613
494.20        15.99078
494.64        16.19541
495.08        16.38198
495.52        16.53277
495.96        16.66375
496.41        16.78347
496.85        16.79937
497.29        16.75828
497.73        17.02694
498.17        17.34436
498.61        17.44469
499.05        17.29187
499.49         17.2818
499.93        17.44784
500.37          17.629
500.82        17.79593
501.26        17.94394
501.70         18.0611
502.14        18.17374
502.58        18.29229
503.02        18.41153
503.46        18.53402
503.90        18.66273
504.34        18.78962
504.78        18.89901
505.22        18.98602
505.66        19.05161
506.10        19.09583
506.54        19.14168
506.98        19.19678
507.42        19.21758
507.86        19.19141
508.30        19.31488
508.74        19.23766
509.18        19.25042
509.62        19.26081
510.06        19.29621
510.50        19.35916
510.94        19.44797
511.38        19.55404
511.82        19.65224
512.26        19.73292
512.70        19.79638
513.14        19.84805
513.58        19.89914
514.02        19.95138
514.46         20.0005
514.90        20.03396
515.34        20.03255
515.78        19.99599
516.22        19.93544
516.66        19.87312
517.10         19.8423
517.54        19.84957
517.98        19.88199
518.42        19.92402
518.86        19.94959
519.30        19.94887
519.74         19.9306
520.18        19.89292
520.62        19.83186
521.06        19.75312
521.50        19.66194
521.93         19.5793
522.37        19.53469
522.81        19.53709
523.25        19.57417
523.69         19.6307
524.13        19.68257
524.57        19.71711
525.01        19.73561
525.45        19.72799
525.89        19.68045
526.32        19.59157
526.76        19.47323
527.20        19.34076
527.64        19.21981
528.08         19.1194
528.52        19.03577
528.96        18.96955
529.40        18.91919
529.83        18.88041
530.27        18.85563
530.71        18.83254
531.15        18.79345
531.59        18.73403
532.03        18.65734
532.46        18.57281
532.90        18.50319
533.34        18.45362
533.78        18.42114
534.22         18.3965
534.66        18.36429
535.09        18.32022
535.53        18.27528
535.97        18.23956
536.41        18.23452
536.85        18.26158
537.28        18.30922
537.72        18.35981
538.16        18.38908
538.60        18.39066
539.04         18.3774
539.47        18.34909
539.91        18.32385
540.35        18.30553
540.79        18.29764
541.22        18.31805
541.66        18.39781
542.10        18.53788
542.54        18.72836
542.97        18.94309
543.41        19.14158
543.85        19.31137
544.29        19.46437
544.72        19.60112
545.16        19.73973
545.60          19.884
546.04        20.01916
546.47        20.15761
546.91        20.35134
547.35        20.58749
547.79        20.79231
548.22        20.94734
548.66        21.13616
549.10        21.36412
549.53        21.52009
549.97        21.57881
550.41         21.9441
550.84        21.96169
551.28        22.12713
551.72        22.24117
552.15        22.49428
552.59         22.6055
553.03        22.79632
553.46        22.98442
553.90         23.1673
554.34        23.33575
554.77         23.5143
555.21        23.68759
555.65        23.76703
556.08        23.77158
556.52        23.82612
556.96        23.93768
557.39         24.0607
557.83         24.1901
558.27        24.30326
558.70        24.40994
559.14         24.5541
559.57        24.71105
560.01        24.85149
560.45         24.9514
560.88        24.90407
561.32        24.87139
561.75        24.86865
562.19        24.95263
562.63        25.03716
563.06        25.12098
563.50        25.27287
563.93        25.45881
564.37        25.61333
564.80        25.71677
565.24        25.79292
565.68        25.85643
566.11        25.94829
566.55        26.07785
566.98        26.19497
567.42        26.32452
567.85        26.45407
568.29         26.5853
568.72        26.80166
569.16        27.14025
569.60        27.07098
570.03         27.4232
570.47         27.6336
570.90        27.81276
571.34        27.92619
571.77        28.13973
572.21        28.29176
572.64        28.41098
573.08        28.51435
573.51        28.64853
573.95        28.60736
574.38        28.87964
574.82        28.87744
575.25        28.89968
575.69        28.85529
576.12        28.78934
576.56        29.15285
576.99        29.13641
577.42        29.15635
577.86        29.03219
578.29        28.99759
578.73        29.11522
579.16        28.79805
579.60        28.80085
580.03        28.67885
580.47        28.64499
580.90        28.63259
581.33        28.58909
581.77        28.46719
582.20        28.23871
582.64        27.95732
583.07        27.69102
583.51        27.48212
583.94        27.45321
584.37        27.37221
584.81        27.26421
585.24         27.2599
585.68        27.16642
586.11        27.35295
586.54        26.83983
586.98         26.8692
587.41        27.23205
587.85        26.77714
588.28        26.81918
588.71        26.84723
589.15        26.73295
589.58        26.51992
590.01        26.58773
590.45        26.48653
590.88        26.42894
591.31         26.5477
591.75        26.75753
592.18        26.90645
592.61        27.01944
593.05        26.57378
593.48        26.91321
593.91        26.97786
594.35        26.87375
594.78        26.87777
595.21        26.90116
595.65        27.24571
596.08        27.20211
596.51        27.57438
596.94        27.93523
597.38        28.27489
597.81        28.49715
598.24        28.57111
598.68         28.7692
599.11        29.04525
599.54        29.55453
599.97        29.81683
600.41        29.84086
600.84        30.54283
601.27        30.68476
601.70        31.20106
602.14        31.68335
602.57        32.03382
603.00        32.26202
603.43        32.68915
603.87        33.22756
604.30        33.71901
604.73        34.14862
605.16        34.56788
605.60        34.98033
606.03        35.49644
606.46        36.00508
606.89        36.41739
607.32        36.63552
607.76        36.94649
608.19        37.34232
608.62        37.64857
609.05        37.90601
609.48        38.48645
609.92        38.70554
610.35        39.21177
610.78        39.65913
611.21        39.68004
611.64        40.12313
612.07        40.55602
612.50        40.57792
612.94        40.92209
613.37         41.4734
613.80        41.39459
614.23        42.05619
614.66        42.25624
615.09        42.42107
615.52        42.58286
615.96        42.80452
616.39        42.97541
616.82        43.10973
617.25        43.47016
617.68        43.80286
618.11        44.02751
618.54        44.08213
618.97        44.19011
619.40        44.41467
619.84        44.57733
620.27        44.68229
620.70        45.05747
621.13        45.64084
621.56        45.19429
621.99        45.37776
622.42        45.17868
622.85        45.49862
623.28        45.69419
623.71        45.98358
624.14        44.97895
624.57        45.60155
625.00         45.4628
625.43        45.40766
625.86         45.2327
626.29        44.97968
626.72        45.08025
627.15        44.88726
627.58        44.99524
628.01         45.1082
628.44        44.77424
628.87        44.10772
629.30        43.88004
629.73        44.06279
630.16        43.92018
630.59        43.41458
631.02        43.08802
631.45        42.77155
631.88        42.41066
632.31        41.93924
632.74        41.61834
633.17         41.0974
633.60        40.67256
634.03        40.24487
634.46        39.81062
634.89        39.37317
635.32        38.95389
635.75        38.55643
636.18        38.16739
636.61        37.77705
637.04        37.37554
637.47        36.96817
637.89        36.53745
638.32        36.07616
638.75        35.68274
639.18        35.38512
639.61        34.82091
640.04        34.63328
640.47        34.32985
640.90        34.09903
641.33         33.9284
641.76        33.80272
642.18        33.68667
642.61        33.55619
643.04        33.42591
643.47        33.32877
643.90        33.30769
644.33        33.36592
644.76        33.53086
645.18        33.73907
645.61        33.79473
646.04        33.65282
646.47        33.73228
646.90        34.00747
647.33        34.20262
647.75         34.3087
648.18        34.51094
648.61        34.81835
649.04        35.15128
649.47        35.51261
649.89        35.95783
650.32        36.45963
650.75        36.94244
651.18        37.40633
651.61        37.93365
652.03        38.52454
652.46        39.10987
652.89        39.63535
653.32        40.10543
653.74        40.59464
654.17        40.94274
654.60        40.96148
655.03        42.38845
655.46        41.84869
655.88        42.99379
656.31        45.46386
656.74        46.04212
657.16        45.29157
657.59        44.55126
658.02        44.64981
658.45        45.75893
658.87        46.16994
659.30        46.44726
659.73        47.15935
660.15        47.39697
660.58        47.85523
661.01        48.02438
661.44        48.10985
661.86        48.09063
662.29        48.07155
662.72        48.34838
663.14        48.86234
663.57        49.06748
664.00        48.99212
664.42        49.11625
664.85        49.47171
665.27         49.7561
665.70        49.93956
666.13         50.1453
666.55        50.37348
666.98        50.58117
667.41        50.75422
667.83        50.86584
668.26         50.9098
668.69        50.90705
669.11        50.89478
669.54        50.93571
669.96        51.04347
670.39        51.19494
670.82        51.35846
671.24        51.48841
671.67        51.56293
672.09        51.60162
672.52        51.63167
672.94        51.75132
673.37        51.57607
673.80        51.97117
674.22        51.81164
674.65        52.10966
675.07        52.52156
675.50         52.8311
675.92        52.99953
676.35        53.14487
676.77        53.27143
677.20        53.26343
677.62        53.18665
678.05        53.20392
678.47        53.34016
678.90        53.55922
679.32        53.78395
679.75        53.89899
680.17        53.87164
680.60        53.74825
681.02        53.61482
681.45        53.58738
681.87        53.69733
682.30        53.95601
682.72        54.28278
683.15        54.36595
683.57        54.25264
684.00        54.31868
684.42        54.57201
684.85        54.74857
685.27        54.84552
685.70         54.9733
686.12        55.14493
686.54        55.46932
686.97        55.86247
687.39        56.07559
687.82        56.06295
688.24        56.05619
688.66        56.06195
689.09         55.9324
689.51        55.73718
689.94        55.66821
690.36        55.75196
690.78        55.94061
691.21         56.1744
691.63        56.35645
692.06        56.45533
692.48        56.50811
692.90        56.54099
693.33        56.58909
693.75        56.66843
694.17        56.75846
694.60        56.85722
695.02        56.95626
695.44         57.0427
695.87        57.18827
696.29        57.37463
696.71        57.36108
697.14        57.22341
697.56        57.38252
697.98        57.78136
698.41        57.91675
698.83        57.80395
699.25         57.8948
699.68        58.15482
700.10        58.25695
700.52        58.17092
700.94        58.12047
701.37        58.04571
701.79        58.03393
702.21        58.06672
702.64        58.15227
703.06          58.275
703.48        58.42202
703.90        58.58551
704.33        58.77105
704.75        58.94262
705.17        59.10359
705.59        59.23081
706.01        59.32992
706.44        59.39945
706.86        59.45291
707.28        59.49633
707.70        59.50997
708.12        59.53706
708.55        59.67762
708.97        59.91731
709.39        60.13014
709.81        60.28783
710.23        60.45578
710.66        60.61498
711.08        60.72016
711.50        60.77734
711.92        60.86332
712.34        60.98889
712.76        61.12752
713.19        61.24653
713.61        61.32705
714.03        61.34377
714.45        61.33265
714.87        61.31474
715.29         61.2816
715.71        61.26014
716.13        61.32302
716.56        61.43661
716.98        61.54564
717.40        61.61375
717.82        61.69096
718.24        61.77877
718.66        61.85699
719.08        61.92456
719.50        61.98236
719.92         62.0293
720.34        62.06631
720.76        62.09432
721.19        62.10683
721.61        62.11807
722.03        62.12701
722.45        62.13509
722.87        62.14257
723.29        62.15023
723.71        62.15834
724.13        62.16714
724.55        62.17905
724.97        62.19765
725.39        62.21669
725.81        62.23901
726.23         62.2891
726.65        62.36804
727.07        62.39571
727.49        62.50249
727.91        62.56327
728.33         62.6414
728.75         62.7719
729.17         62.9539
729.59        63.18196
730.01        63.36343
730.43        63.35194
730.85        63.13797
731.27         62.7816
731.69        62.44761
732.10        62.39107
732.52        62.66031
732.94        63.18158
733.36        63.79724
733.78        64.20235
734.20         64.2948
734.62        64.20659
735.04        64.05693
735.46        63.90726
735.88        63.86671
736.30        64.16741
736.72        64.66356
737.13          64.838
737.55        64.59002
737.97        64.26418
738.39        63.99915
738.81        63.72091
739.23        63.56726
739.65        63.95522
740.06        64.63828
740.48        64.90453
740.90        64.66097
741.32        64.24335
741.74        63.85017
742.16        63.67915
742.57        63.81514
742.99        64.20731
743.41        64.69832
743.83        64.93367
744.25        64.89274
744.67        64.87991
745.08        64.93989
745.50        64.92803
745.92        64.86835
746.34        64.83755
746.75        64.87167
747.17        64.94901
747.59        65.06932
748.01        65.34171
748.42        65.65103
748.84        65.60824
749.26        65.30334
749.68        65.11741
750.09        65.11839
750.51        65.37381
750.93        65.72092
751.35        65.61935
751.76        65.14703
752.18        64.97077
752.60        65.13037
753.01        65.21683
753.43        65.19181
753.85         65.2326
754.27        65.34665
754.68        65.50456
755.10        65.67052
755.52        65.79821
755.93        65.85616
756.35        65.81748
756.77        65.78354
757.18        65.92422
757.60        66.27091
758.02        66.85498
758.43        67.32214
758.85        67.42902
759.26        66.19401
759.68         65.5842
760.10        65.48707
760.51          65.775
760.93        66.27607
761.34        66.53656
761.76         66.4628
762.18        66.42486
762.59        66.42728
763.01        66.04762
763.42        65.48881
763.84          65.288
764.26        65.51994
764.67        65.97139
765.09        66.50483
765.50        66.85004
765.92        66.94359
766.33        66.98818
766.75        66.93334
767.16        66.63591
767.58        66.19099
768.00        66.05913
768.41        66.24482
768.83        66.41135
769.24        66.46606
769.66        66.47434
770.07        66.44505
770.49        66.38644
770.90        66.37161
771.32        66.62708
771.73        67.06953
772.15        67.21709
772.56        67.03634
772.97        67.00508
773.39        66.74834
773.80        66.79096
774.22         66.9967
774.63         67.3802
775.05        67.77107
775.46        67.98711
775.88        67.94981
776.29        67.74893
776.70        67.48004
777.12        67.32389
777.53        67.33263
777.95        67.42705
778.36        67.58035
778.77        67.70783
779.19        67.77903
779.60        67.95453
780.02        68.14213
780.43        68.07019
780.84        67.84145
781.26        67.76978
781.67        67.92756
782.09        68.46474
782.50        69.13226
782.91        69.03018
783.33        68.25402
783.74        67.87696
784.15        67.96754
784.57        67.91542
784.98        67.72152
785.39        67.63982
785.81        67.67171
786.22        67.97935
786.63        68.12753
787.04        68.45456
787.46        68.80817
787.87        69.16729
788.28        69.48544
788.70         69.6895
789.11        69.76186
789.52        69.74647
789.93        69.65263
790.35        69.49321
790.76        69.30136
791.17         69.0759
791.58        68.92376
792.00        68.94306
792.41        69.15981
792.82        69.68043
793.23        70.31363
793.65        70.36698
794.06        69.94226
794.47        69.92387
794.88        70.28452
795.29        70.29148
795.71        69.91042
796.12        69.70557
796.53        69.72588
796.94        69.58996
797.35        69.40893
797.76        69.79229
798.18        70.56579
798.59        70.95866
799.00        70.86472
799.41        70.67147
799.82        70.48672
800.23        70.34375
800.64        70.29928
801.06        70.31307
801.47        70.40483
801.88        70.53204
802.29        70.66769
802.70        70.80908
803.11        70.92721
803.52        70.97074
803.93        70.94006
804.34         70.8578
804.75        70.72945
805.17        70.62977
805.58        70.62144
805.99        70.48744
806.40        70.32531
806.81        70.74265
807.22        71.53565
807.63         71.6216
808.04        71.07019
808.45        70.95459
808.86        71.34617
809.27        71.61609
809.68        71.66831
810.09        71.66676
810.50         71.5959
810.91        71.40529
811.32        71.20258
811.73        71.15918
812.14        71.30837
812.55        71.62275
812.96         71.9567
813.37        72.03349
813.78        71.79506
814.19        71.34773
814.60        70.87735
815.01        70.64473
815.42        70.70504
815.83        70.97475
816.24        71.34373
816.65        71.59614
817.05        71.64005
817.46        71.50327
817.87         71.2693
818.28        71.00168
818.69        70.74188
819.10        70.48924
819.51        70.27278
819.92        70.15601
820.33        70.16319
820.74        70.26942
821.14        70.50256
821.55        70.90937
821.96        71.46262
822.37        72.14181
822.78        72.75991
823.19        72.98614
823.60        72.73123
824.00        72.07861
824.41        71.28196
824.82        70.77887
825.23        70.68024
825.64         70.8938
826.04        71.23096
826.45        71.26974
826.86        70.93324
827.27        70.37112
827.68        69.80457
828.08        69.59171
828.49         69.7787
828.90        70.27483
829.31        70.93375
829.72        71.51159
830.12         71.9334
830.53         72.1772
830.94        72.32513
831.35         72.4766
831.75        72.67566
832.16        72.80833
832.57         72.8296
832.97        72.64087
833.38        72.25542
833.79        71.79512
834.20        71.35397
834.60        71.03131
835.01        70.89405
835.42         70.8816
835.82        71.08395
836.23        71.57624
836.64        72.34933
837.04        73.38598
837.45        74.32574
837.86        74.72874
838.26         74.4806
838.67        73.70911
839.08        72.73977
839.48        72.07092
839.89        71.88484
840.29        72.04787
840.70         72.3903
841.11        72.64061
841.51        72.73199
841.92         72.7179
842.33        72.70039
842.73        72.82168
843.14        73.06313
843.54        73.39055
843.95        73.69672
844.35        73.89047
844.76        73.91634
845.17        73.78544
845.57        73.59322
845.98        73.46032
846.38        73.43786
846.79        73.49855
847.19        73.50382
847.60        73.17266
848.00        72.50421
848.41        71.62917
848.81        70.85315
849.22        70.62041
849.62        71.04823
850.03          71.951
850.43        73.10584
850.84        73.90485
851.24        74.19809
851.65        74.04301
852.05        73.62573
852.46        73.21758
852.86        72.92319
853.27        72.73505
853.67        72.54005
854.07         72.3718
854.48        72.17256
854.88        71.97663
855.29        71.78235
855.69        71.77434
856.10        71.88547
856.50        72.16938
856.90         72.3834
857.31        72.20817
857.71        71.65009
858.12        70.77079
858.52         69.9159
858.92        69.61261
859.33        69.97555
859.73        70.89892
860.13         72.0301
860.54        72.79147
860.94        73.05161
861.34        72.86916
861.75        72.43613
862.15        72.15961
862.55        72.12582
862.96        72.22935
863.36        72.23617
863.76        71.81155
864.17        70.94958
864.57        69.84736
864.97        68.80915
865.38        68.22466
865.78        68.21461
866.18        68.62698
866.58        69.33655
866.99        70.05001
867.39        70.65273
867.79        71.18565
868.19        71.50711
868.60         71.4158
869.00        70.92625
869.40        70.06426
869.80        69.23158
870.21        69.12727
870.61        69.93156
871.01        71.39747
871.41         72.9417
871.81        73.62848
872.22        73.22886
872.62        72.01875
873.02        70.50266
873.42        69.53186
873.82        69.37272
874.22        69.80004
874.63        70.43667
875.03        70.70207
875.43        70.45037
875.83        69.86849
876.23        69.31126
876.63        69.34213
877.03         70.0689
877.44        71.23383
877.84        72.43439
878.24        72.93496
878.64        72.57973
879.04        71.65561
879.44        70.56767
879.84         69.9027
880.24        69.80367
880.64        70.05923
881.04        70.54005
881.44         71.0306
881.84        71.43048
882.24        71.84615
882.65        72.11495
883.05        72.08132
883.45        71.70054
883.85        71.05357
884.25        70.47094
884.65        70.48009
885.05        71.14953
885.45        72.25461
885.85        73.50244
886.25        74.37743
886.65        74.66963
887.05        74.54945
887.45        73.94899
887.85        72.79894
888.25        71.27704
888.65        69.53191
889.04        68.02561
889.44        67.41305
889.84        67.72928
890.24        68.85091
890.64        70.38734
891.04        71.46815
891.44         71.7448
891.84        71.43201
892.24        70.91225
892.64        70.75092
893.04        71.06741
893.44        71.66127
893.83        72.33788
894.23         72.7011
894.63         72.6658
895.03        72.39001
895.43        72.03637
895.83        71.82973
896.23        71.82853
896.63        71.93002
897.02        72.06442
897.42        72.18648
897.82        72.24677
898.22        72.32059
898.62         72.3308
899.01        72.14782
899.41        71.76649
899.81        71.22326
900.21        70.77635
900.61          70.834
901.00        71.44136
901.40        72.46214
901.80        73.49464
902.20        73.87576
902.59        73.44491
902.99        72.40601
903.39        71.16513
903.79         70.3353
904.18        70.08205
904.58        70.27132
904.98        70.63036
905.38        70.73955
905.77        70.47578
906.17        69.97738
906.57         69.5065
906.96        69.49123
907.36        69.98384
907.76        70.86552
908.15        71.76905
908.55        71.97406
908.95        71.39501
909.34         70.2488
909.74         69.1311
910.14        68.82255
910.53        69.52261
910.93        70.93242
911.33        72.63492
911.72        73.97243
912.12        74.63523
912.52        74.81324
912.91        74.70787
913.31          74.658
913.70        74.77957
914.10        74.90145
914.49        74.87347
914.89        74.47133
915.29        73.70054
915.68         72.7223
916.08        71.77557
916.47        71.07353
916.87        70.73447
917.26         70.6342
917.66        70.77151
918.05        71.15799
918.45          71.695
918.84        72.44112
919.24        73.07039
919.64        73.17588
920.03        72.69461
920.42        71.71696
920.82        70.70911
921.21        70.30224
921.61        70.64568
922.00        71.58104
922.40        72.70702
922.79        73.41042
923.19        73.47258
923.58        73.10022
923.98        72.59126
924.37        72.42635
924.77        72.71208
925.16        73.27758
925.55        73.88564
925.95        74.16451
926.34        74.04141
926.74        73.66075
927.13        73.18304
927.52        72.81545
927.92        72.64281
928.31        72.55767
928.70        72.57799
929.10        72.72767
929.49        72.97353
929.89        73.28663
930.28        73.51294
930.67        73.30837
931.07         72.6276
931.46        71.62019
931.85        70.55486
932.24        69.82706
932.64        69.56361
933.03        69.70685
933.42        70.13018
933.82        70.58164
934.21        70.96912
934.60        71.25726
934.99        71.60282
935.39        72.25097
935.78        73.25952
936.17        74.50278
936.56        75.40742
936.96        75.09434
937.35         73.4995
937.74        71.04066
938.13         68.6647
938.53        67.57807
938.92         67.9522
939.31         69.5098
939.70        71.55781
940.09        72.73118
940.49        72.55306
940.88        71.42767
941.27        70.04774
941.66        69.44583
942.05        69.86387
942.44        71.01647
942.84        72.30422
943.23        72.74666
943.62        72.02826
944.01        70.50745
944.40        68.97574
944.79        68.56307
945.18        69.48843
945.57         71.4124
945.97        73.48433
946.36        74.46628
946.75        73.89455
947.14         72.1947
947.53        70.22461
947.92        69.27267
948.31        69.66813
948.70         71.0571
949.09        72.76234
949.48        73.56937
949.87        73.10883
950.26        71.78554
950.65        70.31201
951.04         69.6591
951.43        70.03786
951.82         71.1721
952.21        72.46207
952.60        72.84682
952.99         72.0422
953.38        70.42602
953.77         68.7774
954.16        68.10415
954.55        68.60602
954.94        70.08958
955.33        71.86195
955.72        72.44832
956.11         71.3897
956.50        69.20947
956.89         67.0576
957.28        66.43414
957.66        67.65313
958.05        70.23091
958.44        73.24796
958.83        74.81712
959.22        74.29649
959.61        72.33955
960.00        70.01778
960.39        68.69481
960.78        68.63605
961.16        69.47044
961.55        70.59837
961.94        70.93945
962.33        70.15882
962.72        68.76933
963.11        67.35522
963.49        66.65335
963.88        66.82867
964.27        67.60317
964.66        68.76279
965.04        70.00435
965.43        71.04114
965.82        71.94839
966.21        72.61408
966.60        72.83047
966.98        72.60205
967.37        72.04375
967.76        71.29063
968.15        70.52583
968.53        69.80946
968.92        69.04884
969.31        68.54066
969.69        68.83051
970.08        69.96379
970.47         71.9236
970.86        73.87592
971.24         74.3749
971.63        73.10404
972.02        70.55189
972.40        67.94423
972.79        67.20643
973.17        68.66602
973.56         71.6022
973.95        74.97259
974.33        76.80167
974.72        76.37838
975.11        74.41089
975.49        71.78764
975.88        70.15965
976.26        69.97259
976.65        70.66177
977.04        71.87347
977.42        72.97132
977.81        73.50928
978.19        73.82418
978.58        73.88107
978.96        73.47886
979.35        72.71661
979.74        71.62891
980.12        70.62383
980.51        70.40705
980.89        71.21018
981.28        72.67727
981.66        74.61054
982.05        76.35316
982.43        77.73022
982.82        78.81636
983.20        79.30146
983.59        78.59365
983.97        76.75424
984.35        74.02621
984.74        71.45078
985.12        70.45401
985.51        71.22325
985.89        73.49014
986.28        76.14913
986.66        77.67058
987.04        77.41658
987.43        75.84389
987.81        73.71991
988.20         72.6941
988.58        73.16766
988.96        74.70423
989.35         76.2213
989.73        76.22704
990.12        74.33386
990.50        71.18638
990.88        67.82485
991.27        65.90379
991.65        65.81084
992.03        67.05361
992.42        68.94392
992.80        70.72813
993.18        71.98911
993.56        72.96251
993.95        73.53442
994.33        73.65884
994.71        73.29831
995.10        72.52058
995.48        71.57268
995.86        70.92982
996.24        70.72952
996.63         70.7881
997.01        71.26981
997.39         72.1918
997.77        73.41901
998.15        74.90863
998.54        76.12268
998.92        76.26405
999.30        75.18777
999.68        73.09056
1000.06         70.6917
1000.45        69.36787
1000.83        69.65102
1001.21        71.18563
1001.59        73.36862
1001.97        75.13931
1002.35        76.10981
1002.73        76.56837
1003.12        76.64497
1003.50        76.46309
1003.88        76.19012
1004.26        75.78974
1004.64        75.40206
1005.02        75.33219
1005.40        75.62832
1005.78        76.14534
1006.16        76.86814
1006.54        77.78442
1006.92        78.83355
1007.30        80.04606
1007.69        80.95969
1008.07        80.76431
1008.45        79.20533
1008.83        76.62028
1009.21        73.84699
1009.59         72.2926
1009.97        72.36967
1010.35         73.6199
1010.73          75.737
1011.11         78.1292
1011.49        80.39327
1011.86        82.72418
1012.24        84.32889
1012.62        84.21486
1013.00        82.22668
1013.38        78.39162
1013.76        73.90172
1014.14        71.43974
1014.52        71.98529
1014.90        74.97027
1015.28         78.5608
1015.66        79.72698
1016.04        77.71123
1016.41        73.46329
1016.79        68.42604
1017.17        65.63052
1017.55         66.0043
1017.93        68.18642
1018.31        70.92352
1018.69        73.34779
1019.06        75.56867
1019.44         77.9324
1019.82        80.82433
1020.20        83.94213
1020.58        86.27491
1020.95        87.16167
1021.33        86.47116
1021.71        84.18701
1022.09        80.26256
1022.46        74.25677
1022.84        66.99949
1023.22        61.66801
1023.60        60.67505
1023.97        63.15902
1024.35        67.14242
1024.73        70.64902
