SpectraSmart Spectrum 2.9.0.0
--------- Device Information -----------
Spectrum Name :  反射率_0
Saving Time :  2024/04/30 00:59:39
Spectro-Module Model Name : SE2030-DUVN
Spectro-Module Serial Number : OS361AC55029948
Wavelength Start : 200
Wavelength End : 1025
Wavelength Unit : Wavelength(nm)
Spectrum Unit : Reflectance(%)
-----------Spectrum Setting ------------
Integration Time : 20ms
Average : 10
Boxcar : 0
Background removal :  enabled
linearity correction :  enabled
SC :  disabled
Intensity correction :  disabled
DWT denoise :  enabled
savitzky-golay :  disabled
FFT :  disabled
Running average :  disabled
Kalman :  disabled
High pass :  disabled
---------------BEGIN--------------------
Wavelength(nm)             Reflectance(%)
200.29               0
200.75        36.60277
201.21        25.89566
201.67        13.32068
202.13        2.568055
202.58       -4.396822
203.04       -8.043412
203.50       -6.539196
203.96        3.376484
204.42        21.37952
204.88        45.29678
205.34        66.07822
205.80         71.2533
206.26        62.74823
206.72        48.87084
207.18        36.09478
207.64        28.22076
208.10        24.34031
208.55        22.14825
209.01           21.52
209.47        22.97174
209.93        25.85925
210.39        30.07329
210.85        33.05638
211.31        32.27574
211.77        27.39098
212.23        17.27973
212.69        4.492358
213.14        2.221633
213.60         15.0129
214.06        34.25575
214.52        49.67189
214.98        55.23204
215.44        52.62991
215.90        44.43033
216.36        34.44307
216.81        30.05412
217.27        34.97966
217.73        48.79377
218.19        69.76195
218.65         85.2197
219.11        85.87001
219.57        76.70749
220.02        65.62294
220.48        57.91467
220.94        52.76899
221.40        47.78161
221.86        42.41043
222.32        38.23769
222.77        36.69799
223.23        37.74314
223.69        39.28517
224.15        39.84365
224.61        39.44529
225.06        38.28712
225.52        37.11389
225.98         37.2053
226.44         38.6334
226.90        40.48352
227.36        41.95364
227.81        42.58471
228.27        42.51527
228.73        41.93084
229.19        41.23803
229.65        41.20361
230.10        41.88236
230.56        42.87159
231.02        43.59692
231.48        43.58226
231.93        42.79488
232.39        41.49915
232.85        40.02198
233.31        39.06598
233.77        38.87669
234.22        39.35815
234.68        40.05549
235.14        40.14944
235.60        39.49055
236.05        38.41075
236.51        37.55288
236.97        37.70885
237.43        39.09084
237.88        41.71603
238.34        45.23046
238.80        48.53408
239.26        50.45431
239.71        51.12276
240.17        50.54443
240.63        49.18195
241.08        47.09919
241.54        43.36444
242.00        38.18563
242.46        35.58375
242.91        40.25275
243.37        51.49805
243.83        63.33808
244.28        70.16264
244.74        71.61363
245.20        68.22339
245.66        61.67921
246.11        56.78153
246.57        56.27892
247.03        59.43532
247.48        63.62135
247.94        62.70739
248.40        57.29461
248.85        51.46124
249.31        48.06881
249.77        47.94867
250.22        51.10457
250.68        57.90351
251.14        69.42891
251.59        80.08418
252.05        81.85696
252.51        77.73096
252.96        72.46106
253.42        68.54448
253.88        65.05575
254.33        60.92269
254.79        56.29579
255.25        52.03613
255.70        49.17826
256.16         48.0118
256.62        47.72487
257.07        47.57299
257.53        47.65409
257.99        47.82855
258.44        48.04073
258.90        48.74012
259.35        49.40227
259.81        50.07302
260.27        50.36038
260.72        49.99709
261.18        49.24901
261.63        48.08102
262.09         46.9091
262.55        45.98834
263.00        45.30393
263.46        44.88886
263.91        44.39737
264.37        43.66354
264.83        42.61858
265.28        41.32833
265.74        40.13381
266.19        39.34382
266.65        39.06665
267.11        39.11736
267.56        39.22455
268.02        39.00159
268.47         38.3443
268.93          37.383
269.38         36.2706
269.84        35.38558
270.30        34.82577
270.75        34.48316
271.21        34.20673
271.66        33.75582
272.12        33.07378
272.57        32.22123
273.03        31.34448
273.48        30.58482
273.94        30.04259
274.39        29.63784
274.85        29.30355
275.31        28.88545
275.76        28.33954
276.22        27.72818
276.67        27.13904
277.13        26.77588
277.58        26.60826
278.04        26.59549
278.49        26.51496
278.95        26.13553
279.40        25.40319
279.86         24.4873
280.31         23.5664
280.77         23.0109
281.22        22.84681
281.68        22.96581
282.13        23.18771
282.59        23.29916
283.04        23.22551
283.50         23.0324
283.95        22.75545
284.41        22.45408
284.86         22.1499
285.32        21.85534
285.77        21.54592
286.22         21.2544
286.68        21.00121
287.13        20.76025
287.59        20.58489
288.04        20.49759
288.50        20.50482
288.95        20.56254
289.41         20.6165
289.86        20.55437
290.32        20.38274
290.77        20.14467
291.22        19.89983
291.68        19.74032
292.13        19.69097
292.59        19.73903
293.04        19.92548
293.50        20.33037
293.95        20.94264
294.40        21.73717
294.86        22.55742
295.31        23.17272
295.77        23.52707
296.22        23.66992
296.68        23.77068
297.13        24.08216
297.58        24.66584
298.04        25.40979
298.49        26.16183
298.95        26.67682
299.40        26.90207
299.85        26.93654
300.31        26.89687
300.76        26.90511
301.21        27.03092
301.67        27.23032
302.12        27.46901
302.58        27.83495
303.03        28.30847
303.48        28.73309
303.94        29.01549
304.39        29.75382
304.84         29.6864
305.30        29.83485
305.75        29.88889
306.20        30.01262
306.66        30.23207
307.11        30.50531
307.57        30.77443
308.02        30.88499
308.47        30.82733
308.93        30.65351
309.38        30.44975
309.83        30.39501
310.29         30.5204
310.74        30.76685
311.19        31.00206
311.65        31.01596
312.10        30.77166
312.55        30.34843
313.00        29.90438
313.46        29.68339
313.91        29.72789
314.36        29.95724
314.82        30.23801
315.27        30.37469
315.72        30.29755
316.18        30.07905
316.63        29.77146
317.08        29.46926
317.53        29.21598
317.99        28.98766
318.44        28.78963
318.89        28.63952
319.35        28.53355
319.80        28.47064
320.25        28.43847
320.70        28.40861
321.16         28.3579
321.61        28.30326
322.06        28.21275
322.51        28.04986
322.97        27.81504
323.42        27.52527
323.87        27.23706
324.32        27.04484
324.78        26.96001
325.23        26.97124
325.68        27.00919
326.13         26.9568
326.59         26.7775
327.04        26.51533
327.49        26.22741
327.94        26.02071
328.39         25.9179
328.85         25.8689
329.30        25.83744
329.75        25.72213
330.20        25.49884
330.66        25.20962
331.11        24.89357
331.56        24.58462
332.01        24.30651
332.46        24.04889
332.92        23.84314
333.37        23.77119
333.82        23.83464
334.27        24.00995
334.72         24.2191
335.17         24.3279
335.63        24.29525
336.08        24.16212
336.53         23.9643
336.98         23.7873
337.43        23.66486
337.88        23.56576
338.34        23.50158
338.79        23.51163
339.24        23.58613
339.69        23.73135
340.14        23.86976
340.59        23.86699
341.05        23.70148
341.50        23.40549
341.95        23.10012
342.40        22.98637
342.85        23.09824
343.30         23.3641
343.75        23.64217
344.20        23.70526
344.66        23.51103
345.11        23.13768
345.56        22.69901
346.01        22.37162
346.46         22.2208
346.91        22.19518
347.36        22.26715
347.81        22.39855
348.26        22.55956
348.72         22.7509
349.17        22.93874
349.62        23.06047
350.07        23.09191
350.52        23.04064
350.97        22.91138
351.42        22.71999
351.87        22.48846
352.32        22.23024
352.77        21.99322
353.22        21.85013
353.67        21.81926
354.13        21.88144
354.58        22.00249
355.03        22.12213
355.48        22.20989
355.93        22.26981
356.38        22.28859
356.83         22.2518
357.28         22.1602
357.73        22.01585
358.18        21.83849
358.63        21.66444
359.08         21.5062
359.53        21.35898
359.98        21.22206
360.43        21.08967
360.88        20.95967
361.33        20.83853
361.78        20.71806
362.23        20.58257
362.68          20.432
363.13        20.27257
363.58        20.12096
364.03        20.00373
364.48        19.92546
364.93        19.87491
365.38        19.83776
365.83        19.79278
366.28        19.72985
366.73        19.65056
367.18        19.55473
367.63        19.44252
368.08        19.31578
368.53        19.17785
368.98        19.02929
369.43        18.87081
369.88        18.70939
370.33        18.55099
370.78        18.41274
371.23        18.32146
371.68        18.27727
372.13        18.26183
372.58        18.25254
373.03        18.21433
373.48        18.12983
373.93        18.00497
374.38        17.82937
374.83        17.59138
375.28        17.30783
375.72        16.99499
376.17        16.70929
376.62        16.49352
377.07        16.35617
377.52        16.27858
377.97        16.25736
378.42        16.28319
378.87        16.34054
379.32        16.42609
379.77        16.49144
380.22        16.46854
380.67        16.34589
381.11        16.13348
381.56        15.90036
382.01         15.7623
382.46        15.74946
382.91        15.83739
383.36        15.94192
383.81        15.93068
384.26        15.78211
384.71        15.53899
385.15        15.29753
385.60        15.23207
386.05        15.35847
386.50        15.60895
386.95        15.86678
387.40        15.95299
387.85        15.83158
388.29        15.56261
388.74        15.25741
389.19         15.0127
389.64        14.85856
390.09        14.76003
390.54        14.70925
390.98        14.69414
391.43        14.70859
391.88        14.75689
392.33        14.81018
392.78        14.83903
393.23         14.8368
393.67        14.76837
394.12         14.6701
394.57        14.69433
395.02        14.63283
395.47        14.64511
395.91        14.63872
396.36        14.55851
396.81        14.40511
397.26        14.20521
397.71        14.01096
398.15        13.88827
398.60        13.86732
399.05        13.89365
399.50        13.92345
399.95        13.95356
400.39        13.89849
400.84        13.77402
401.29        13.60197
401.74        13.50786
402.18        13.51754
402.63        13.56505
403.08        13.63594
403.53        13.71961
403.97        13.80165
404.42        13.88708
404.87        13.93998
405.32        13.90201
405.76        13.76554
406.21        13.55394
406.66        13.33762
407.11        13.23091
407.55        13.26184
408.00        13.39965
408.45        13.56531
408.90        13.61205
409.34        13.50114
409.79         13.2802
410.24          13.049
410.68        12.95688
411.13        13.03719
411.58        13.24199
412.03        13.47731
412.47        13.58506
412.92        13.51198
413.37         13.3196
413.81        13.09312
414.26        12.98032
414.71        13.00182
415.15        13.11589
415.60        13.25219
416.05        13.31231
416.49        13.26855
416.94        13.16272
417.39         13.0354
417.83        12.94545
418.28        12.91633
418.73        12.91742
419.17        12.94898
419.62        13.01409
420.07        13.10215
420.51        13.21332
420.96        13.30341
421.41        13.29525
421.85         13.1792
422.30        12.99611
422.74        12.80828
423.19        12.73028
423.64        12.77735
424.08        12.92417
424.53        13.10377
424.98        13.22118
425.42        13.24359
425.87         13.1853
426.31        13.08196
426.76        13.01313
427.21        12.95541
427.65        12.91384
428.10        12.86646
428.54        12.75975
428.99        12.60737
429.44        12.51999
429.88        12.49301
430.33        12.35704
430.77        12.19927
431.22        12.39634
431.66        12.88422
432.11        13.14717
432.56        13.09609
433.00         13.0362
433.45        12.97757
433.89        12.66203
434.34        12.26335
434.78        12.25373
435.23        12.55942
435.67        12.66971
436.12        12.55406
436.57        12.50261
437.01        12.54454
437.46        12.59541
437.90        12.65289
438.35        12.72816
438.79        12.79571
439.24        12.79483
439.68        12.73731
440.13        12.69297
440.57        12.64934
441.02        12.59338
441.46        12.53342
441.91        12.39201
442.35        12.23023
442.80        12.38718
443.24        12.75135
443.69        12.72908
444.13        12.35652
444.58        12.19871
445.02        12.25744
445.47        12.22797
445.91        12.11534
446.36        12.08201
446.80        12.12854
447.24        12.21593
447.69        12.31056
448.13        12.36055
448.58        12.35462
449.02         12.3094
449.47        12.25959
449.91        12.25261
450.36          12.299
450.80        12.37858
451.25        12.45906
451.69        12.48965
452.13        12.45705
452.58        12.38765
453.02        12.30016
453.47         12.2233
453.91        12.16601
454.36         12.1552
454.80        12.13257
455.24        12.14503
455.69        12.17288
456.13        12.21074
456.58        12.25205
457.02        12.27292
457.46        12.27246
457.91        12.25748
458.35        12.22853
458.79        12.19188
459.24        12.16161
459.68        12.14164
460.13        12.14928
460.57          12.154
461.01        12.24944
461.46         12.3041
461.90        12.34647
462.34        12.49027
462.79        12.67077
463.23        12.62695
463.68        12.39695
464.12         12.2738
464.56        12.27862
465.01        12.27502
465.45        12.24774
465.89        12.22857
466.34        12.23547
466.78         12.3182
467.22        12.47831
467.67         12.5139
468.11        12.41941
468.55        12.26773
468.99        12.12037
469.44        12.04162
469.88        12.05166
470.32        12.13934
470.77        12.25309
471.21        12.32128
471.65        12.31873
472.10        12.27381
472.54        12.22546
472.98        12.24917
473.42        12.35472
473.87        12.50632
474.31        12.65284
474.75        12.71915
475.20        12.69329
475.64         12.6029
476.08        12.48082
476.52        12.37345
476.97        12.30054
477.41        12.24671
477.85        12.22804
478.29        12.26778
478.74        12.36622
479.18        12.50862
479.62        12.64778
480.06        12.73986
480.50        12.77831
480.95        12.66058
481.39        12.62391
481.83        12.61889
482.27         12.7284
482.72        12.81868
483.16        13.02168
483.60        13.12179
484.04        13.14918
484.48        13.12813
484.93        13.10921
485.37        13.16733
485.81        13.22887
486.25        13.41754
486.69        12.90053
487.14        13.10108
487.58        13.63817
488.02        13.68045
488.46        13.73819
488.90        13.85931
489.34        13.31067
489.79        13.28876
490.23         13.4957
490.67        13.77935
491.11        14.01429
491.55        13.97767
491.99        13.76127
492.43         13.7937
492.88        14.09779
493.32        14.38301
493.76        14.57912
494.20        14.74031
494.64        14.85295
495.08        14.89578
495.52        14.88927
495.96        14.91162
496.41        14.98641
496.85        15.00823
497.29        14.99082
497.73        15.22366
498.17         15.4595
498.61        15.46975
499.05        15.24694
499.49        15.17778
499.93        15.29968
500.37        15.46167
500.82        15.61452
501.26        15.71782
501.70        15.75546
502.14         15.7641
502.58        15.78638
503.02        15.86989
503.46        16.02597
503.90         16.2377
504.34        16.45966
504.78        16.61497
505.22        16.68113
505.66        16.67791
506.10        16.63307
506.54        16.61149
506.98        16.63481
507.42        16.65247
507.86        16.64288
508.30        16.76006
508.74        16.69347
509.18        16.70116
509.62        16.70724
510.06        16.73985
510.50        16.80198
510.94        16.89004
511.38        16.98813
511.82        17.06213
512.26        17.10327
512.70        17.11747
513.14        17.12653
513.58         17.1659
514.02        17.24178
514.46        17.34198
514.90          17.437
515.34        17.47943
515.78        17.45872
516.22        17.39076
516.66        17.30804
517.10         17.2609
517.54        17.26145
517.98        17.29389
518.42        17.33269
518.86        17.33619
519.30        17.29435
519.74        17.22388
520.18        17.14418
520.62        17.08264
521.06        17.04921
521.50        17.03724
521.93         17.0413
522.37        17.04795
522.81        17.05379
523.25        17.05964
523.69        17.06945
524.13        17.08979
524.57        17.11718
525.01        17.14288
525.45        17.15121
525.89        17.11916
526.32        17.04214
526.76        16.93733
527.20        16.81817
527.64        16.70492
528.08          16.608
528.52        16.52571
528.96         16.4667
529.40        16.44341
529.83        16.45271
530.27         16.4886
530.71        16.53107
531.15        16.55043
531.59        16.53639
532.03        16.49494
532.46        16.42961
532.90        16.35343
533.34        16.27478
533.78        16.19714
534.22        16.12859
534.66        16.08067
535.09        16.05383
535.53        16.04832
535.97        16.06305
536.41        16.09944
536.85        16.15105
537.28        16.21362
537.72         16.2631
538.16        16.26606
538.60        16.21928
539.04        16.13895
539.47        16.04899
539.91        16.00315
540.35        16.01066
540.79        16.06269
541.22        16.14859
541.66        16.25273
542.10         16.3634
542.54        16.48268
542.97        16.60649
543.41        16.72844
543.85        16.84613
544.29        16.96215
544.72         17.0626
545.16        17.14156
545.60        17.19976
546.04        17.23524
546.47        17.27904
546.91        17.40674
547.35        17.61244
547.79        17.81934
548.22        17.99129
548.66        18.16946
549.10         18.3499
549.53        18.44623
549.97        18.44275
550.41        18.69462
550.84        18.64938
551.28        18.72478
551.72          18.761
552.15        18.93352
552.59        19.00723
553.03        19.16857
553.46        19.32922
553.90        19.45499
554.34        19.53428
554.77        19.59719
555.21        19.66082
555.65        19.69959
556.08        19.73779
556.52        19.86182
556.96        20.04361
557.39        20.19337
557.83         20.2938
558.27        20.34036
558.70        20.36669
559.14        20.45148
559.57        20.58415
560.01        20.72367
560.45         20.8307
560.88        20.78774
561.32        20.72555
561.75        20.67141
562.19        20.68275
562.63        20.70746
563.06        20.75165
563.50        20.84995
563.93        20.98111
564.37        21.13501
564.80        21.27703
565.24        21.35031
565.68        21.36359
566.11        21.40879
566.55        21.49435
566.98        21.53963
567.42        21.58063
567.85        21.65144
568.29        21.75636
568.72        21.95149
569.16        22.25035
569.60        22.17938
570.03        22.41466
570.47        22.54222
570.90         22.6456
571.34        22.66596
571.77        22.87199
572.21         22.9835
572.64        23.06823
573.08        23.22116
573.51        23.45251
573.95         23.4166
574.38        23.49559
574.82        23.50522
575.25        23.45239
575.69         23.4073
576.12         23.3199
576.56         23.7436
576.99         23.6892
577.42        23.72128
577.86        23.73204
578.29        23.72037
578.73        23.76778
579.16        23.56598
579.60        23.55579
580.03        23.31517
580.47        23.41311
580.90        23.39758
581.33        23.30936
581.77        23.56286
582.20        23.19049
582.64        23.03131
583.07        22.86383
583.51        22.70868
583.94        22.67292
584.37        22.52657
584.81        22.33583
585.24        22.45418
585.68        22.67481
586.11        22.57555
586.54        22.30463
586.98        22.16429
587.41        22.42239
587.85        22.25329
588.28        22.00704
588.71         22.2074
589.15        22.08068
589.58        21.88142
590.01        22.04761
590.45         21.9761
590.88        21.92035
591.31        21.91689
591.75        21.95082
592.18         22.0949
592.61        22.32383
593.05        22.04362
593.48        22.11838
593.91        22.22108
594.35        22.04116
594.78        22.18063
595.21        22.45194
595.65        22.47028
596.08        22.26594
596.51        22.62727
596.94        22.88464
597.38        23.18803
597.81         23.3011
598.24        23.37125
598.68        23.58771
599.11        23.79548
599.54        23.93577
599.97         24.2271
600.41        24.47458
600.84        24.63977
601.27        25.06836
601.70         25.4678
602.14        25.90393
602.57        26.20637
603.00         26.3719
603.43        26.62572
603.87        26.93177
604.30         27.2593
604.73        27.60397
605.16        28.04071
605.60        28.51277
606.03        28.83937
606.46        29.00688
606.89        29.31914
607.32        29.77718
607.76        30.12333
608.19        30.34638
608.62        30.60684
609.05        30.95414
609.48        31.31244
609.92        31.62185
610.35        32.09404
610.78        32.31448
611.21        32.32338
611.64        32.76186
612.07        32.98642
612.50        33.19876
612.94        33.48175
613.37        33.89193
613.80        33.90454
614.23        34.39355
614.66        34.61198
615.09        34.81687
615.52        35.00761
615.96        35.21061
616.39        35.41998
616.82        35.59956
617.25        35.99147
617.68        35.92994
618.11        36.23864
618.54        36.64584
618.97        36.76622
619.40        36.64864
619.84        36.72696
620.27        37.05842
620.70        37.39707
621.13        37.61326
621.56        37.87016
621.99        37.51122
622.42        37.47073
622.85        37.85337
623.28        37.77978
623.71        38.09343
624.14        37.61766
624.57        38.03153
625.00        37.99791
625.43        37.94847
625.86        37.85069
626.29        37.69731
626.72        37.67069
627.15        37.41988
627.58        37.27425
628.01        37.13632
628.44        36.98479
628.87        36.82286
629.30         36.7137
629.73        36.64274
630.16        36.47379
630.59        36.17233
631.02        35.95062
631.45         35.6861
631.88         35.1788
632.31        34.81069
632.74        34.66258
633.17        34.11096
633.60        33.74123
634.03        33.33995
634.46        32.91205
634.89        32.46724
635.32        32.09018
635.75        31.80293
636.18        31.41579
636.61        31.19205
637.04        30.85846
637.47        30.49734
637.89        30.09429
638.32        29.66624
638.75        29.32641
639.18        29.10105
639.61        28.68155
640.04        28.57105
640.47        28.32359
640.90        28.08595
641.33        27.86285
641.76        27.66336
642.18        27.49463
642.61        27.34989
643.04        27.22987
643.47         27.1541
643.90        27.14545
644.33        27.20007
644.76        27.34506
645.18        27.52214
645.61         27.5598
646.04        27.42205
646.47        27.45227
646.90        27.63952
647.33        27.78877
647.75        27.89544
648.18        28.07129
648.61        28.31916
649.04        28.62059
649.47        28.94842
649.89        29.24131
650.32        29.48758
650.75        29.74734
651.18        30.05374
651.61        30.41951
652.03        30.88352
652.46         31.4469
652.89        31.99426
653.32        32.48569
653.74         33.0487
654.17        32.88787
654.60        33.35007
655.03        34.56302
655.46        33.96378
655.88        34.63051
656.31        36.52154
656.74        36.79982
657.16        36.53395
657.59        35.85822
658.02        36.40927
658.45        37.32837
658.87        37.96426
659.30        38.01028
659.73        38.71759
660.15        38.80445
660.58        39.23146
661.01        39.37794
661.44        39.47731
661.86        39.46092
662.29        39.42702
662.72        39.76026
663.14        40.36655
663.57        40.53526
664.00        40.33207
664.42        40.44218
664.85        40.90772
665.27        41.32864
665.70        41.63282
666.13        41.91243
666.55        42.15288
666.98         42.3252
667.41        42.45475
667.83        42.57862
668.26         42.7071
668.69        42.84013
669.11        42.98146
669.54        43.13816
669.96         43.3105
670.39        43.49874
670.82        43.68784
671.24        43.85254
671.67        43.97896
672.09        44.07821
672.52         44.1763
672.94        44.34698
673.37        44.25641
673.80        44.68707
674.22        44.64565
674.65        44.87347
675.07         45.1072
675.50        45.35551
675.92        45.58986
676.35        45.75999
676.77        45.86704
677.20        45.90672
677.62         45.9297
678.05        46.01493
678.47        46.15691
678.90        46.39859
679.32        46.49133
679.75         46.6171
680.17        46.69532
680.60        46.71709
681.02        46.71767
681.45         46.7588
681.87        46.85489
682.30        47.02784
682.72        47.24984
683.15        47.29932
683.57        47.24632
684.00        47.45011
684.42        47.84315
684.85        48.05283
685.27         48.0607
685.70        47.96777
686.12        47.88944
686.54        48.20141
686.97        48.79767
687.39        49.10275
687.82        49.04313
688.24        49.05384
688.66        49.13408
689.09        49.00161
689.51        48.72727
689.94         48.5914
690.36        48.63511
690.78        48.75134
691.21        48.91178
691.63        49.15147
692.06        49.40545
692.48        49.51987
692.90        49.51484
693.33         49.5708
693.75        49.70087
694.17         49.7865
694.60        49.83343
695.02        49.89558
695.44          49.971
695.87        50.11822
696.29        50.30568
696.71         50.2918
697.14        50.15028
697.56         50.2602
697.98        50.59591
698.41        50.80184
698.83        50.85506
699.25        50.96909
699.68        51.11328
700.10        51.17509
700.52        51.13811
700.94        51.04327
701.37        50.93319
701.79        50.89391
702.21        50.93942
702.64        51.05431
703.06        51.20367
703.48        51.33794
703.90        51.44442
704.33        51.54906
704.75        51.63966
705.17        51.75183
705.59        51.87067
706.01        51.98164
706.44         52.0854
706.86        52.17559
707.28        52.24467
707.70        52.34744
708.12        52.46833
708.55        52.46069
708.97        52.37645
709.39        52.47341
709.81        52.74091
710.23        52.93797
710.66        53.03694
711.08        53.18872
711.50        53.36901
711.92        53.49719
712.34        53.56845
712.76        53.60488
713.19        53.60161
713.61        53.58823
714.03        53.56267
714.45        53.52468
714.87        53.50089
715.29        53.53025
715.71        53.61699
716.13        53.75158
716.56        53.88205
716.98        53.98381
717.40         54.0181
717.82        53.99721
718.24        53.95233
718.66        53.93722
719.08        53.96505
719.50        54.01712
719.92        54.07064
720.34        54.08885
720.76        54.06384
721.19         54.0084
721.61        53.94742
722.03        53.89802
722.45         53.8696
722.87        53.85404
723.29        53.85931
723.71        53.89811
724.13        53.96885
724.55        54.06944
724.97        54.17313
725.39        54.23362
725.81        54.24427
726.23        54.22033
726.65        54.19354
727.07        54.22352
727.49        54.32816
727.91        54.45424
728.33        54.57455
728.75        54.72962
729.17         54.9228
729.59        54.81776
730.01        54.99683
730.43        54.92192
730.85        54.78297
731.27        54.58545
731.69        54.42449
732.10        54.43967
732.52        54.64881
732.94        55.01891
733.36        55.44249
733.78        55.71916
734.20        55.78646
734.62        55.70885
735.04        55.57942
735.46        55.52007
735.88        55.57666
736.30        55.76161
736.72          56.002
737.13        56.09992
737.55        55.98884
737.97        55.87289
738.39        55.79418
738.81        55.53119
739.23        55.22326
739.65        55.46848
740.06        56.08374
740.48        56.29733
740.90        56.04111
741.32        55.72416
741.74        55.47897
742.16        55.37513
742.57        55.47818
742.99        55.68165
743.41        55.92853
743.83        56.26688
744.25        56.59053
744.67        56.58911
745.08         56.3343
745.50        56.24178
745.92        56.36333
746.34        56.46636
746.75        56.52244
747.17        56.58738
747.59        56.65112
748.01        56.70144
748.42        56.74752
748.84        56.78312
749.26        56.81462
749.68        56.82898
750.09        56.80522
750.51        56.77008
750.93        56.70365
751.35        56.55489
751.76        56.38051
752.18        56.31026
752.60        56.34139
753.01        56.48933
753.43        56.72659
753.85        56.80093
754.27        56.64517
754.68        57.28833
755.10         56.9972
755.52        57.11903
755.93        57.12726
756.35        57.04387
756.77        56.97143
757.18        57.03281
757.60        57.25555
758.02        57.82692
758.43        58.46346
758.85        58.20193
759.26        57.25888
759.68        56.90034
760.10        57.20313
760.51        57.53942
760.93        57.60967
761.34        57.63194
761.76        57.53321
762.18        57.50158
762.59        57.52717
763.01        57.21296
763.42        56.70737
763.84        56.58678
764.26        56.92643
764.67        57.27476
765.09        57.52461
765.50        58.20297
765.92        58.46807
766.33        58.36769
766.75        57.75262
767.16        57.42689
767.58        57.46478
768.00        57.46979
768.41        57.40584
768.83        57.46884
769.24        57.58871
769.66        57.48729
770.07        57.25329
770.49        57.31039
770.90        57.64834
771.32        57.97232
771.73        58.19097
772.15        58.23146
772.56        58.09418
772.97           58.03
773.39        57.73537
773.80        57.78083
774.22        58.03256
774.63        58.40413
775.05         58.7158
775.46        58.83299
775.88         58.6816
776.29        58.31151
776.70        57.85666
777.12        57.58316
777.53        57.56277
777.95        57.69863
778.36        57.93044
778.77        58.13181
779.19        58.25433
779.60        58.42365
780.02        58.57751
780.43        58.56429
780.84        58.45875
781.26        58.38491
781.67        58.40303
782.09        58.79137
782.50        59.42874
782.91         59.1528
783.33        58.95325
783.74        58.68436
784.15        58.67019
784.57        58.50776
784.98        58.24613
785.39        58.14653
785.81        58.22691
786.22        58.41613
786.63        58.68234
787.04         58.9748
787.46        59.26281
787.87        59.53648
788.28        59.76509
788.70        59.89536
789.11        59.91236
789.52        59.84369
789.93        59.71931
790.35         59.5892
790.76        59.49121
791.17        59.42066
791.58        59.40442
792.00        59.45531
792.41        59.58224
792.82        59.79169
793.23        60.03509
793.65        60.15971
794.06        60.18062
794.47        60.27077
794.88        60.38673
795.29        60.33568
795.71        60.09216
796.12        59.78522
796.53        59.53215
796.94        59.51037
797.35        59.76879
797.76        60.25873
798.18        60.79245
798.59        61.10126
799.00        61.09398
799.41        60.84859
799.82        60.50272
800.23        60.29697
800.64        60.30603
801.06        60.43404
801.47         60.6377
801.88        60.77876
802.29        60.80508
802.70        60.75142
803.11        60.64898
803.52        60.54261
803.93        60.46531
804.34         60.4137
804.75        60.35486
805.17        60.30566
805.58        60.30511
805.99        60.13354
806.40        59.90705
806.81        60.32213
807.22        61.15437
807.63        61.16798
808.04         60.4597
808.45        60.28354
808.86        60.72918
809.27        61.07753
809.68        61.20106
810.09        61.24673
810.50         61.1877
810.91        60.98248
811.32        60.76168
811.73        60.73788
812.14         60.9509
812.55        61.34629
812.96        61.77544
813.37        61.95307
813.78        61.80699
814.19          61.455
814.60        61.02911
815.01        60.70747
815.42        60.54409
815.83        60.47694
816.24         60.5201
816.65         60.6982
817.05        60.98598
817.46         61.3369
817.87        61.65678
818.28        61.75655
818.69        61.61056
819.10        61.27219
819.51        60.85888
819.92        60.60552
820.33        60.59291
820.74        60.73978
821.14        61.00051
821.55        61.30916
821.96        61.61684
822.37        61.96031
822.78        62.22872
823.19        62.21957
823.60        61.89818
824.00        61.31302
824.41        60.67875
824.82        60.36949
825.23        60.46452
825.64        60.87944
826.04        61.40342
826.45        61.59118
826.86        61.34541
827.27        60.80939
827.68        60.21021
828.08        59.92628
828.49        60.01962
828.90        60.39904
829.31        60.93727
829.72        61.41879
830.12        61.77616
830.53        62.00211
830.94         62.1581
831.35        62.30585
831.75        62.47868
832.16        62.58446
832.57        62.59895
832.97        62.46575
833.38        62.20069
833.79        61.89096
834.20        61.60326
834.60        61.40651
835.01        61.34815
835.42         61.3758
835.82         61.5579
836.23        61.94399
836.64        62.52406
837.04        63.28992
837.45        63.94228
837.86        64.12888
838.26        63.77223
838.67        62.99863
839.08        62.09382
839.48        61.48595
839.89        61.33498
840.29        61.51924
840.70        61.90771
841.11        62.29104
841.51        62.60324
841.92        62.86878
842.33        63.10984
842.73        63.34348
843.14        63.52305
843.54        63.64497
843.95        63.68507
844.35        63.68076
844.76        63.62118
845.17        63.49283
845.57        63.33632
845.98        63.18247
846.38         63.0554
846.79        62.95843
847.19        62.81236
847.60        62.44406
848.00        61.86679
848.41        61.16707
848.81        60.55595
849.22        60.33632
849.62        60.58957
850.03        61.17785
850.43        61.95546
850.84         62.4944
851.24        62.69335
851.65        62.57352
852.05        62.25462
852.46        61.90252
852.86        61.59097
853.27        61.34177
853.67        61.07711
854.07        60.82662
854.48        60.55727
854.88        60.29914
855.29        60.08455
855.69        60.11623
856.10         60.3553
856.50        60.81306
856.90        61.27455
857.31        61.45951
857.71         61.3569
858.12        61.00652
858.52        60.59999
858.92        60.42301
859.33        60.54128
859.73        60.91393
860.13        61.39442
860.54        61.75252
860.94        61.95424
861.34        61.99223
861.75        61.90609
862.15        61.80341
862.55        61.69361
862.96        61.57344
863.36        61.34179
863.76         60.8647
864.17        60.17498
864.57        59.37729
864.97        58.68716
865.38        58.38837
865.78        58.56015
866.18        59.08883
866.58        59.84048
866.99        60.50491
867.39        60.96037
867.79        61.25796
868.19         61.3272
868.60        61.07495
869.00        60.54057
869.40        59.73698
869.80        58.99382
870.21        58.87871
870.61        59.53604
871.01        60.75609
871.41        62.05261
871.81        62.64317
872.22        62.33023
872.62        61.34108
873.02         60.0615
873.42        59.14957
873.82        58.83207
874.22        58.95124
874.63         59.2642
875.03        59.40004
875.43         59.2589
875.83         58.9641
876.23         58.7586
876.63        59.01775
877.03        59.79223
877.44        60.88223
877.84        61.96181
878.24        62.42987
878.64        62.16213
879.04        61.38475
879.44        60.44873
879.84        59.86855
880.24        59.76932
880.64        59.97532
881.04        60.36302
881.44        60.72301
881.84        60.96198
882.24        61.16923
882.65        61.23185
883.05        61.07308
883.45        60.66604
883.85        60.07243
884.25        59.52603
884.65        59.39392
885.05        59.73214
885.45        60.39689
885.85        61.21194
886.25        61.86028
886.65        62.20196
887.05        62.33501
887.45        62.17927
887.85        61.62544
888.25        60.76532
888.65        59.70413
889.04        58.76118
889.44        58.41095
889.84        58.67909
890.24        59.45787
890.64         60.4921
891.04        61.20769
891.44         61.3799
891.84        61.18851
892.24        60.82875
892.64        60.58332
893.04        60.53633
893.44        60.57386
893.83        60.75116
894.23        61.10836
894.63        61.63424
895.03         62.3145
895.43        62.95091
895.83        63.23328
896.23        63.09945
896.63         62.6003
897.02        61.95034
897.42        61.58971
897.82        61.60265
898.22        61.90758
898.62        62.22963
899.01         62.1128
899.41        61.46653
899.81        60.47727
900.21        59.51383
900.61        59.12711
901.00        59.42339
901.40         60.2154
901.80        61.14201
902.20        61.61517
902.59        61.46744
902.99         60.8749
903.39        60.11497
903.79        59.60123
904.18        59.44838
904.58        59.54813
904.98        59.73731
905.38        59.78302
905.77        59.60623
906.17        59.29561
906.57         58.9926
906.96         58.9299
907.36        59.13039
907.76         59.5478
908.15        59.97823
908.55        59.98146
908.95        59.53597
909.34        58.76519
909.74        58.09607
910.14        58.04978
910.53        58.75948
910.93        60.01173
911.33        61.47728
911.72        62.64466
912.12        63.25062
912.52        63.40689
912.91        63.30893
913.31        63.30396
913.70        63.49176
914.10        63.74227
914.49        63.79383
914.89        63.23106
915.29          62.061
915.68        60.50643
916.08        59.05992
916.47        58.34119
916.87        58.53549
917.26        59.39415
917.66        60.58898
918.05        61.58224
918.45        62.12069
918.84        62.37051
919.24        62.30986
919.64        62.06261
920.03        61.70374
920.42        61.15524
920.82         60.5656
921.21        60.08961
921.61        59.79149
922.00        59.71138
922.40        59.75236
922.79        59.78748
923.19        59.76034
923.58        59.71656
923.98        59.77022
924.37        60.12448
924.77        60.76977
925.16        61.59738
925.55        62.37015
925.95         62.7187
926.34         62.5719
926.74        62.04566
927.13        61.31878
927.52        60.65332
927.92        60.17207
928.31        59.79922
928.70        59.57446
929.10         59.5355
929.49        59.65891
929.89        59.92951
930.28        60.22753
930.67        60.27272
931.07        59.99873
931.46         59.5005
931.85        58.92458
932.24        58.50447
932.64        58.32883
933.03        58.36242
933.42        58.56298
933.82        58.83492
934.21        59.13933
934.60        59.44025
934.99        59.81341
935.39        60.36884
935.78         61.1303
936.17        62.00468
936.56        62.61298
936.96        62.37858
937.35        61.26836
937.74         59.5754
938.13        57.90392
938.53        57.00781
938.92        57.00711
939.31        57.74203
939.70        58.86124
940.09        59.66563
940.49        59.86195
940.88        59.61423
941.27        59.22131
941.66        59.15692
942.05        59.53098
942.44        60.23095
942.84         60.8429
943.23        60.71334
943.62        59.69115
944.01        58.02855
944.40        56.46869
944.79        56.07399
945.18        57.02235
945.57        59.01503
945.97        61.16827
946.36        62.14055
946.75        61.45578
947.14        59.55782
947.53        57.34663
947.92        56.18791
948.31        56.43066
948.70        57.69416
949.09        59.31898
949.48        60.11634
949.87        59.71841
950.26        58.53934
950.65        57.21459
951.04        56.60091
951.43        56.89688
951.82        57.84513
952.21        58.97315
952.60        59.45156
952.99        59.03054
953.38        57.98572
953.77        56.89785
954.16        56.52561
954.55        57.01986
954.94        58.23521
955.33        59.60455
955.72        59.93537
956.11         58.8881
956.50         56.9213
956.89        55.00871
957.28        54.40799
957.66        55.37901
958.05        57.50293
958.44        60.05951
958.83        61.53944
959.22        61.39556
959.61        60.14308
960.00        58.52248
960.39        57.48003
960.78        57.21975
961.16        57.44926
961.55        57.88721
961.94        58.05803
962.33        57.78662
962.72         57.3323
963.11        56.85098
963.49        56.49314
963.88         56.3118
964.27        56.24826
964.66         56.3321
965.04        56.68482
965.43         57.2256
965.82         57.8945
966.21        58.60343
966.60        59.16682
966.98        59.50755
967.37         59.6949
967.76        59.61975
968.15        59.12382
968.53        58.22106
968.92         56.8951
969.31        55.63638
969.69        55.38897
970.08        56.38281
970.47        58.50199
970.86        60.80381
971.24        61.61627
971.63        60.53749
972.02         58.1307
972.40        55.64215
972.79        55.00059
973.17        56.55297
973.56        59.55253
973.95        62.98015
974.33        64.91836
974.72        64.66489
975.11          62.897
975.49        60.45548
975.88        58.91786
976.26        58.70361
976.65        59.29654
977.04        60.33875
977.42        61.20095
977.81        61.47629
978.19        61.48562
978.58        61.29198
978.96        60.83595
979.35        60.22832
979.74        59.45892
980.12        58.75349
980.51        58.51535
980.89        58.89351
981.28        59.64751
981.66        60.76997
982.05        61.96054
982.43        63.16555
982.82        64.41804
983.20        65.31893
983.59         65.1293
983.97        63.80134
984.35        61.57575
984.74        59.46986
985.12        58.92992
985.51        60.10217
985.89        62.64741
986.28        65.37715
986.66         66.6327
987.04        65.77531
987.43        63.38462
987.81        60.27092
988.20        58.19661
988.58        57.66267
988.96        58.25849
989.35        59.20536
989.73        59.44534
990.12        58.62165
990.50         57.2117
990.88           55.68
991.27        54.72761
991.65        54.51947
992.03         54.8384
992.42        55.52885
992.80        56.70333
993.18        58.19345
993.56        59.99926
993.95        61.75026
994.33        62.83669
994.71        62.97308
995.10        62.36792
995.48        61.36966
995.86        60.59453
996.24        60.23693
996.63        60.05284
997.01        60.15922
997.39         60.5725
997.77        61.19955
998.15        62.06536
998.54        62.76144
998.92        62.62997
999.30        61.57012
999.68        59.79367
1000.06        57.88403
1000.45        56.95642
1000.83        57.39839
1001.21        58.82367
1001.59        60.88171
1001.97        62.94783
1002.35        64.69694
1002.73        66.32375
1003.12        67.37412
1003.50        67.06669
1003.88        65.45992
1004.26        62.80989
1004.64        60.20697
1005.02        59.56605
1005.40        61.21566
1005.78        64.37123
1006.16        67.91878
1006.54        70.33616
1006.92        71.24222
1007.30        71.08476
1007.69        69.95861
1008.07        68.24294
1008.45        66.25903
1008.83        63.95924
1009.21        61.91644
1009.59        61.07058
1009.97        61.59331
1010.35        63.25259
1010.73        65.47958
1011.11        67.21541
1011.49        68.03944
1011.86        68.22873
1012.24        67.59905
1012.62        66.12521
1013.00        63.89388
1013.38        60.86385
1013.76        57.58652
1014.14        55.35716
1014.52        54.76157
1014.90        55.65567
1015.28        57.42455
1015.66        58.94004
1016.04        59.80606
1016.41        60.28915
1016.79        60.44133
1017.17         60.3948
1017.55        60.33644
1017.93        60.30069
1018.31        60.38388
1018.69        60.79302
1019.06        61.67443
1019.44        62.92791
1019.82        65.00736
1020.20        68.13522
1020.58        71.48241
1020.95        74.17025
1021.33        75.31681
1021.71        74.31601
1022.09        71.10772
1022.46        65.26802
1022.84        57.39822
1023.22        50.40284
1023.60        47.06345
1023.97        47.09447
1024.35        48.93392
1024.73        50.72125
