SpectraSmart Spectrum 2.9.0.0
--------- Device Information -----------
Spectrum Name :  反射率_0
Saving Time :  2024/04/30 01:15:03
Spectro-Module Model Name : SE2030-DUVN
Spectro-Module Serial Number : OS361AC55029948
Wavelength Start : 200
Wavelength End : 1025
Wavelength Unit : Wavelength(nm)
Spectrum Unit : Reflectance(%)
-----------Spectrum Setting ------------
Integration Time : 20ms
Average : 10
Boxcar : 0
Background removal :  enabled
linearity correction :  enabled
SC :  disabled
Intensity correction :  disabled
DWT denoise :  enabled
savitzky-golay :  disabled
FFT :  disabled
Running average :  disabled
Kalman :  disabled
High pass :  disabled
---------------BEGIN--------------------
Wavelength(nm)             Reflectance(%)
200.29               0
200.75        29.66977
201.21        16.54348
201.67       0.2213097
202.13         -10.949
202.58       -13.26812
203.04       -8.033109
203.50        2.752508
203.96        14.27063
204.42        22.98911
204.88         29.2519
205.34        32.19583
205.80        31.17467
206.26        27.78748
206.72        23.74395
207.18        19.49317
207.64        14.86799
208.10        9.699534
208.55         3.51402
209.01       -1.556933
209.47      -0.3172219
209.93        7.056888
210.39        17.21272
210.85        25.49992
211.31        28.27737
211.77        25.46885
212.23        16.94545
212.69         4.04567
213.14       -2.963436
213.60        1.603743
214.06        12.20717
214.52         22.0595
214.98        26.87963
215.44        27.40693
215.90        25.59303
216.36         23.0257
216.81        22.41036
217.27        25.46066
217.73        31.84847
218.19        41.39226
218.65        50.12211
219.11         53.8165
219.57        52.95046
220.02        50.28474
220.48        48.56675
220.94        47.68058
221.40        46.77577
221.86         44.7418
222.32        40.25854
222.77        34.87477
223.23        31.14074
223.69        28.91479
224.15        27.42695
224.61        26.27154
225.06        25.13103
225.52        25.09856
225.98        27.61182
226.44        31.93505
226.90         36.5819
227.36         39.9677
227.81        41.25745
228.27        40.82533
228.73        38.94352
229.19        36.75254
229.65        36.52736
230.10        38.50359
230.56        41.52895
231.02        43.92716
231.48         44.2375
231.93        42.52134
232.39        39.36791
232.85        35.96514
233.31        34.59082
233.77        35.89702
234.22        39.32116
234.68         43.1979
235.14        44.43138
235.60        42.28555
236.05        37.97984
236.51        33.47145
236.97        31.18436
237.43        31.70207
237.88         34.5756
238.34        39.40699
238.80         44.5374
239.26         48.1133
239.71        50.31463
240.17        50.78693
240.63        49.64093
241.08        46.89272
241.54        41.14295
242.00        32.05724
242.46        24.75504
242.91        26.25863
243.37        36.68777
243.83        49.90614
244.28        59.01347
244.74        63.27212
245.20        64.34783
245.66        61.81341
246.11        55.29156
246.57        45.62436
247.03        32.20007
247.48        19.43582
247.94        17.15435
248.40        24.96207
248.85        36.23946
249.31        45.45823
249.77        49.67854
250.22        49.64171
250.68        46.03675
251.14        38.25539
251.59        30.74905
252.05        29.47935
252.51        31.92496
252.96        34.76669
253.42          36.925
253.88        38.58072
254.33        40.13971
254.79        42.17825
255.25        44.21531
255.70        45.61268
256.16        46.68097
256.62        47.12255
257.07          46.776
257.53        46.13126
257.99        45.15199
258.44        44.27979
258.90        44.67548
259.35        45.74585
259.81        47.07291
260.27        47.89566
260.72        47.61278
261.18        46.53574
261.63        44.87748
262.09        43.13263
262.55        41.66627
263.00        40.56275
263.46        39.82475
263.91        39.21095
264.37        38.66182
264.83         38.0745
265.28        37.42012
265.74        36.90228
266.19        36.62182
266.65        36.61469
267.11        36.76582
267.56        36.81947
268.02        36.40971
268.47        35.47352
268.93         34.1432
269.38        32.68682
269.84        31.68827
270.30        31.28412
270.75        31.29883
271.21        31.44443
271.66        31.27913
272.12        30.69949
272.57        29.83674
273.03        28.87386
273.48        28.02009
273.94        27.40563
274.39        26.92092
274.85        26.54701
275.31        26.20862
275.76        25.85813
276.22        25.53382
276.67        25.21437
277.13        24.93421
277.58        24.65189
278.04        24.38548
278.49        24.05249
278.95        23.61607
279.40         23.0516
279.86         22.4534
280.31        21.87228
280.77         21.4834
281.22        21.28114
281.68        21.22907
282.13        21.25528
282.59        21.29319
283.04        21.29215
283.50         21.2501
283.95        21.13418
284.41        20.89908
284.86        20.54555
285.32         20.1372
285.77        19.67726
286.22        19.22857
286.68        18.82986
287.13        18.44372
287.59        18.16155
288.04        18.07048
288.50         18.1748
288.95        18.40924
289.41        18.63991
289.86        18.63825
290.32        18.39007
290.77         17.9751
291.22        17.52572
291.68        17.25568
292.13        17.21855
292.59        17.35464
293.04         17.6505
293.50        18.10242
293.95        18.67991
294.40        19.39023
294.86         20.0997
295.31        20.61028
295.77         20.8844
296.22        20.96606
296.68         21.0344
297.13        21.35986
297.58        22.00417
298.04        22.84845
298.49        23.72924
298.95        24.37828
299.40        24.73227
299.85        24.89001
300.31        24.95276
300.76         25.0265
301.21        25.17759
301.67         25.3602
302.12        25.56752
302.58        25.93021
303.03        26.43662
303.48        26.91695
303.94        27.23848
304.39        27.95741
304.84        27.77645
305.30        27.77021
305.75        27.67376
306.20        27.73465
306.66        27.98961
307.11           28.36
307.57        28.74342
308.02        28.92381
308.47        28.87297
308.93        28.66862
309.38        28.39615
309.83        28.23157
310.29        28.21771
310.74        28.29729
311.19        28.38597
311.65        28.34952
312.10        28.15928
312.55        27.86814
313.00        27.56474
313.46        27.38136
313.91        27.33364
314.36         27.3719
314.82         27.4184
315.27        27.37127
315.72        27.18934
316.18        26.91778
316.63        26.57597
317.08        26.20516
317.53        25.83598
317.99         25.4696
318.44        25.13408
318.89        24.87664
319.35        24.70411
319.80        24.60402
320.25        24.55449
320.70        24.51486
321.16        24.45438
321.61        24.38572
322.06        24.27889
322.51        24.10024
322.97        23.84772
323.42        23.53507
323.87        23.19974
324.32        22.90725
324.78        22.66712
325.23        22.47565
325.68        22.30408
326.13        22.10405
326.59        21.86248
327.04        21.61259
327.49        21.36768
327.94        21.15583
328.39         20.9802
328.85        20.81179
329.30        20.66679
329.75        20.54566
330.20         20.4458
330.66        20.37121
331.11         20.2788
331.56        20.08069
332.01        19.76343
332.46        19.34124
332.92        18.91181
333.37        18.66803
333.82        18.65281
334.27        18.82045
334.72        19.02523
335.17        19.01756
335.63        18.73381
336.08        18.25147
336.53        17.71395
336.98        17.37742
337.43        17.31584
337.88         17.4453
338.34        17.64819
338.79        17.76016
339.24        17.72102
339.69        17.59345
340.14        17.41796
340.59        17.25956
341.05        17.14824
341.50        17.04927
341.95        16.97711
342.40        16.96678
342.85        17.01196
343.30        17.10174
343.75        17.17192
344.20        17.11636
344.66        16.92569
345.11        16.62854
345.56        16.29562
346.01        16.04058
346.46        15.90211
346.91         15.8499
347.36        15.85554
347.81        15.87479
348.26        15.88575
348.72        15.89663
349.17        15.89731
349.62        15.87361
350.07        15.82278
350.52        15.74821
350.97        15.64962
351.42        15.52907
351.87        15.39762
352.32        15.26578
352.77        15.16427
353.22        15.13971
353.67        15.19776
354.13        15.31538
354.58        15.46079
355.03        15.58491
355.48        15.66221
355.93         15.6975
356.38        15.67777
356.83        15.58722
357.28        15.43345
357.73        15.22955
358.18        15.00996
358.63        14.83026
359.08        14.70655
359.53        14.62495
359.98        14.57722
360.43        14.54495
360.88         14.5165
361.33        14.49773
361.78         14.4651
362.23        14.38094
362.68        14.24354
363.13         14.0653
363.58        13.88589
364.03         13.7713
364.48        13.73381
364.93        13.74807
365.38        13.78278
365.83        13.78671
366.28        13.74186
366.73        13.66585
367.18        13.55762
367.63        13.41491
368.08        13.24633
368.53        13.05484
368.98         12.8733
369.43        12.75589
369.88        12.71458
370.33        12.73627
370.78         12.7853
371.23            12.8
371.68        12.75928
372.13        12.67366
372.58        12.56367
373.03        12.46606
373.48        12.38811
373.93        12.31406
374.38        12.22445
374.83        12.09099
375.28        11.91538
375.72        11.71735
376.17         11.5309
376.62        11.37323
377.07        11.25066
377.52        11.15269
377.97        11.09239
378.42        11.09077
378.87        11.14445
379.32        11.24433
379.77        11.34137
380.22        11.36522
380.67        11.30112
381.11        11.15901
381.56        10.99936
382.01         10.9211
382.46        10.94755
382.91        11.05504
383.36        11.16421
383.81        11.15259
384.26        11.00278
384.71        10.75685
385.15        10.51046
385.60        10.43445
386.05        10.54658
386.50         10.7822
386.95        11.03314
387.40        11.13104
387.85        11.04187
388.29        10.82659
388.74        10.57759
389.19        10.37791
389.64        10.25538
390.09        10.17686
390.54        10.15144
390.98        10.19494
391.43        10.29826
391.88        10.45319
392.33        10.60065
392.78        10.66629
393.23        10.64157
393.67         10.5209
394.12        10.37129
394.57        10.35996
395.02        10.35303
395.47        10.44568
395.91        10.54269
396.36        10.55011
396.81        10.45312
397.26        10.28851
397.71        10.11711
398.15        10.01979
398.60        10.02669
399.05        10.08382
399.50        10.14658
399.95        10.19632
400.39         10.1673
400.84        10.07926
401.29        9.953244
401.74         9.88862
402.18        9.906189
402.63        9.950924
403.08        10.01309
403.53        10.08788
403.97        10.16345
404.42        10.24345
404.87         10.2887
405.32        10.23518
405.76        10.07607
406.21        9.838444
406.66        9.598339
407.11        9.476709
407.55        9.503046
408.00        9.645979
408.45         9.82553
408.90        9.893669
409.34        9.809014
409.79         9.61772
410.24        9.414321
410.68        9.342003
411.13          9.4322
411.58        9.636596
412.03        9.863641
412.47        9.960207
412.92        9.876406
413.37        9.673722
413.81        9.435428
414.26        9.301387
414.71        9.293481
415.15        9.372186
415.60        9.475772
416.05        9.519125
416.49        9.475075
416.94        9.378052
417.39        9.259853
417.83        9.164909
418.28        9.114573
418.73         9.08995
419.17        9.086844
419.62        9.100422
420.07        9.124723
420.51        9.160345
420.96        9.198694
421.41        9.220396
421.85        9.217387
422.30        9.202312
422.74        9.174806
423.19        9.152699
423.64        9.136305
424.08        9.127149
424.53        9.117918
424.98        9.118206
425.42        9.128265
425.87        9.134969
426.31        9.129954
426.76        9.115778
427.21         9.06007
427.65        8.987644
428.10        8.896204
428.54        8.766603
428.99        8.619273
429.44         8.51953
429.88        8.473416
430.33        8.386041
430.77        8.313456
431.22        8.504453
431.66         8.89411
432.11        9.079721
432.56        8.988913
433.00        8.841681
433.45        8.677086
433.89        8.383251
434.34        8.101577
434.78        8.125288
435.23         8.37729
435.67        8.474235
436.12        8.382642
436.57        8.310046
437.01        8.296962
437.46        8.321843
437.90        8.391265
438.35        8.498843
438.79        8.602036
439.24        8.620517
439.68        8.554303
440.13        8.461715
440.57        8.362576
441.02        8.297624
441.46        8.282263
441.91         8.24611
442.35           8.196
442.80        8.320719
443.24         8.53552
443.69        8.443098
444.13        8.108183
444.58        7.971482
445.02        8.041492
445.47        8.093301
445.91        8.094621
446.36        8.104128
446.80        8.111397
447.24        8.110924
447.69        8.104148
448.13        8.095577
448.58        8.088069
449.02        8.078134
449.47        8.083023
449.91        8.126478
450.36        8.208258
450.80        8.319048
451.25        8.421101
451.69        8.456302
452.13        8.412061
452.58        8.312219
453.02        8.194128
453.47        8.119975
453.91        8.103947
454.36        8.151937
454.80        8.198647
455.24        8.231146
455.69        8.227713
456.13        8.202191
456.58        8.172948
457.02         8.15837
457.46        8.165748
457.91        8.182122
458.35        8.200094
458.79        8.210956
459.24        8.218678
459.68        8.232039
460.13        8.250981
460.57        8.231899
461.01        8.240797
461.46        8.195817
461.90        8.150987
462.34        8.231853
462.79        8.406188
463.23         8.48568
463.68        8.454221
464.12        8.449529
464.56            8.47
465.01        8.437496
465.45        8.365124
465.89        8.309711
466.34        8.292233
466.78        8.337038
467.22        8.429484
467.67        8.408605
468.11        8.268827
468.55        8.073925
468.99        7.892863
469.44        7.807833
469.88        7.838763
470.32        7.964519
470.77        8.122663
471.21        8.223938
471.65        8.235847
472.10         8.18945
472.54        8.123742
472.98        8.113008
473.42         8.17274
473.87        8.272905
474.31        8.375521
474.75        8.422852
475.20        8.406319
475.64        8.347496
476.08        8.276952
476.52        8.237955
476.97        8.242924
477.41        8.273556
477.85        8.323818
478.29        8.382708
478.74        8.444441
479.18        8.509668
479.62        8.559755
480.06        8.587025
480.50        8.594394
480.95        8.506429
481.39        8.482821
481.83        8.494697
482.27         8.59657
482.72        8.697495
483.16         8.87465
483.60        8.962152
484.04        8.974219
484.48        8.936994
484.93        8.908772
485.37         8.97105
485.81        9.045309
486.25        9.316948
486.69        8.748657
487.14        8.981874
487.58        9.670707
488.02        9.580173
488.46        9.642016
488.90        9.759266
489.34        9.309452
489.79        9.318069
490.23        9.478136
490.67        9.692689
491.11        9.867947
491.55        9.887965
491.99        9.806555
492.43        9.873473
492.88         10.0989
493.32        10.29536
493.76        10.43026
494.20        10.56657
494.64        10.70135
495.08        10.81163
495.52        10.89278
495.96        10.97052
496.41        11.05349
496.85        11.07246
497.29        11.05862
497.73        11.25852
498.17        11.49848
498.61        11.59872
499.05        11.52625
499.49        11.53279
499.93        11.63844
500.37        11.73917
500.82         11.8233
501.26        11.90207
501.70         11.9725
502.14        12.05013
502.58        12.13896
503.02        12.23041
503.46        12.32382
503.90        12.42109
504.34        12.51972
504.78        12.61334
505.22        12.69811
505.66        12.77305
506.10        12.82729
506.54        12.85976
506.98        12.87465
507.42        12.84952
507.86        12.79525
508.30        12.87366
508.74        12.85755
509.18        12.92978
509.62        13.01036
510.06        13.08879
510.50        13.15773
510.94        13.22359
511.38        13.28757
511.82        13.34484
512.26        13.39396
512.70        13.43142
513.14        13.46113
513.58        13.49143
514.02        13.52469
514.46        13.56137
514.90        13.59321
515.34        13.60567
515.78        13.59771
516.22        13.57467
516.66        13.55307
517.10        13.55915
517.54         13.5948
517.98        13.64646
518.42        13.69428
518.86        13.70612
519.30        13.67433
519.74        13.61432
520.18        13.53268
520.62         13.4381
521.06        13.34085
521.50        13.24207
521.93         13.1674
522.37        13.15436
522.81        13.20776
523.25        13.31115
523.69        13.42718
524.13        13.49836
524.57        13.50717
525.01        13.46488
525.45        13.38754
525.89        13.30586
526.32        13.23065
526.76        13.15765
527.20        13.08279
527.64         13.0002
528.08        12.91088
528.52        12.82392
528.96        12.74718
529.40        12.68932
529.83        12.65205
530.27        12.63224
530.71         12.6235
531.15        12.61901
531.59        12.61212
532.03        12.59861
532.46        12.57488
532.90        12.53956
533.34        12.49368
533.78        12.44482
534.22        12.38761
534.66        12.31308
535.09        12.22406
535.53        12.12906
535.97        12.05847
536.41        12.06443
536.85        12.15074
537.28        12.29598
537.72        12.44699
538.16        12.52315
538.60        12.50583
539.04        12.42446
539.47        12.31265
539.91        12.23701
540.35        12.21491
540.79        12.23266
541.22        12.28704
541.66        12.37486
542.10        12.48758
542.54        12.62684
542.97        12.78016
543.41        12.92403
543.85        13.05273
544.29        13.17171
544.72        13.27681
545.16        13.37659
545.60        13.47368
546.04        13.56092
546.47        13.65641
546.91        13.80998
547.35         14.0142
547.79        14.21221
548.22        14.37815
548.66        14.54939
549.10        14.72552
549.53        14.83477
549.97        14.86756
550.41        15.11446
550.84         15.1284
551.28        15.24609
551.72        15.32763
552.15         15.5008
552.59        15.57049
553.03        15.69299
553.46        15.81102
553.90        15.92009
554.34         16.0154
554.77        16.11507
555.21        16.21583
555.65        16.26696
556.08        16.28317
556.52        16.34762
556.96        16.45852
557.39        16.57404
557.83        16.68853
558.27        16.79012
558.70        16.88857
559.14        17.01906
559.57        17.16466
560.01        17.29791
560.45         17.4024
560.88        17.40579
561.32        17.41798
561.75         17.4479
562.19        17.52422
562.63        17.56749
563.06        17.57694
563.50         17.6119
563.93        17.66701
564.37        17.72399
564.80        17.77845
565.24        17.84033
565.68        17.91417
566.11        18.01815
566.55        18.15309
566.98         18.2842
567.42        18.42264
567.85        18.55354
568.29         18.6772
568.72        18.83876
569.16        19.07761
569.60         19.0382
570.03        19.31672
570.47        19.43879
570.90        19.55568
571.34        19.71671
571.77        19.81516
572.21        19.93239
572.64        20.02538
573.08        20.12425
573.51        20.27577
573.95        20.30456
574.38        20.67443
574.82        20.70467
575.25          20.585
575.69        20.60504
576.12        20.44687
576.56          20.911
576.99        21.00623
577.42        20.95357
577.86        20.82526
578.29        20.73168
578.73        20.77557
579.16        20.84607
579.60        20.76085
580.03        20.62191
580.47        20.58048
580.90        20.44738
581.33        20.26615
581.77        20.35806
582.20        20.18952
582.64         20.0395
583.07        19.82244
583.51        19.65947
583.94        19.65361
584.37        19.59848
584.81        19.49778
585.24        19.49182
585.68        19.46218
586.11         19.4003
586.54        19.04947
586.98         19.1093
587.41        19.45127
587.85        19.08847
588.28        18.86359
588.71         19.1109
589.15        18.76616
589.58        18.99341
590.01        18.97147
590.45        18.93162
590.88        18.78072
591.31         18.8141
591.75        19.02013
592.18        19.07372
592.61        18.93925
593.05         19.0307
593.48        19.00874
593.91        18.99527
594.35        18.98379
594.78        19.10535
595.21         19.3583
595.65        19.32895
596.08        19.09512
596.51        19.47369
596.94        19.82824
597.38        20.17222
597.81         20.2737
598.24        20.32054
598.68        20.58131
599.11        20.80932
599.54        21.21815
599.97         21.5281
600.41        21.79818
600.84        22.09673
601.27        22.45475
601.70         22.8043
602.14        23.13789
602.57        23.47523
603.00        23.81912
603.43        24.18703
603.87        24.50177
604.30        25.13142
604.73        25.45902
605.16        25.96462
605.60        26.44775
606.03        26.94271
606.46        27.38025
606.89        27.79451
607.32        28.21301
607.76        28.61719
608.19        29.01136
608.62        29.36741
609.05        29.72042
609.48        30.26606
609.92        30.62736
610.35        31.13196
610.78        31.34898
611.21        31.38684
611.64        31.89906
612.07        32.27537
612.50        32.61488
612.94        33.04649
613.37        33.59839
613.80         33.6176
614.23        34.23915
614.66        34.50201
615.09        34.74057
615.52         34.9629
615.96        35.26812
616.39        35.41744
616.82        35.46092
617.25        36.00631
617.68        36.36282
618.11        36.78701
618.54        37.04472
618.97        37.27184
619.40        37.47313
619.84        37.72429
620.27        38.05708
620.70        38.32818
621.13        38.45042
621.56        38.74099
621.99        38.73412
622.42        38.42696
622.85        39.03943
623.28        39.04885
623.71        39.16607
624.14        38.94836
624.57        39.14698
625.00        39.10888
625.43        39.01163
625.86        38.87975
626.29        38.73198
626.72        38.58641
627.15        38.44347
627.58        38.33344
628.01        38.22572
628.44        37.99302
628.87        37.65957
629.30        37.42184
629.73        37.27264
630.16        37.01706
630.59        36.64135
631.02        36.33915
631.45        35.94456
631.88        35.53765
632.31        35.07107
632.74        34.56783
633.17        34.04188
633.60        33.51921
634.03        33.01174
634.46        32.51202
634.89        32.02217
635.32        31.54743
635.75         31.0861
636.18        30.63478
636.61        30.18927
637.04        29.74567
637.47        29.30877
637.89        28.86285
638.32        28.39518
638.75        27.97387
639.18        27.61867
639.61        27.04769
640.04         26.7751
640.47        26.44096
640.90        26.19435
641.33        26.01836
641.76        25.88246
642.18         25.7297
642.61        25.53578
643.04        25.32109
643.47        25.13393
643.90        25.04297
644.33        25.05976
644.76        25.19573
645.18        25.38044
645.61           25.43
646.04        25.30139
646.47        25.31911
646.90        25.49084
647.33        25.65564
647.75        25.81813
648.18        26.10172
648.61        26.47804
649.04        26.85203
649.47        27.22371
649.89        27.59505
650.32        27.97907
650.75        28.53296
651.18        29.20093
651.61        29.64704
652.03        29.92707
652.46        30.52611
652.89        31.40867
653.32        32.01752
653.74        32.34626
654.17        33.04677
654.60        33.14904
655.03        34.37263
655.46        34.61559
655.88        36.03999
656.31        37.98619
656.74        38.34658
657.16        37.65889
657.59        37.10033
658.02        37.74885
658.45        39.03364
658.87        39.71984
659.30        39.64419
659.73        40.67852
660.15        40.88466
660.58        41.72668
661.01        42.11224
661.44        42.37334
661.86         42.5548
662.29         42.7491
662.72        43.22726
663.14        43.91136
663.57        44.20722
664.00        44.16856
664.42        44.38889
664.85        44.91813
665.27        45.41006
665.70        45.80241
666.13        46.18364
666.55        46.54367
666.98        46.84065
667.41        47.08925
667.83        47.34602
668.26        47.59475
668.69        47.74814
669.11        47.84629
669.54        48.03227
669.96        48.31858
670.39        48.65419
670.82        48.99166
671.24        49.23072
671.67        49.36812
672.09        49.53518
672.52         49.7468
672.94        49.98119
673.37        49.86372
673.80        50.31093
674.22        50.23634
674.65        50.56533
675.07        50.98012
675.50         51.3362
675.92        51.59588
676.35        51.83458
676.77        52.05785
677.20        52.14574
677.62        52.15974
678.05        52.32543
678.47        52.62111
678.90        52.82177
679.32        52.90583
679.75        53.01335
680.17        53.13705
680.60         53.2004
681.02        53.22024
681.45        53.27185
681.87        53.37137
682.30        53.49049
682.72        53.64788
683.15        53.81659
683.57        54.02084
684.00        54.31792
684.42        54.64507
684.85        54.89041
685.27        55.04238
685.70        55.02135
686.12        54.91552
686.54        55.28896
686.97        56.05154
687.39        56.28738
687.82        55.87704
688.24        56.46532
688.66        56.35574
689.09        56.18071
689.51        56.12098
689.94        56.10467
690.36        56.29194
690.78        56.31775
691.21        56.24229
691.63        56.42785
692.06        56.82171
692.48        57.05821
692.90        57.11799
693.33        57.20987
693.75        57.33194
694.17        57.38839
694.60        57.41291
695.02        57.32076
695.44        57.43567
695.87        57.53617
696.29         57.7131
696.71        57.72085
697.14        57.78111
697.56        57.93285
697.98        58.20433
698.41        58.36353
698.83        58.41067
699.25        58.54815
699.68        58.73524
700.10        58.82067
700.52        58.78303
700.94        58.71107
701.37        58.63631
701.79        58.59827
702.21        58.60898
702.64        58.66999
703.06        58.77634
703.48        58.92754
703.90        59.11665
704.33        59.34844
704.75        59.57115
705.17        59.76075
705.59        59.88688
706.01        59.96103
706.44        59.99883
706.86        60.04607
707.28        60.11662
707.70        60.16987
708.12        60.23128
708.55        60.40498
708.97        60.65666
709.39        60.79693
709.81        60.83628
710.23        60.97203
710.66         61.2015
711.08        61.41537
711.50        61.57119
711.92        61.69048
712.34        61.76926
712.76        61.80355
713.19        61.79597
713.61        61.79273
714.03        61.79215
714.45        61.79638
714.87        61.81918
715.29        61.87718
715.71        61.96894
716.13        62.08594
716.56        62.19334
716.98         62.3063
717.40        62.39004
717.82         62.4516
718.24        62.48111
718.66        62.46645
719.08        62.41371
719.50         62.3273
719.92        62.25233
720.34        62.25994
720.76        62.35979
721.19        62.52821
721.61        62.73018
722.03        62.82363
722.45        62.76611
722.87        62.71278
723.29        62.76089
723.71        62.41401
724.13        62.49073
724.55        62.68573
724.97        62.89289
725.39        62.58386
725.81        62.96503
726.23        63.01434
726.65        63.10777
727.07        63.14534
727.49        63.13683
727.91        63.28189
728.33         63.2701
728.75        63.41928
729.17        63.65496
729.59        63.87061
730.01         63.9394
730.43        64.24298
730.85          64.061
731.27        63.51285
731.69        63.43876
732.10        63.34979
732.52        63.55812
732.94        63.98095
733.36        64.51156
733.78        64.90179
734.20        65.05553
734.62        65.07447
735.04        65.03197
735.46        64.95534
735.88        64.92509
736.30        65.12314
736.72        65.43903
737.13        65.50136
737.55        65.23972
737.97        64.88792
738.39        64.59603
738.81        64.43743
739.23        64.49449
739.65        64.92056
740.06        65.47812
740.48        65.69379
740.90        65.48464
741.32        65.04758
741.74        64.57796
742.16        64.35455
742.57        64.47443
742.99        64.83495
743.41        65.29588
743.83        65.61171
744.25        65.72261
744.67        65.73267
745.08        65.70467
745.50        65.69801
745.92        65.74897
746.34        65.81608
746.75        65.90363
747.17         66.0158
747.59        66.14822
748.01        66.34498
748.42        66.53463
748.84        66.53029
749.26        66.36592
749.68        66.13138
750.09        65.92399
750.51        66.03317
750.93         66.3596
751.35        66.40214
751.76        66.17532
752.18        66.13595
752.60        66.29484
753.01        66.34309
753.43        66.26845
753.85        66.29704
754.27        66.41955
754.68        66.46741
755.10        66.44241
755.52        66.48798
755.93        66.58273
756.35        66.60605
756.77        66.64915
757.18        66.82539
757.60        67.14175
758.02        67.80714
758.43        68.45903
758.85        68.22229
759.26        66.87773
759.68        66.31476
760.10        67.08807
760.51        67.45566
760.93        67.47189
761.34        67.50386
761.76        67.60664
762.18        67.54631
762.59        67.43069
763.01        67.01103
763.42        66.97147
763.84        66.88831
764.26        66.96907
764.67        67.05877
765.09        67.19248
765.50        67.59205
765.92        68.12514
766.33        68.28681
766.75        67.94444
767.16        67.80965
767.58        67.33426
768.00        67.22079
768.41        67.31812
768.83        67.69254
769.24        68.09527
769.66        68.02847
770.07        67.56812
770.49        67.11624
770.90        66.89564
771.32        67.34172
771.73         68.2485
772.15        68.54811
772.56        68.17647
772.97        68.07136
773.39        67.89148
773.80        67.95538
774.22        68.12325
774.63        68.48746
775.05        68.86983
775.46         69.0614
775.88        68.97791
776.29         68.7065
776.70        68.34944
777.12        68.10581
777.53        68.04279
777.95        68.08717
778.36        68.20409
778.77        68.32864
779.19        68.43993
779.60        68.59223
780.02        68.74151
780.43        68.95039
780.84        69.23005
781.26        69.24509
781.67         69.0777
782.09        69.62115
782.50        70.67219
782.91        70.09584
783.33        69.42844
783.74        68.89075
784.15        69.00045
784.57        68.97757
784.98        68.81989
785.39        68.83134
785.81        69.00224
786.22        69.27897
786.63        69.61387
787.04        69.91022
787.46        70.14159
787.87        70.32875
788.28        70.51103
788.70        70.67755
789.11        70.81499
789.52        71.06345
789.93        71.31111
790.35        71.08842
790.76        70.52032
791.17        70.29685
791.58        70.46899
792.00         70.5075
792.41        70.41948
792.82        70.62418
793.23        71.04813
793.65        71.12853
794.06         70.9491
794.47        71.15288
794.88        71.62038
795.29        71.70742
795.71        71.36375
796.12        70.95903
796.53        70.65135
796.94         70.5889
797.35        70.83748
797.76        71.34875
798.18        71.92397
798.59        72.28136
799.00        72.31798
799.41        72.12195
799.82        71.79627
800.23        71.52554
800.64        71.38203
801.06        71.28281
801.47        71.27288
801.88        71.35165
802.29        71.49954
802.70        71.71519
803.11        71.92942
803.52        72.01313
803.93        71.94476
804.34        71.76397
804.75        71.52299
805.17        71.36468
805.58        71.36977
805.99        71.33657
806.40        71.30695
806.81        71.71341
807.22        72.37419
807.63        72.43153
808.04        71.96719
808.45        71.88657
808.86        72.25807
809.27        72.56356
809.68        72.68907
810.09        72.70683
810.50         72.5928
810.91        72.32642
811.32        72.05079
811.73        71.99364
812.14         72.2003
812.55        72.61932
812.96         73.0752
813.37        73.23676
813.78        73.02484
814.19        72.56696
814.60        72.05447
815.01        71.75508
815.42        71.73558
815.83        71.90772
816.24        72.19355
816.65        72.47907
817.05        72.69971
817.46        72.78164
817.87         72.7216
818.28        72.85547
818.69        72.55893
819.10        72.34624
819.51        72.10191
819.92        71.99371
820.33        72.05775
820.74        72.24997
821.14        72.51481
821.55        72.74855
821.96         72.9063
822.37         73.0226
822.78        73.05391
823.19        72.93187
823.60         72.6572
824.00        72.24501
824.41        71.81643
824.82        71.59358
825.23        71.62025
825.64        71.85978
826.04          72.173
826.45         72.2279
826.86        71.97359
827.27        71.50494
827.68        71.02303
828.08        70.86961
828.49        71.08108
828.90        71.58901
829.31        72.22616
829.72        72.70266
830.12        72.94885
830.53        72.96468
830.94        72.90773
831.35        73.00178
831.75        73.32305
832.16        73.72136
832.57          74.078
832.97        74.16065
833.38        73.92609
833.79         73.5189
834.20        73.05527
834.60        72.67641
835.01        72.46529
835.42         72.3434
835.82        72.40366
836.23        72.73107
836.64        73.32507
837.04        74.18438
837.45        74.95636
837.86        75.20483
838.26        74.82926
838.67        73.97197
839.08        72.96984
839.48        72.33367
839.89        72.24104
840.29        72.53854
840.70        73.04845
841.11        73.48978
841.51        73.78139
841.92        73.97314
842.33        74.12083
842.73        74.29381
843.14        74.46323
843.54        74.61838
843.95        74.73451
844.35        74.85579
844.76        74.95909
845.17        75.01952
845.57        75.05826
845.98        75.06959
846.38        75.06792
846.79        75.06118
847.19        74.95581
847.60        74.54793
848.00        73.86045
848.41        72.99216
848.81        72.22657
849.22        71.97604
849.62        72.35032
850.03        73.18681
850.43        74.26312
850.84        74.96516
851.24        75.15276
851.65        74.87841
852.05        74.37843
852.46        74.00594
852.86        73.86078
853.27        73.89357
853.67        73.89822
854.07        73.78934
854.48        73.49504
854.88         73.0928
855.29        72.64135
855.69        72.46469
856.10        72.55639
856.50        72.92641
856.90        73.31522
857.31        73.37533
857.71        73.08799
858.12        72.52515
858.52        71.94931
858.92        71.74471
859.33        71.99001
859.73        72.59576
860.13        73.33871
860.54        73.86936
860.94        74.11475
861.34        74.08775
861.75        73.82077
862.15        73.43877
862.55         72.9763
862.96        72.44661
863.36         71.8289
863.76        71.10861
864.17        70.35094
864.57        69.64028
864.97        69.11788
865.38        68.93584
865.78        69.14339
866.18        69.64748
866.58        70.38172
866.99        71.16596
867.39         71.9133
867.79        72.59138
868.19        73.00195
868.60        72.87856
869.00        72.22626
869.40         71.1196
869.80         69.9872
870.21         69.5677
870.61        70.07523
871.01        71.25719
871.41        72.58602
871.81        73.20589
872.22        72.89364
872.62        71.91216
873.02        70.65694
873.42        69.79105
873.82        69.54759
874.22        69.76149
874.63        70.19048
875.03        70.47129
875.43        70.49921
875.83        70.37833
876.23        70.36352
876.63        70.80534
877.03        71.72564
877.44        73.00313
877.84         74.2695
878.24        74.36971
878.64        73.94559
879.04         72.6983
879.44        71.31564
879.84        70.44891
880.24        70.26939
880.64        70.54494
881.04        71.13618
881.44        71.82134
881.84        72.47179
882.24        73.17452
882.65        73.69933
883.05        73.78047
883.45        73.33711
883.85        72.47887
884.25         71.5848
884.65        71.25606
885.05        71.59877
885.45        72.39323
885.85        73.38148
886.25        74.09948
886.65        74.35737
887.05        74.32039
887.45        73.90788
887.85        73.01189
888.25        71.76575
888.65        70.28853
889.04        68.99967
889.44        68.52175
889.84        68.88281
890.24        69.95848
890.64        71.36624
891.04         72.2663
891.44         72.3513
891.84        71.87236
892.24        71.21967
892.64        70.94926
893.04        71.18361
893.44        71.72213
893.83        72.43597
894.23        73.03028
894.63        73.41249
895.03        73.68439
895.43        73.84709
895.83        73.89109
896.23        73.82754
896.63        73.60954
897.02        73.32075
897.42        73.18166
897.82        73.21188
898.22         73.4071
898.62        73.56269
899.01        73.33371
899.41        72.66746
899.81        71.70358
900.21        70.79861
900.61        70.49178
901.00        70.88232
901.40        71.80219
901.80        72.85593
902.20        73.39128
902.59        73.22691
902.99        72.54418
903.39        71.69779
903.79        71.22546
904.18        71.25722
904.58        71.65517
904.98        72.12885
905.38        72.24461
905.77        71.88808
906.17        71.21147
906.57        70.51883
906.96        70.30524
907.36         70.6459
907.76        71.41305
908.15        72.23788
908.55          72.387
908.95        71.76662
909.34        70.60378
909.74        69.46879
910.14        69.09575
910.53        69.68507
910.93        70.95991
911.33        72.54391
911.72        73.85155
912.12        74.58714
912.52        74.90154
912.91        74.98817
913.31        75.16644
913.70        75.52548
914.10        75.90191
914.49        76.05551
914.89        75.62943
915.29        74.62912
915.68        73.26269
916.08        71.94418
916.47        71.16341
916.87        71.09084
917.26        71.51986
917.66         72.2619
918.05        73.01174
918.45        73.57922
918.84        74.11143
919.24        74.41908
919.64        74.34203
920.03        73.89108
920.42        73.06154
920.82         72.2331
921.21        71.91392
921.61        72.20921
922.00        73.00578
922.40        73.91048
922.79        74.32092
923.19         74.0408
923.58         73.2816
923.98        72.38006
924.37        71.87209
924.77        71.88811
925.16        72.26972
925.55         72.7643
925.95        72.96604
926.34        72.78833
926.74        72.36424
927.13        71.89468
927.52        71.65344
927.92        71.72144
928.31        71.96493
928.70        72.27019
929.10        72.45843
929.49        72.45976
929.89        72.30054
930.28        72.02975
930.67        71.64782
931.07        71.20956
931.46        70.78552
931.85        70.40255
932.24        70.10167
932.64        69.91742
933.03        69.83696
933.42        69.98657
933.82        70.54975
934.21        71.51344
934.60        72.71592
934.99        73.84718
935.39        74.39225
935.78        74.27184
936.17        73.62079
936.56        72.54008
936.96        71.29661
937.35         70.1105
937.74        68.99255
938.13        68.24649
938.53          68.227
938.92        68.91531
939.31        70.28011
939.70        71.89489
940.09        72.88538
940.49        72.93893
940.88        72.25486
941.27        71.32023
941.66        70.91431
942.05        71.22424
942.44        72.07362
942.84        72.99906
943.23        73.24723
943.62        72.57494
944.01        71.25087
944.40        69.94455
944.79        69.61101
945.18        70.42452
945.57        72.11295
945.97        73.87371
946.36        74.55753
946.75        73.74847
947.14        71.84192
947.53        69.72916
947.92        68.74649
948.31        69.22389
948.70         70.8172
949.09        72.75809
949.48        73.65584
949.87        73.10254
950.26         71.5476
950.65        69.85464
951.04        69.22327
951.43        69.90112
951.82        71.54086
952.21        73.38035
952.60        74.04749
952.99        73.16091
953.38        71.20705
953.77        69.13211
954.16        68.16101
954.55        68.54807
954.94        70.04726
955.33        71.90618
955.72        72.52918
956.11        71.41249
956.50        69.12471
956.89        66.88631
957.28        66.28634
957.66         67.6432
958.05        70.43066
958.44        73.63634
958.83         75.2001
959.22        74.44874
959.61        72.13592
960.00        69.43784
960.39        67.83521
960.78        67.62089
961.16        68.37834
961.55         69.5518
961.94        70.12823
962.33        69.74297
962.72        68.85526
963.11        67.87928
963.49        67.32896
963.88        67.33157
964.27        67.64993
964.66        68.21455
965.04        68.99313
965.43        69.80627
965.82        70.69838
966.21        71.44289
966.60        71.61341
966.98        71.17297
967.37        70.32043
967.76        69.36119
968.15        68.70769
968.53        68.43925
968.92        68.37357
969.31        68.59483
969.69        69.25349
970.08         70.2506
970.47        71.66619
970.86        72.86279
971.24        72.76828
971.63        71.20478
972.02        68.55947
972.40        65.97512
972.79        65.23359
973.17        66.62724
973.56        69.52834
973.95        72.87239
974.33        74.63033
974.72        74.09655
975.11        71.94862
975.49        69.23499
975.88        67.88667
976.26        68.38338
976.65        70.09489
977.04        72.32253
977.42        73.80206
977.81        73.91453
978.19        73.17358
978.58        71.99331
978.96        70.88913
979.35        70.15077
979.74        69.62817
980.12        69.39323
980.51        69.55845
980.89         70.1692
981.28        71.05518
981.66        72.29156
982.05        73.67702
982.43        75.18214
982.82        76.74286
983.20        77.83812
983.59        77.51789
983.97        75.72989
984.35        72.84987
984.74        70.07463
985.12         69.0592
985.51        70.02133
985.89        72.55447
986.28        75.47588
986.66        77.14174
987.04        76.85961
987.43        75.16086
987.81        72.69588
988.20         70.9173
988.58        70.23743
988.96         70.2933
989.35        70.43217
989.73         69.8391
990.12        68.29865
990.50         66.3241
990.88         64.4227
991.27        63.34756
991.65        63.25097
992.03        63.84381
992.42        65.02117
992.80        66.96533
993.18        69.48267
993.56        72.58492
993.95        75.44427
994.33         76.6681
994.71        75.79303
995.10        73.26312
995.48        70.31643
995.86        68.88561
996.24        69.42574
996.63        71.39371
997.01        74.02462
997.39        75.62727
997.77        75.60097
998.15        74.48401
998.54        72.88503
998.92        71.73737
999.30        71.33864
999.68        71.42354
1000.06        71.80281
1000.45        72.10776
1000.83         72.2208
1001.21        72.25942
1001.59        72.43715
1001.97        73.03684
1002.35        74.05827
1002.73        75.33679
1003.12        76.41222
1003.50        76.51936
1003.88         75.6076
1004.26        74.00578
1004.64        72.28632
1005.02        71.44775
1005.40         71.7261
1005.78        72.66175
1006.16        73.96555
1006.54        75.27196
1006.92         76.4147
1007.30        77.58225
1007.69        78.23929
1008.07        77.43483
1008.45        74.92242
1008.83        70.98415
1009.21        66.89571
1009.59        64.80414
1009.97        65.24078
1010.35        67.59128
1010.73        70.77259
1011.11        72.89793
1011.49         73.3392
1011.86         72.7393
1012.24         71.2271
1012.62        69.21369
1013.00        66.92274
1013.38        64.10268
1013.76        61.34542
1014.14        60.00903
1014.52        60.60654
1014.90        63.01688
1015.28        66.13761
1015.66         68.1213
1016.04        68.47379
1016.41        67.58482
1016.79        66.24455
1017.17        66.04968
1017.55        67.31264
1017.93        69.27843
1018.31        71.17605
1018.69        72.47947
1019.06        73.33372
1019.44        73.79339
1019.82        74.40717
1020.20        76.11072
1020.58        78.80161
1020.95        81.52702
1021.33        83.03904
1021.71        82.23372
1022.09         78.9397
1022.46         72.8572
1022.84        64.85561
1023.22        58.47462
1023.60         56.5251
1023.97        58.23994
1024.35        61.36571
1024.73        63.42893
