SpectraSmart Spectrum 2.9.0.0
--------- Device Information -----------
Spectrum Name :  反射率_0
Saving Time :  2024/04/30 01:01:37
Spectro-Module Model Name : SE2030-DUVN
Spectro-Module Serial Number : OS361AC55029948
Wavelength Start : 200
Wavelength End : 1025
Wavelength Unit : Wavelength(nm)
Spectrum Unit : Reflectance(%)
-----------Spectrum Setting ------------
Integration Time : 20ms
Average : 10
Boxcar : 0
Background removal :  enabled
linearity correction :  enabled
SC :  disabled
Intensity correction :  disabled
DWT denoise :  enabled
savitzky-golay :  disabled
FFT :  disabled
Running average :  disabled
Kalman :  disabled
High pass :  disabled
---------------BEGIN--------------------
Wavelength(nm)             Reflectance(%)
200.29               0
200.75        43.96171
201.21        30.94291
201.67        14.55517
202.13       0.0955531
202.58       -9.810081
203.04         -16.111
203.50       -17.39064
203.96       -11.16687
204.42        2.177483
204.88        21.41273
205.34        39.14048
205.80        44.38207
206.26        38.37265
206.72        28.05687
207.18        18.15837
207.64        11.42818
208.10        7.325699
208.55        3.942342
209.01        2.476248
209.47        5.845011
209.93        13.14042
210.39        22.43691
210.85        29.64507
211.31        31.40839
211.77        27.67391
212.23        17.71544
212.69        3.898087
213.14      -0.3820415
213.60        10.26809
214.06        27.48706
214.52        41.45778
214.98        46.16851
215.44        43.00109
215.90        34.62318
216.36        24.10589
216.81        17.26909
217.27        17.29641
217.73        23.41391
218.19        35.48979
218.65        47.88351
219.11        54.37455
219.57        55.54668
220.02         54.2052
220.48        53.66824
220.94        54.15852
221.40        54.64075
221.86        53.77414
222.32        49.48011
222.77        43.19777
223.23        38.40222
223.69        35.35721
224.15        33.35728
224.61        31.94276
225.06        30.70025
225.52        30.96541
225.98        34.52977
226.44         40.2846
226.90        46.25409
227.36        50.54158
227.81        52.14957
228.27        51.62762
228.73        49.41269
229.19        46.65146
229.65        45.77255
230.10        47.18597
230.56        49.70898
231.02        51.93233
231.48         52.6827
231.93        51.94439
232.39        50.27627
232.85        48.29958
233.31        47.21057
233.77        47.41796
234.22        48.68376
234.68         50.2118
235.14        50.61434
235.60        49.56738
236.05        47.56065
236.51        45.70169
236.97        45.36169
237.43        46.87941
237.88        50.27788
238.34        54.70824
238.80         57.7545
239.26        57.63892
239.71        54.92229
240.17        50.97111
240.63         47.7505
241.08        45.58215
241.54        43.80385
242.00         42.1924
242.46        40.70844
242.91        40.03487
243.37        40.70164
243.83        42.53199
244.28         44.9195
244.74        47.54729
245.20        50.47932
245.66        52.94654
246.11        53.18806
246.57        50.67112
247.03        45.90789
247.48        40.16191
247.94        36.63475
248.40         36.5246
248.85          37.827
249.31        39.94542
249.77        42.58844
250.22        46.08107
250.68        51.61393
251.14        58.43606
251.59        59.25211
252.05        51.80498
252.51        43.02167
252.96        37.18081
253.42        35.15676
253.88        35.76352
254.33        37.98915
254.79        41.98788
255.25        46.36245
255.70        49.50296
256.16         51.7319
256.62        53.01084
257.07        53.44439
257.53        53.64235
257.99        53.56043
258.44        53.16951
258.90        53.08399
259.35        52.98775
259.81        53.02682
260.27        53.07313
260.72        53.07349
261.18        53.14668
261.63        53.05202
262.09         52.7841
262.55        52.02604
263.00        50.81372
263.46         49.5327
263.91        48.22737
264.37        47.20689
264.83        46.41164
265.28        45.69822
265.74        45.19652
266.19        44.88235
266.65        44.78512
267.11        44.84164
267.56        44.86802
268.02        44.60654
268.47         43.9869
268.93        43.07935
269.38        42.03949
269.84          41.262
270.30        40.83145
270.75        40.64245
271.21        40.48879
271.66        40.02792
272.12        39.20935
272.57        38.13348
273.03        37.02935
273.48         36.1704
273.94        35.67802
274.39        35.38856
274.85        35.20367
275.31        34.90842
275.76        34.43386
276.22        33.89661
276.67        33.29857
277.13        32.73567
277.58        32.19495
278.04        31.69606
278.49        31.22103
278.95        30.84869
279.40        30.53544
279.86        30.32839
280.31        30.13614
280.77        29.94182
281.22        29.68838
281.68        29.41015
282.13        29.12818
282.59        28.93266
283.04        28.80276
283.50        28.71025
283.95        28.55665
284.41        28.21495
284.86        27.66975
285.32        27.02782
285.77        26.36889
286.22        25.87188
286.68        25.58407
287.13        25.41733
287.59        25.35216
288.04        25.29807
288.50        25.23683
288.95        25.15892
289.41         25.0584
289.86        24.88355
290.32        24.65543
290.77        24.38446
291.22        24.10557
291.68          23.876
292.13        23.71189
292.59        23.62642
293.04        23.66368
293.50        23.90967
293.95        24.35687
294.40        24.97685
294.86        25.64146
295.31        26.16608
295.77        26.50071
296.22        26.68405
296.68        26.83307
297.13        27.11337
297.58        27.57436
298.04        28.13581
298.49        28.70994
298.95        29.15653
299.40        29.43779
299.85         29.6054
300.31        29.72536
300.76        29.83924
301.21        29.99606
301.67        30.19003
302.12        30.38256
302.58        30.65637
303.03         31.0028
303.48        31.26851
303.94        31.43084
304.39        32.16977
304.84        32.27275
305.30        32.69031
305.75        33.00484
306.20        33.19533
306.66        33.25821
307.11        33.21201
307.57        33.12548
308.02        33.02618
308.47        32.94423
308.93        32.87631
309.38        32.81464
309.83        32.79182
310.29        32.80941
310.74        32.86461
311.19        32.90595
311.65        32.84359
312.10        32.66279
312.55        32.38858
313.00        32.11843
313.46        32.00718
313.91         32.0676
314.36        32.24975
314.82         32.4327
315.27        32.44128
315.72        32.22283
316.18        31.84542
316.63        31.39166
317.08        31.00521
317.53        30.73939
317.99        30.56329
318.44        30.44558
318.89        30.33926
319.35        30.22508
319.80         30.1192
320.25        30.04044
320.70        30.01385
321.16        30.02746
321.61        30.07566
322.06        30.09988
322.51        30.02093
322.97        29.82332
323.42        29.53914
323.87        29.23142
324.32        29.00447
324.78        28.87835
325.23        28.84114
325.68        28.83897
326.13        28.78307
326.59        28.64101
327.04        28.44812
327.49        28.24301
327.94        28.10027
328.39        28.03234
328.85         27.9996
329.30        27.96409
329.75        27.81991
330.20        27.54885
330.66        27.19205
331.11        26.82226
331.56        26.52815
332.01        26.33969
332.46        26.22845
332.92        26.17424
333.37          26.169
333.82        26.18804
334.27        26.23865
334.72        26.27937
335.17        26.24218
335.63        26.11174
336.08        25.90675
336.53        25.68041
336.98         25.5442
337.43        25.52842
337.88          25.605
338.34        25.71086
338.79        25.76282
339.24        25.73253
339.69        25.65555
340.14        25.56987
340.59        25.53898
341.05        25.58039
341.50        25.65755
341.95         25.7546
342.40        25.85777
342.85        25.94888
343.30        26.02589
343.75        26.04577
344.20        25.94151
344.66        25.72066
345.11        25.40884
345.56        25.07492
346.01        24.82559
346.46        24.70054
346.91        24.67731
347.36        24.73515
347.81        24.83986
348.26        24.96587
348.72         25.1055
349.17        25.23637
349.62        25.31928
350.07        25.33814
350.52        25.30224
350.97        25.20238
351.42          25.029
351.87        24.80148
352.32        24.54116
352.77         24.3191
353.22        24.24591
353.67        24.34146
354.13        24.56433
354.58        24.84514
355.03        25.06896
355.48          25.189
355.93        25.22665
356.38        25.18234
356.83        25.06482
357.28        24.88745
357.73        24.64682
358.18        24.38112
358.63        24.15462
359.08        23.98369
359.53        23.86115
359.98        23.75536
360.43        23.60744
360.88        23.40691
361.33        23.17756
361.78        22.95086
362.23        22.77467
362.68        22.66182
363.13        22.59522
363.58        22.55547
364.03         22.5128
364.48        22.45486
364.93        22.38729
365.38        22.31516
365.83        22.24782
366.28        22.18744
366.73        22.12818
367.18        22.06171
367.63        21.97758
368.08        21.87333
368.53        21.75251
368.98        21.62849
369.43        21.52071
369.88        21.43621
370.33        21.37543
370.78        21.32026
371.23        21.24075
371.68        21.13036
372.13         20.9918
372.58        20.85769
373.03        20.78247
373.48        20.76767
373.93        20.78727
374.38        20.78297
374.83         20.6609
375.28        20.41094
375.72        20.07686
376.17        19.73138
376.62        19.43674
377.07        19.21406
377.52        19.03518
377.97        18.92406
378.42        18.92033
378.87        19.01328
379.32        19.18495
379.77        19.33943
380.22        19.33303
380.67        19.14229
381.11        18.80553
381.56        18.43023
382.01        18.19911
382.46        18.16281
382.91        18.26955
383.36        18.42413
383.81        18.47927
384.26        18.39782
384.71        18.22351
385.15        18.02119
385.60        17.91641
386.05        17.92212
386.50        17.99251
386.95        18.05611
387.40        18.00709
387.85        17.83335
388.29        17.57685
388.74        17.32984
389.19         17.1559
389.64         17.0723
390.09        17.04739
390.54        17.07287
390.98         17.1333
391.43         17.2151
391.88        17.31371
392.33        17.38518
392.78        17.38564
393.23        17.31462
393.67        17.14689
394.12        16.94617
394.57        16.91678
395.02        16.82745
395.47        16.85488
395.91        16.89157
396.36         16.8693
396.81        16.77813
397.26        16.64385
397.71        16.50578
398.15        16.41164
398.60        16.39281
399.05        16.39446
399.50        16.38494
399.95        16.39146
400.39        16.32023
400.84        16.17968
401.29        15.98772
401.74        15.87665
402.18        15.87224
402.63        15.90736
403.08        15.96182
403.53        16.01606
403.97        16.05501
404.42         16.0852
404.87        16.08727
405.32        16.03055
405.76        15.91079
406.21        15.74235
406.66        15.57132
407.11        15.47411
407.55        15.47238
408.00        15.54846
408.45        15.64563
408.90        15.65625
409.34        15.55431
409.79        15.37255
410.24        15.19944
410.68        15.16907
411.13        15.30512
411.58        15.56067
412.03        15.83056
412.47         15.9371
412.92        15.82491
413.37        15.56695
413.81        15.26071
414.26         15.0735
414.71        15.03359
415.15        15.09648
415.60        15.20436
416.05        15.27969
416.49        15.29369
416.94        15.27755
417.39        15.24202
417.83        15.19731
418.28        15.15525
418.73        15.10051
419.17        15.05217
419.62        15.04682
420.07        15.08635
420.51        15.15948
420.96        15.22978
421.41         15.2307
421.85        15.14762
422.30        15.01935
422.74        14.87877
423.19        14.79868
423.64        14.78722
424.08        14.83134
424.53        14.89562
424.98        14.94487
425.42        14.96814
425.87         14.9676
426.31        14.94901
426.76        14.94544
427.21        14.91257
427.65        14.86628
428.10        14.81361
428.54        14.74541
428.99        14.67791
429.44        14.71386
429.88        14.79393
430.33        14.63651
430.77        14.34169
431.22        14.38987
431.66        14.75289
432.11        14.93366
432.56        14.86672
433.00        14.86106
433.45        14.89704
433.89        14.65046
434.34        14.27078
434.78         14.2513
435.23        14.53294
435.67        14.62378
436.12         14.5022
436.57        14.44955
437.01        14.49099
437.46        14.53814
437.90        14.58814
438.35        14.65664
438.79        14.72503
439.24        14.73845
439.68        14.71158
440.13        14.71796
440.57        14.72933
441.02        14.70717
441.46        14.65408
441.91        14.48238
442.35        14.27265
442.80        14.44334
443.24        14.86354
443.69         14.8158
444.13        14.35295
444.58        14.16573
445.02        14.25853
445.47        14.26168
445.91        14.17165
446.36        14.16834
446.80        14.24779
447.24        14.36452
447.69        14.48419
448.13        14.55375
448.58        14.56225
449.02        14.52685
449.47        14.48282
449.91        14.47689
450.36        14.52186
450.80        14.59907
451.25        14.68073
451.69        14.72147
452.13        14.70816
452.58        14.66394
453.02         14.6035
453.47        14.54833
453.91        14.50393
454.36        14.50629
454.80        14.48222
455.24        14.48196
455.69        14.48592
456.13        14.49389
456.58        14.51139
457.02         14.5316
457.46        14.55531
457.91        14.57854
458.35        14.59485
458.79        14.60225
459.24        14.60943
459.68        14.62438
460.13        14.64883
460.57         14.6179
461.01        14.64468
461.46        14.58609
461.90        14.51405
462.34        14.62175
462.79        14.84745
463.23        14.86814
463.68        14.69689
464.12        14.62874
464.56         14.6729
465.01         14.6797
465.45        14.63923
465.89         14.6019
466.34        14.59496
466.78        14.67361
467.22        14.84188
467.67        14.86586
468.11        14.74336
468.55        14.56301
468.99        14.39902
469.44        14.32805
469.88         14.3712
470.32        14.50934
470.77        14.67646
471.21        14.77839
471.65          14.782
472.10        14.72352
472.54        14.64408
472.98        14.62383
473.42        14.68021
473.87        14.78177
474.31        14.88988
474.75        14.95044
475.20        14.95395
475.64         14.9168
476.08        14.86314
476.52        14.82444
476.97        14.81234
477.41         14.8146
477.85        14.83203
478.29        14.86503
478.74        14.91518
479.18        14.97345
479.62        15.02641
480.06        15.08918
480.50        15.16602
480.95        15.11446
481.39        15.17521
481.83        15.22012
482.27        15.33213
482.72        15.37226
483.16        15.53025
483.60        15.60243
484.04        15.63798
484.48        15.63871
484.93        15.65316
485.37        15.76788
485.81        15.87429
486.25        16.11889
486.69        15.44524
487.14        15.69111
487.58        16.30589
488.02        16.34021
488.46        16.50865
488.90        16.37682
489.34        16.13153
489.79         16.1676
490.23        16.37112
490.67        16.61621
491.11        16.79576
491.55        16.79903
491.99        16.68284
492.43        16.72882
492.88        16.95117
493.32        17.15092
493.76        17.29929
494.20        17.47233
494.64        17.66684
495.08        17.85361
495.52        18.00415
495.96        18.12169
496.41        18.21084
496.85        18.16854
497.29        18.05266
497.73        18.27563
498.17        18.55844
498.61        18.60751
499.05        18.39244
499.49         18.3472
499.93        18.50685
500.37        18.69909
500.82        18.87562
501.26        19.00275
501.70        19.06353
502.14        19.09407
502.58        19.13129
503.02        19.21135
503.46         19.3458
503.90        19.52551
504.34        19.71375
504.78        19.84694
505.22        19.90736
505.66        19.90977
506.10        19.88114
506.54        19.88802
506.98        19.94924
507.42        20.00656
507.86        20.02299
508.30        20.16636
508.74        20.06154
509.18        20.02411
509.62        19.98035
510.06         19.9932
510.50        20.07325
510.94        20.20739
511.38        20.36383
511.82        20.47995
512.26        20.53594
512.70        20.54308
513.14        20.53116
513.58        20.54781
514.02        20.60439
514.46        20.68879
514.90         20.7639
515.34        20.77058
515.78        20.70049
516.22        20.57671
516.66        20.45691
517.10        20.42893
517.54        20.50842
517.98        20.66389
518.42        20.83388
518.86        20.91878
519.30        20.89249
519.74        20.78782
520.18        20.64945
520.62        20.54591
521.06        20.50053
521.50        20.49529
521.93        20.51601
522.37        20.53389
522.81        20.54074
523.25        20.54413
523.69        20.55297
524.13        20.57841
524.57        20.61889
525.01         20.6648
525.45        20.69327
525.89        20.67123
526.32        20.59141
526.76        20.47243
527.20        20.34216
527.64        20.24399
528.08        20.18915
528.52        20.16645
528.96        20.15809
529.40        20.13466
529.83        20.08607
530.27         20.0234
530.71        19.95541
531.15        19.89789
531.59        19.85425
532.03        19.81781
532.46        19.77792
532.90         19.7255
533.34        19.65961
533.78        19.59033
534.22        19.52674
534.66        19.48088
535.09        19.45416
535.53        19.44589
535.97        19.45537
536.41        19.48749
536.85        19.53716
537.28        19.59926
537.72        19.65368
538.16        19.67146
538.60        19.64911
539.04        19.60163
539.47         19.5428
539.91        19.51388
540.35        19.52098
540.79        19.55871
541.22        19.62887
541.66        19.73639
542.10        19.87363
542.54        20.03758
542.97        20.20772
543.41         20.3536
543.85        20.46766
544.29        20.56043
544.72        20.63544
545.16        20.71583
545.60        20.80752
546.04        20.89703
546.47        20.99665
546.91        21.15775
547.35        21.36592
547.79         21.5443
548.22        21.67415
548.66        21.84216
549.10        22.05228
549.53        22.18834
549.97        22.21995
550.41        22.55712
550.84        22.52571
551.28        22.63553
551.72        22.68986
552.15        22.89473
552.59        22.96623
553.03        23.12854
553.46        23.28629
553.90        23.41783
554.34        23.51237
554.77        23.60225
555.21        23.69152
555.65        23.72329
556.08         23.7227
556.52        23.80264
556.96        23.95048
557.39         24.0897
557.83        24.20762
558.27        24.29271
558.70        24.36413
559.14        24.48188
559.57        24.62622
560.01        24.75846
560.45        24.85755
560.88        24.82274
561.32         24.8121
561.75        24.83957
562.19        24.94241
562.63        25.00302
563.06        25.01729
563.50        25.06592
563.93         25.1444
564.37        25.23343
564.80        25.32476
565.24         25.4296
565.68        25.53823
566.11        25.65252
566.55        25.77127
566.98        25.85494
567.42        25.94527
567.85         26.0579
568.29        26.19667
568.72        26.42933
569.16        26.77191
569.60        26.68291
570.03        26.98092
570.47        27.12794
570.90         27.1659
571.34        27.30055
571.77        27.38258
572.21        27.47251
572.64        27.53703
573.08        27.66657
573.51        27.87819
573.95        27.95972
574.38        28.13019
574.82        28.17603
575.25        28.12622
575.69        28.06712
576.12        28.00375
576.56         28.2502
576.99        28.28505
577.42        28.28765
577.86        28.28131
578.29        28.20152
578.73        28.17447
579.16         28.0294
579.60        28.06289
580.03        27.96897
580.47        28.24025
580.90        28.10305
581.33        27.70724
581.77        27.80412
582.20        27.61167
582.64        27.43808
583.07        27.12808
583.51        26.93499
583.94        26.99835
584.37         26.9607
584.81        26.82463
585.24        26.88972
585.68         26.9848
586.11         26.8378
586.54        26.55137
586.98        26.60856
587.41         26.9605
587.85        26.71324
588.28        26.46462
588.71        26.72254
589.15        26.40383
589.58        26.41082
590.01        26.32058
590.45        26.27808
590.88        26.30614
591.31        26.33573
591.75        26.53801
592.18        26.65922
592.61        26.75286
593.05        26.59538
593.48        26.59855
593.91        26.78709
594.35        26.52343
594.78        26.60004
595.21        26.77324
595.65        26.91044
596.08        26.80772
596.51        27.10791
596.94        27.47162
597.38        27.80551
597.81        27.98364
598.24        28.15897
598.68        28.34949
599.11        28.62338
599.54        28.89476
599.97        29.08749
600.41        29.23854
600.84        29.42086
601.27        29.85389
601.70        30.24358
602.14        30.73426
602.57        31.04229
603.00         31.2265
603.43        31.52961
603.87         31.8568
604.30        32.38624
604.73        32.63847
605.16        32.98708
605.60        33.30772
606.03        33.85237
606.46         34.4726
606.89         34.8261
607.32        34.96376
607.76        35.22719
608.19        35.64548
608.62        35.97464
609.05         36.2542
609.48        36.64892
609.92        37.05815
610.35        37.42868
610.78        37.55725
611.21        37.39379
611.64        37.73953
612.07        38.17102
612.50        38.66277
612.94         38.6127
613.37         39.3656
613.80        39.52478
614.23        39.99271
614.66        40.25264
615.09        40.45736
615.52        40.61731
615.96        40.75427
616.39        40.90321
616.82        40.99268
617.25        41.40485
617.68         41.3545
618.11        41.70324
618.54        42.14269
618.97         42.3189
619.40        42.26985
619.84         42.3953
620.27        42.75324
620.70        43.08096
621.13        43.28815
621.56         43.5382
621.99         43.4951
622.42        43.35205
622.85         43.6818
623.28        43.49482
623.71        44.07914
624.14        43.22438
624.57        43.84226
625.00        43.71044
625.43        43.59817
625.86        43.46606
626.29        43.34032
626.72        43.23859
627.15        43.14191
627.58        43.06635
628.01         42.9854
628.44        42.86074
628.87        42.68076
629.30        42.46269
629.73        42.22813
630.16        41.98523
630.59        41.73605
631.02        41.57584
631.45        41.29767
631.88        41.02147
632.31        40.68371
632.74        40.29805
633.17        39.88265
633.60        39.47222
634.03         39.0786
634.46        38.69075
634.89         38.2978
635.32        37.88542
635.75        37.45176
636.18        37.00359
636.61        36.56169
637.04        36.16159
637.47        35.81939
637.89        35.50492
638.32        35.18072
638.75        34.89199
639.18        34.65001
639.61        34.11069
640.04        33.92533
640.47        33.64775
640.90        33.47066
641.33          33.368
641.76        33.30321
642.18        33.20787
642.61        33.04999
643.04        32.85704
643.47        32.68287
643.90        32.60156
644.33        32.62601
644.76        32.77544
645.18        32.97375
645.61        33.00549
646.04        32.82185
646.47        32.84057
646.90        33.04746
647.33        33.19492
647.75        33.27441
648.18         33.4495
648.61        33.72208
649.04        33.99726
649.47        34.27471
649.89        34.64776
650.32        35.07006
650.75        35.38786
651.18        35.64483
651.61        36.01995
652.03        36.53939
652.46        37.18499
652.89        37.82813
653.32        38.18618
653.74        38.38367
654.17        38.49141
654.60        38.76585
655.03        39.85492
655.46        39.83341
655.88        40.40806
656.31        42.57565
656.74        42.63324
657.16        41.98959
657.59        41.34372
658.02        41.83063
658.45        42.95388
658.87         43.2884
659.30        43.36786
659.73        44.07111
660.15        44.57579
660.58        44.83851
661.01        45.08394
661.44        45.24576
661.86        45.16638
662.29         44.9869
662.72         45.2235
663.14         45.8338
663.57        46.11711
664.00        46.08294
664.42        46.27358
664.85        46.71418
665.27        47.06997
665.70        47.31084
666.13        47.57355
666.55        47.85836
666.98        48.11853
667.41        48.33789
667.83        48.48615
668.26        48.55662
668.69        48.57483
669.11        48.58395
669.54        48.64376
669.96        48.77012
670.39        48.97155
670.82        49.21009
671.24        49.36153
671.67        49.42984
672.09        49.57882
672.52        49.80779
672.94        50.03269
673.37        49.86765
673.80        50.27986
674.22        50.17871
674.65        50.41071
675.07        50.68916
675.50        51.01863
675.92        51.34467
676.35         51.5718
676.77        51.69336
677.20        51.71985
677.62         51.7126
678.05        51.77199
678.47        51.91858
678.90        52.12322
679.32        52.33464
679.75        52.48125
680.17        52.53938
680.60        52.54493
681.02        52.52688
681.45        52.53225
681.87        52.58364
682.30        52.65503
682.72        52.75852
683.15        52.88203
683.57        53.03551
684.00        53.22186
684.42        53.42005
684.85        53.61028
685.27        53.78446
685.70        53.88651
686.12        53.95469
686.54        54.24653
686.97        54.68045
687.39        54.90446
687.82        54.88903
688.24        54.94698
688.66         55.0859
689.09        55.12475
689.51         55.0692
689.94        55.03831
690.36        55.05044
690.78         55.0421
691.21        55.05203
691.63        55.24294
692.06        55.56796
692.48        55.78833
692.90        55.88704
693.33        56.02685
693.75        56.19498
694.17        56.27147
694.60        56.29528
695.02        56.27479
695.44        56.19827
695.87        56.35747
696.29        56.76081
696.71        56.16868
697.14        56.19725
697.56        56.33258
697.98        56.94229
698.41        57.31764
698.83        57.41919
699.25        57.60975
699.68        57.84035
700.10        57.95822
700.52        57.94603
700.94         57.8269
701.37        57.63842
701.79        57.65393
702.21        57.59185
702.64         57.6792
703.06        57.81268
703.48        57.98518
703.90        58.18475
704.33        58.43164
704.75        58.67095
705.17        58.86166
705.59        58.96956
706.01        59.00221
706.44        59.00821
706.86         59.0637
707.28        59.17963
707.70        59.37434
708.12        59.60268
708.55        59.68073
708.97        59.62993
709.39        59.72657
709.81        59.97857
710.23        60.09701
710.66         60.0401
711.08        60.38692
711.50        60.35318
711.92        60.53511
712.34        60.70049
712.76        60.88265
713.19        61.02256
713.61        61.07607
714.03        61.02991
714.45        60.90086
714.87        60.77834
715.29         60.7994
715.71        60.98623
716.13        61.29293
716.56        61.61329
716.98        61.83818
717.40        61.89736
717.82        61.83293
718.24        61.68458
718.66        61.57228
719.08        61.54144
719.50        61.46327
719.92        61.32416
720.34           61.63
720.76        61.53954
721.19        61.71816
721.61        61.88728
722.03        61.98915
722.45        61.99841
722.87         61.9375
723.29        61.85653
723.71        61.81586
724.13        61.83554
724.55        61.91391
724.97        62.02235
725.39        62.07265
725.81        62.04852
726.23        62.12891
726.65        62.08741
727.07        62.20094
727.49        62.39761
727.91        62.63984
728.33        62.87975
728.75        63.08955
729.17        63.25474
729.59        63.31276
730.01        63.21314
730.43        63.31545
730.85        62.94266
731.27         62.6833
731.69        62.45153
732.10        62.45425
732.52        62.71642
732.94        63.18859
733.36        63.74704
733.78        64.13082
734.20        64.25612
734.62        64.22017
735.04        64.10853
735.46        63.99763
735.88        63.96943
736.30         64.1155
736.72        64.36855
737.13        64.54893
737.55        64.54317
737.97        64.34388
738.39         64.0464
738.81        63.80482
739.23        63.71651
739.65        63.93837
740.06         64.3158
740.48         64.4603
740.90        64.31385
741.32        64.08672
741.74        63.88923
742.16         63.8264
742.57        63.95146
742.99        64.19622
743.41        64.49398
743.83        64.75999
744.25        64.94429
744.67        65.00623
745.08        64.98833
745.50        65.01521
745.92         65.1147
746.34         65.2058
746.75         65.2836
747.17        65.37007
747.59         65.4639
748.01        65.57429
748.42        65.66832
748.84        65.68147
749.26        65.62951
749.68        65.46839
750.09        65.26759
750.51        65.35603
750.93        65.64333
751.35         65.6386
751.76        65.38905
752.18        65.36864
752.60        65.59339
753.01        65.79454
753.43        65.90488
753.85        65.96404
754.27        65.96832
754.68         65.9621
755.10        65.96537
755.52        65.94783
755.93        65.93814
756.35         66.0343
756.77         66.2645
757.18        66.50797
757.60        66.75088
758.02        67.11984
758.43        67.75135
758.85        67.35509
759.26        66.30327
759.68         65.9351
760.10        66.32616
760.51        66.69187
760.93        66.87627
761.34         66.9334
761.76        66.84872
762.18        66.85208
762.59        66.94043
763.01        66.68517
763.42        66.20509
763.84        66.01596
764.26        66.19379
764.67        66.34874
765.09        66.48838
765.50        66.97751
765.92        67.70107
766.33        67.73077
766.75        67.64941
767.16        67.52687
767.58        67.55774
768.00        67.36617
768.41        66.78357
768.83        66.96385
769.24        67.59019
769.66        67.58427
770.07        66.99139
770.49        66.60059
770.90        66.57325
771.32        66.93192
771.73        67.53133
772.15        67.75343
772.56        67.53812
772.97        67.49046
773.39        67.25826
773.80        67.33364
774.22        67.58057
774.63        68.01888
775.05        68.46249
775.46        68.70026
775.88         68.6463
776.29        68.40714
776.70        68.06901
777.12        67.79674
777.53         67.6525
777.95        67.56787
778.36        67.57258
778.77        67.67171
779.19        67.85018
779.60        68.23643
780.02        68.66563
780.43        68.75232
780.84        68.54966
781.26         68.3861
781.67        68.40625
782.09        68.83612
782.50        69.52146
782.91         69.6442
783.33        69.36015
783.74         69.1048
784.15        68.95717
784.57        68.50318
784.98        67.92506
785.39        67.73309
785.81        67.99352
786.22        68.59024
786.63        69.32396
787.04        69.77416
787.46         69.8959
787.87        69.99087
788.28        70.12095
788.70        70.15986
789.11        70.12765
789.52        70.17966
789.93        70.26875
790.35        70.15747
790.76        69.89755
791.17        69.77297
791.58        69.83641
792.00        69.90249
792.41        69.98053
792.82        70.26711
793.23        70.67027
793.65        70.71586
794.06        70.49522
794.47        70.63462
794.88        71.03549
795.29        71.07823
795.71        70.71708
796.12        70.32333
796.53        70.03938
796.94        69.97452
797.35        70.18604
797.76        70.64317
798.18        71.16178
798.59        71.48149
799.00        71.50848
799.41        71.32207
799.82        71.03218
800.23        70.83503
800.64        70.79929
801.06        70.83592
801.47        70.95779
801.88        71.11544
802.29        71.27156
802.70        71.42406
803.11        71.54257
803.52        71.56961
803.93        71.51263
804.34        71.40478
804.75        71.23456
805.17        71.09367
805.58        71.05851
805.99        70.77881
806.40        70.42477
806.81        71.03799
807.22        72.27865
807.63        72.30441
808.04        71.24586
808.45        70.95528
808.86        71.56184
809.27        71.98691
809.68        72.07647
810.09        72.11897
810.50        72.08588
810.91        71.89488
811.32        71.67963
811.73        71.65675
812.14         71.8672
812.55        72.26727
812.96        72.70009
813.37        72.85938
813.78        72.67534
814.19        72.27612
814.60        71.82275
815.01        71.53644
815.42        71.47395
815.83         71.5534
816.24        71.75095
816.65        72.01519
817.05        72.28958
817.46        72.54758
817.87        72.71503
818.28        72.62393
818.69        72.26398
819.10        71.68494
819.51        71.05074
819.92        70.68124
820.33        70.68199
820.74        70.95683
821.14        71.39268
821.55        71.81213
821.96         72.1364
822.37        72.42358
822.78        72.61633
823.19        72.61475
823.60        72.40961
824.00        72.00883
824.41        71.56158
824.82        71.34882
825.23        71.42845
825.64        71.74935
826.04         72.1527
826.45        72.26492
826.86        72.02374
827.27        71.54771
827.68        71.04168
828.08        70.85043
828.49        71.01852
828.90        71.47111
829.31        72.07631
829.72        72.60793
830.12        73.00008
830.53        73.22675
830.94        73.37118
831.35        73.53043
831.75        73.74768
832.16        73.91317
832.57        73.96855
832.97        73.79198
833.38        73.39074
833.79        72.88577
834.20            72.4
834.60        72.07829
835.01        71.99177
835.42        72.06533
835.82        72.33707
836.23        72.79686
836.64        73.41357
837.04        74.18845
837.45         74.8324
837.86         75.0311
838.26        74.71447
838.67         73.9968
839.08        73.11961
839.48        72.44306
839.89        72.12646
840.29        72.07658
840.70        72.24741
841.11        72.56636
841.51        73.00109
841.92        73.53404
842.33        74.09549
842.73        74.54157
843.14        74.76759
843.54        74.81364
843.95        74.73068
844.35        74.68822
844.76        74.70847
845.17         74.7376
845.57        74.75146
845.98        74.67566
846.38         74.5126
846.79        74.29713
847.19        74.01841
847.60        73.60215
848.00        73.08749
848.41        72.52126
848.81        72.05507
849.22        71.90285
849.62        72.13245
850.03         72.6376
850.43        73.31519
850.84        73.77818
851.24        73.96378
851.65        73.85726
852.05        73.61574
852.46        73.45045
852.86        73.40878
853.27        73.49446
853.67        73.50449
854.07        73.35338
854.48        72.97646
854.88        72.42416
855.29        71.81625
855.69        71.60756
856.10        71.82671
856.50        72.45957
856.90        73.09892
857.31        73.16364
857.71        72.59331
858.12        71.52163
858.52        70.40403
858.92        69.95679
859.33        70.35016
859.73         71.4084
860.13        72.69435
860.54        73.49876
860.94         73.6486
861.34         73.2513
861.75        72.55177
862.15        72.04133
862.55         71.8479
862.96        71.85078
863.36        71.80463
863.76        71.35634
864.17        70.49058
864.57        69.40896
864.97         68.4245
865.38        67.93894
865.78        68.07166
866.18        68.66572
866.58        69.55603
866.99        70.36988
867.39        70.97013
867.79        71.42168
868.19        71.64748
868.60        71.54884
869.00        71.16197
869.40        70.47449
869.80        69.84835
870.21        69.91256
870.61        70.81232
871.01        72.31599
871.41         73.8262
871.81        74.38668
872.22        73.77566
872.62        72.28123
873.02        70.46156
873.42        69.25532
873.82        68.96883
874.22        69.38283
874.63        70.08753
875.03         70.4413
875.43        70.28176
875.83        69.79745
876.23        69.39738
876.63        69.73678
877.03        70.91485
877.44         72.6139
877.84        74.28119
878.24        74.94878
878.64         74.4206
879.04        73.07862
879.44        71.48528
879.84        70.45346
880.24        70.19382
880.64         70.4437
881.04        71.02529
881.44        71.63664
881.84        72.14119
882.24        72.66811
882.65        73.05762
883.05        73.15501
883.45        72.89429
883.85        72.31973
884.25        71.73344
884.65        71.63203
885.05        72.09278
885.45         72.9355
885.85        73.88574
886.25        74.46049
886.65         74.4826
887.05        74.11026
887.45        73.39454
887.85        72.44118
888.25        71.41805
888.65        70.39428
889.04         69.5658
889.44        69.25333
889.84        69.44547
890.24        70.07736
890.64        71.02241
891.04        71.94763
891.44        72.64337
891.84        73.12935
892.24        73.39169
892.64        73.46722
893.04        73.40519
893.44         73.1935
893.83        72.95213
894.23        72.83176
894.63        72.91635
895.03        73.17595
895.43        73.52902
895.83        73.83759
896.23        74.03898
896.63        74.12762
897.02        74.11842
897.42        74.09734
897.82        74.06395
898.22        74.04758
898.62         73.9119
899.01        73.45359
899.41        72.67097
899.81        71.65404
900.21        70.79373
900.61        70.67725
901.00        71.37982
901.40        72.71792
901.80        74.12805
902.20        74.67325
902.59        74.13087
902.99        72.78973
903.39        71.23035
903.79        70.34013
904.18        70.33502
904.58        70.96969
904.98        71.82525
905.38        72.25552
905.77        72.06747
906.17        71.47327
906.57        70.79376
906.96        70.55038
907.36        70.83173
907.76        71.48147
908.15        72.15663
908.55        72.18116
908.95        71.48933
909.34         70.3288
909.74         69.2338
910.14        68.87168
910.53        69.42765
910.93        70.62121
911.33        72.17049
911.72        73.64162
912.12        74.75703
912.52        75.63167
912.91        76.23655
913.31        76.51826
913.70        76.48851
914.10          76.087
914.49        75.41693
914.89           74.65
915.29        73.89017
915.68        73.18938
916.08        72.60043
916.47        72.03716
916.87        71.55712
917.26         71.1551
917.66        70.99071
918.05        71.33376
918.45        72.14247
918.84        73.35011
919.24        74.51527
919.64        75.04069
920.03        74.77985
920.42        73.89647
920.82        72.80833
921.21        72.07126
921.61        71.86165
922.00        72.03365
922.40        72.42734
922.79        72.85043
923.19        73.16335
923.58         73.4491
923.98        73.66602
924.37        73.74505
924.77        73.67805
925.16        73.47836
925.55        73.18701
925.95        72.90157
926.34        72.68732
926.74        72.51659
927.13        72.42944
927.52         72.4423
927.92        72.55062
928.31        72.72659
928.70          72.903
929.10        72.95425
929.49        72.84276
929.89        72.55888
930.28        72.17699
930.67        71.76554
931.07        71.37653
931.46        71.04685
931.85        70.75991
932.24        70.47768
932.64        70.22636
933.03        70.05696
933.42        70.07018
933.82        70.40688
934.21         71.0825
934.60        71.94239
934.99         72.8873
935.39         73.7503
935.78        74.48598
936.17        75.09617
936.56        75.28806
936.96        74.65441
937.35        73.24579
937.74        71.30626
938.13        69.50262
938.53        68.67036
938.92        68.90541
939.31        70.04314
939.70        71.56416
940.09        72.43412
940.49        72.29209
940.88         71.4316
941.27        70.37669
941.66        69.92505
942.05        70.26476
942.44        71.18709
942.84        72.20669
943.23        72.54607
943.62        71.94803
944.01        70.68481
944.40        69.43436
944.79         69.1695
945.18        70.07041
945.57         71.8562
945.97        73.72443
946.36        74.52229
946.75        73.82695
947.14        72.03419
947.53        70.01426
947.92        69.07667
948.31        69.54282
948.70        71.05988
949.09        72.89416
949.48        73.72044
949.87        73.14932
950.26        71.62972
950.65        69.94809
951.04         69.1806
951.43        69.56573
951.82        70.79649
952.21        72.25569
952.60        72.84121
952.99        72.22694
953.38         70.7782
953.77        69.24905
954.16        68.62379
954.55        69.09293
954.94        70.45435
955.33        72.00549
955.72        72.28226
956.11        70.87965
956.50        68.38549
956.89        65.97833
957.28        65.16151
957.66        66.24499
958.05        68.72753
958.44        71.77483
958.83        73.64018
959.22        73.65181
959.61         72.3607
960.00         70.5968
960.39        69.42941
960.78         69.0892
961.16        69.27242
961.55        69.58117
961.94        69.38994
962.33        68.54958
962.72        67.44903
963.11        66.46774
963.49        66.04464
963.88        66.25797
964.27        66.90864
964.66        67.86282
965.04        68.94536
965.43        69.92552
965.82        70.85425
966.21        71.53177
966.60        71.61693
966.98        71.11216
967.37        70.19434
967.76        69.19762
968.15        68.57315
968.53        68.40361
968.92        68.51296
969.31        68.93551
969.69        69.71418
970.08        70.71326
970.47         72.0332
970.86        73.11154
971.24        73.00723
971.63        71.58574
972.02        69.20857
972.40        66.92709
972.79        66.40424
973.17        67.90833
973.56        70.82105
973.95        74.19721
974.33        76.20915
974.72        76.16814
975.11         74.6771
975.49        72.52917
975.88        71.25526
976.26         71.2535
976.65         71.9952
977.04        73.10171
977.42        73.90085
977.81        73.98198
978.19        73.72404
978.58         73.2395
978.96        72.54957
979.35        71.79501
979.74        70.94429
980.12        70.28841
980.51         70.3148
980.89        71.16654
981.28        72.54274
981.66        74.24512
982.05        75.62598
982.43        76.55073
982.82        77.10955
983.20        77.12612
983.59        76.24577
983.97        74.59633
984.35         72.3601
984.74        70.44261
985.12        70.07687
985.51        71.37102
985.89        74.05182
986.28        77.02463
986.66        78.79813
987.04         78.7094
987.43        77.16181
987.81        74.81478
988.20        73.14802
988.58        72.58003
988.96        72.83192
989.35        73.02583
989.73        71.97267
990.12        69.41683
990.50        65.92835
990.88        62.65157
991.27        61.35498
991.65        62.36648
992.03        65.15134
992.42         68.5612
992.80        71.15661
993.18         72.3715
993.56        72.50447
993.95         72.0416
994.33        72.10902
994.71        72.95303
995.10        74.26595
995.48        75.35458
995.86        75.31837
996.24        74.03114
996.63         71.7041
997.01         69.3844
997.39        68.72582
997.77        70.13919
998.15        73.11335
998.54        76.25385
998.92        77.41965
999.30        76.09918
999.68        72.88083
1000.06         69.0523
1000.45        67.06328
1000.83        67.79911
1001.21        70.47124
1001.59        73.98717
1001.97         76.5484
1002.35        77.51473
1002.73        77.45512
1003.12        76.62602
1003.50        75.31545
1003.88        73.82047
1004.26        72.04225
1004.64        70.39149
1005.02         69.6657
1005.40        70.00724
1005.78        71.16058
1006.16        72.67957
1006.54        73.90555
1006.92        74.63936
1007.30        75.02995
1007.69        74.97056
1008.07        74.40188
1008.45        73.36201
1008.83        71.95617
1009.21        70.52663
1009.59          69.675
1009.97        69.54798
1010.35         69.8786
1010.73        70.71674
1011.11        72.06928
1011.49        73.71469
1011.86        75.68281
1012.24         76.9016
1012.62         75.9233
1013.00        72.49934
1013.38        66.85558
1013.76        60.52671
1014.14        56.89468
1014.52        57.31191
1014.90        61.10008
1015.28        66.19498
1015.66        69.19599
1016.04        69.17133
1016.41        67.09888
1016.79        64.15878
1017.17        62.75821
1017.55        63.57035
1017.93        65.38673
1018.31        67.46441
1018.69        69.43864
1019.06        71.47044
1019.44         73.8904
1019.82        76.79107
1020.20        79.10009
1020.58        79.72117
1020.95        78.60764
1021.33        76.50795
1021.71        74.14037
1022.09        71.42797
1022.46        67.75234
1022.84         63.5428
1023.22        60.09149
1023.60        58.75738
1023.97        59.61615
1024.35        61.29745
1024.73        62.19711
