SpectraSmart Spectrum 2.9.0.0
--------- Device Information -----------
Spectrum Name :  反射率_0
Saving Time :  2024/04/30 01:15:20
Spectro-Module Model Name : SE2030-DUVN
Spectro-Module Serial Number : OS361AC55029948
Wavelength Start : 200
Wavelength End : 1025
Wavelength Unit : Wavelength(nm)
Spectrum Unit : Reflectance(%)
-----------Spectrum Setting ------------
Integration Time : 20ms
Average : 10
Boxcar : 0
Background removal :  enabled
linearity correction :  enabled
SC :  disabled
Intensity correction :  disabled
DWT denoise :  enabled
savitzky-golay :  disabled
FFT :  disabled
Running average :  disabled
Kalman :  disabled
High pass :  disabled
---------------BEGIN--------------------
Wavelength(nm)             Reflectance(%)
200.29               0
200.75         47.0355
201.21        38.03548
201.67        26.67889
202.13        15.54037
202.58        6.404742
203.04       -1.181135
203.50        -4.38901
203.96        2.889781
204.42        21.47499
204.88         47.8893
205.34         73.0443
205.80        83.54861
206.26         79.6308
206.72        69.58557
207.18        58.06315
207.64        47.12698
208.10        36.52177
208.55        24.44297
209.01        13.89108
209.47         13.0801
209.93         22.2925
210.39        36.65485
210.85        48.91135
211.31        53.12321
211.77        48.97721
212.23        36.28121
212.69        16.71507
213.14        4.887519
213.60        9.715652
214.06        23.55374
214.52        36.60107
214.98        42.36111
215.44        41.69137
215.90        37.43795
216.36        31.93548
216.81        29.26935
217.27        31.86493
217.73        39.13805
218.19        51.05933
218.65        63.06321
219.11        69.43642
219.57        70.03261
220.02        67.89484
220.48        66.52863
220.94        65.94215
221.40        65.26875
221.86        62.40251
222.32        54.49657
222.77        44.27916
223.23        36.27505
223.69         31.4394
224.15        29.15851
224.61        28.51979
225.06        28.95389
225.52        30.85481
225.98        33.99498
226.44        37.31008
226.90        40.22294
227.36        42.03785
227.81        42.47393
228.27          41.816
228.73        40.09426
229.19        38.15656
229.65        37.80575
230.10        39.20615
230.56        41.42957
231.02        43.15756
231.48        43.20895
231.93        41.59019
232.39        38.82933
232.85        35.71254
233.31        33.79414
233.77        33.64409
234.22        34.97459
234.68        36.92205
235.14        37.87534
235.60        37.37558
236.05        35.90851
236.51        34.59951
236.97        34.92672
237.43          37.323
237.88        41.89835
238.34         47.7252
238.80        51.76777
239.26        51.84475
239.71        48.55894
240.17        44.06875
240.63        41.59573
241.08        42.07795
241.54        45.65447
242.00         52.7271
242.46        59.88229
242.91        61.96116
243.37        58.16856
243.83        52.45853
244.28        49.87797
244.74        50.90018
245.20        54.21286
245.66        58.23514
246.11        59.25143
246.57        55.65497
247.03        49.11656
247.48        41.07122
247.94        35.15862
248.40          33.545
248.85        34.16613
249.31        36.44454
249.77          40.382
250.22        46.59888
250.68        57.07032
251.14        71.84857
251.59        79.78963
252.05         73.2209
252.51        61.01055
252.96        51.30961
253.42        46.72328
253.88        45.40718
254.33        45.71146
254.79        46.96359
255.25        47.31278
255.70        46.45185
256.16        45.66249
256.62        45.24553
257.07        45.31964
257.53        46.06007
257.99        47.08483
258.44        47.99312
258.90        48.80038
259.35        49.05982
259.81        49.12173
260.27        48.99184
260.72        48.72665
261.18        48.48326
261.63        48.03806
262.09        47.46779
262.55        46.60302
263.00        45.47929
263.46        44.39302
263.91        43.30389
264.37        42.38563
264.83        41.57616
265.28        40.77425
265.74         40.1556
266.19        39.78394
266.65        39.69473
267.11        39.79354
267.56        39.85295
268.02        39.54401
268.47        38.79374
268.93          37.708
269.38        36.48558
269.84        35.59328
270.30        35.14384
270.75        35.00949
271.21        34.96986
271.66        34.67597
272.12        34.05287
272.57        33.19247
273.03        32.28577
273.48        31.54748
273.94        31.08941
274.39        30.78979
274.85        30.55798
275.31        30.20664
275.76        29.68493
276.22        29.08296
276.67          28.472
277.13        28.03428
277.58        27.74652
278.04        27.57617
278.49        27.36697
278.95        26.98583
279.40        26.38166
279.86        25.69127
280.31        24.99043
280.77        24.49793
281.22        24.22115
281.68        24.11367
282.13        24.10485
282.59        24.13971
283.04        24.16489
283.50        24.18584
283.95        24.15243
284.41        23.99441
284.86        23.70464
285.32        23.35219
285.77        22.95737
286.22        22.61964
286.68        22.37543
287.13        22.16035
287.59        22.03273
288.04        22.02427
288.50         22.1305
288.95        22.30623
289.41        22.43713
289.86        22.31574
290.32        21.94341
290.77        21.39303
291.22        20.82233
291.68        20.48421
292.13        20.43636
292.59         20.6143
293.04         20.9587
293.50        21.39881
293.95        21.89099
294.40        22.46303
294.86        23.02927
295.31        23.47064
295.77        23.76463
296.22        23.92361
296.68        24.07596
297.13        24.41289
297.58        24.97441
298.04        25.66557
298.49        26.35376
298.95        26.82285
299.40        27.02158
299.85        27.02973
300.31         26.9381
300.76        26.83302
301.21        26.78395
301.67        26.77272
302.12        26.78996
302.58        26.95827
303.03        27.27251
303.48        27.56249
303.94        27.74289
304.39        28.43928
304.84        28.35866
305.30        28.53137
305.75        28.60082
306.20        28.66987
306.66        28.75575
307.11        28.84133
307.57        28.90946
308.02        28.86792
308.47         28.7227
308.93        28.50998
309.38        28.29739
309.83        28.23289
310.29        28.33549
310.74        28.55138
311.19        28.75855
311.65        28.76234
312.10        28.52517
312.55        28.11584
313.00        27.66392
313.46        27.37193
313.91        27.27794
314.36        27.31728
314.82        27.39813
315.27        27.39168
315.72        27.24668
316.18        27.01902
316.63        26.72893
317.08        26.41574
317.53        26.11006
317.99        25.80985
318.44        25.54175
318.89        25.35515
319.35        25.25608
319.80         25.2277
320.25        25.25257
320.70         25.2982
321.16        25.33214
321.61        25.36423
322.06        25.34544
322.51        25.20935
322.97        24.95036
323.42        24.59848
323.87        24.21921
324.32        23.92181
324.78        23.72991
325.23        23.62902
325.68        23.58201
326.13        23.52325
326.59        23.42447
327.04         23.3163
327.49        23.19835
327.94        23.07946
328.39        22.95912
328.85        22.81291
329.30        22.66011
329.75        22.50829
330.20        22.36374
330.66        22.23025
331.11        22.09709
331.56        21.92261
332.01        21.70319
332.46        21.45023
332.92        21.20643
333.37        21.06837
333.82          21.052
334.27        21.13074
334.72        21.23932
335.17        21.26671
335.63        21.18275
336.08        21.02936
336.53        20.84454
336.98        20.70779
337.43        20.64654
337.88        20.62671
338.34        20.64572
338.79        20.72298
339.24        20.84196
339.69        21.00843
340.14        21.15248
340.59        21.15652
341.05        21.00291
341.50        20.71912
341.95        20.42053
342.40        20.29741
342.85        20.38495
343.30        20.62274
343.75        20.87555
344.20        20.92489
344.66        20.73155
345.11        20.36597
345.56        19.95015
346.01        19.67513
346.46        19.59881
346.91         19.6575
347.36        19.78947
347.81        19.90579
348.26        19.97148
348.72        20.01112
349.17         20.0251
349.62        20.01175
350.07        19.97422
350.52        19.90917
350.97        19.82166
351.42        19.72361
351.87        19.62834
352.32        19.54821
352.77        19.50259
353.22        19.51805
353.67        19.59514
354.13        19.71227
354.58         19.8569
355.03        20.01074
355.48        20.15224
355.93        20.27691
356.38        20.33757
356.83        20.26734
357.28        20.06728
357.73        19.76751
358.18        19.44822
358.63        19.23617
359.08        19.16072
359.53        19.18428
359.98        19.24957
360.43        19.26066
360.88        19.18767
361.33        19.06186
361.78        18.90221
362.23        18.73749
362.68        18.58453
363.13        18.43657
363.58        18.30442
364.03        18.20791
364.48        18.14939
364.93        18.12293
365.38        18.12176
365.83        18.13193
366.28        18.14269
366.73        18.15206
367.18        18.14078
367.63        18.08121
368.08        17.97066
368.53        17.81864
368.98        17.65273
369.43        17.51907
369.88        17.43235
370.33        17.38247
370.78        17.35295
371.23        17.31529
371.68        17.25644
372.13        17.17896
372.58        17.08913
373.03        16.99643
373.48        16.90229
373.93        16.80569
374.38        16.68987
374.83        16.53062
375.28        16.33533
375.72        16.11668
376.17        15.93241
376.62        15.83189
377.07        15.81791
377.52        15.86214
377.97        15.93204
378.42        15.97242
378.87        15.96398
379.32        15.92835
379.77        15.85504
380.22        15.73032
380.67        15.55879
381.11        15.33572
381.56        15.12785
382.01        15.04279
382.46        15.10071
382.91         15.2791
383.36        15.46531
383.81        15.48437
384.26        15.30754
384.71        14.98357
385.15        14.64773
385.60        14.53941
386.05         14.6867
386.50        15.00351
386.95        15.32837
387.40        15.40972
387.85        15.20495
388.29        14.81213
388.74        14.38927
389.19         14.0969
389.64        13.97716
390.09        13.96789
390.54        14.04186
390.98        14.15412
391.43        14.27468
391.88        14.41047
392.33        14.51581
392.78        14.53815
393.23         14.4769
393.67        14.31297
394.12        14.10951
394.57        14.05464
395.02        13.95968
395.47        13.96424
395.91         13.9798
396.36        13.94872
396.81        13.86255
397.26        13.74787
397.71        13.62449
398.15        13.51109
398.60        13.43594
399.05        13.36208
399.50        13.29072
399.95        13.28274
400.39          13.267
400.84        13.23765
401.29        13.17871
401.74        13.14355
402.18         13.1347
402.63        13.11017
403.08        13.07959
403.53        13.06854
403.97        13.07697
404.42         13.0995
404.87        13.10433
405.32        13.04057
405.76        12.90052
406.21        12.70898
406.66        12.52314
407.11        12.43344
407.55        12.46264
408.00        12.58453
408.45        12.73275
408.90        12.78518
409.34        12.70721
409.79        12.53378
410.24        12.34976
410.68        12.28442
411.13        12.36405
411.58        12.54575
412.03        12.73752
412.47        12.78591
412.92        12.64549
413.37        12.38278
413.81        12.08968
414.26        11.91973
414.71        11.89626
415.15        11.97728
415.60         12.0973
416.05        12.16454
416.49        12.14799
416.94        12.08157
417.39        11.99117
417.83        11.91376
418.28        11.86645
418.73        11.82566
419.17        11.79522
419.62        11.78533
420.07        11.79305
420.51        11.81983
420.96        11.83906
421.41        11.80046
421.85        11.69807
422.30        11.56378
422.74        11.43494
423.19        11.38666
423.64        11.42593
424.08        11.53469
424.53         11.6679
424.98        11.76931
425.42        11.81556
425.87        11.80917
426.31        11.75964
426.76        11.70405
427.21        11.61542
427.65        11.51319
428.10        11.40101
428.54        11.26763
428.99         11.1342
429.44        11.08181
429.88        11.09527
430.33        11.00909
430.77        10.89126
431.22        11.08168
431.66        11.51366
432.11        11.70548
432.56        11.57715
433.00        11.40533
433.45        11.22168
433.89        10.85137
434.34        10.46662
434.78        10.45872
435.23        10.74592
435.67        10.86217
436.12        10.76992
436.57        10.72504
437.01        10.75732
437.46         10.8024
437.90        10.85953
438.35         10.9318
438.79        10.99177
439.24        10.98015
439.68        10.90716
440.13        10.83743
440.57        10.76743
441.02        10.69941
441.46        10.64416
441.91        10.52809
442.35        10.39925
442.80        10.54849
443.24        10.87489
443.69        10.85491
444.13        10.52122
444.58        10.37356
445.02        10.41467
445.47         10.3786
445.91        10.26736
446.36        10.22038
446.80         10.2396
447.24        10.29202
447.69        10.36136
448.13         10.4235
448.58        10.46834
449.02        10.50122
449.47        10.52836
449.91        10.55363
450.36        10.57891
450.80        10.60076
451.25        10.61049
451.69        10.59655
452.13        10.55666
452.58        10.50233
453.02        10.44586
453.47        10.40621
453.91        10.38571
454.36        10.41091
454.80        10.41846
455.24        10.42537
455.69        10.41359
456.13        10.38623
456.58        10.36188
457.02        10.35868
457.46         10.3822
457.91         10.4228
458.35        10.46011
458.79        10.46665
459.24        10.44632
459.68        10.41417
460.13        10.39226
460.57        10.36387
461.01        10.41601
461.46        10.43399
461.90         10.4508
462.34        10.57515
462.79        10.75349
463.23        10.76002
463.68        10.61371
464.12         10.5449
464.56         10.5652
465.01        10.56156
465.45        10.52336
465.89        10.48251
466.34        10.45797
466.78        10.49299
467.22        10.59256
467.67        10.59292
468.11        10.49429
468.55        10.35912
468.99        10.24168
469.44          10.198
469.88        10.24207
470.32         10.3603
470.77        10.50043
471.21         10.5905
471.65        10.60355
472.10        10.56672
472.54        10.51241
472.98        10.50587
473.42        10.56066
473.87        10.65097
474.31        10.74447
474.75        10.79267
475.20        10.78889
475.64        10.75075
476.08        10.70176
476.52        10.67165
476.97        10.67002
477.41        10.68686
477.85        10.72654
478.29        10.76887
478.74        10.85323
479.18        10.94028
479.62        11.01338
480.06        11.05368
480.50        11.06295
480.95        10.94813
481.39        10.91467
481.83        10.92141
482.27        11.03844
482.72        11.14904
483.16         11.3567
483.60        11.46161
484.04        11.49262
484.48        11.44867
484.93        11.37968
485.37        11.44729
485.81        11.59786
486.25        11.65366
486.69        11.18119
487.14        11.39309
487.58        12.06757
488.02         11.8631
488.46        12.04142
488.90        12.33664
489.34        11.71958
489.79        11.72934
490.23        11.91811
490.67        12.17958
491.11        12.39434
491.55        12.38563
491.99        12.22948
492.43        12.27392
492.88        12.53733
493.32          12.772
493.76         12.9314
494.20        13.08717
494.64        13.23101
495.08        13.33438
495.52        13.39519
495.96        13.45058
496.41        13.51333
496.85        13.50023
497.29        13.44011
497.73        13.61622
498.17        13.81552
498.61        13.82876
499.05        13.64666
499.49        13.61011
499.93        13.74971
500.37        13.93093
500.82        14.10728
501.26        14.23868
501.70        14.30702
502.14        14.34274
502.58        14.38035
503.02        14.45782
503.46        14.58638
503.90        14.75573
504.34        14.92988
504.78        15.04769
505.22        15.09313
505.66        15.08177
506.10        15.04537
506.54        15.05208
506.98        15.11987
507.42        15.19895
507.86         15.2491
508.30        15.37856
508.74        15.29671
509.18        15.25084
509.62        15.19436
510.06        15.19106
510.50        15.25276
510.94        15.36296
511.38        15.49405
511.82        15.59171
512.26        15.63988
512.70        15.65494
513.14          15.654
513.58        15.66411
514.02        15.69428
514.46        15.73347
514.90        15.77762
515.34        15.82217
515.78        15.86262
516.22        15.90046
516.66        15.93043
517.10        15.94265
517.54        15.93561
517.98        15.91193
518.42        15.87655
518.86        15.83884
519.30        15.80317
519.74        15.76859
520.18        15.73778
520.62        15.71282
521.06          15.695
521.50        15.68772
521.93        15.68669
522.37        15.67913
522.81        15.66434
523.25        15.64182
523.69        15.62445
524.13        15.63335
524.57         15.6684
525.01        15.71949
525.45        15.75997
525.89        15.74772
526.32        15.67302
526.76        15.55538
527.20        15.42224
527.64        15.31598
528.08        15.24928
528.52        15.21238
528.96        15.19213
529.40        15.16673
529.83        15.12846
530.27        15.08554
530.71        15.04487
531.15        15.01844
531.59        15.00665
532.03        15.00179
532.46        14.99013
532.90        14.95645
533.34        14.89885
533.78        14.82836
534.22        14.75702
534.66        14.70161
535.09        14.66689
535.53        14.65285
535.97        14.65934
536.41         14.6907
536.85        14.74186
537.28        14.80674
537.72        14.86957
538.16        14.90882
538.60        14.91945
539.04        14.91228
539.47        14.88733
539.91        14.86168
540.35         14.8403
540.79        14.82644
541.22        14.83999
541.66        14.91475
542.10        15.05031
542.54         15.2325
542.97        15.43128
543.41        15.59864
543.85        15.72171
544.29         15.8171
544.72        15.88577
545.16        15.94449
545.60         16.0005
546.04        16.04214
546.47        16.09632
546.91        16.23147
547.35         16.4397
547.79        16.65287
548.22        16.82927
548.66        16.99337
549.10        17.14198
549.53        17.19988
549.97        17.16953
550.41        17.40933
550.84        17.40978
551.28        17.54839
551.72        17.65983
552.15        17.88423
552.59         17.9914
553.03        18.16459
553.46        18.32212
553.90        18.43521
554.34        18.49649
554.77        18.53227
555.21         18.5682
555.65        18.59646
556.08        18.64195
556.52        18.78218
556.96        18.97797
557.39        19.12254
557.83        19.19714
558.27         19.2091
558.70        19.20107
559.14        19.26427
559.57        19.39517
560.01        19.54719
560.45        19.68712
560.88        19.71022
561.32        19.73395
561.75        19.77862
562.19         19.8763
562.63        19.93531
563.06        19.95421
563.50        19.99411
563.93        20.05693
564.37        20.13774
564.80        20.23016
565.24        20.33879
565.68        20.44643
566.11        20.53892
566.55        20.61341
566.98        20.64713
567.42        20.68161
567.85        20.73838
568.29        20.82088
568.72        20.99717
569.16        21.29513
569.60        21.24009
570.03          21.472
570.47        21.78296
570.90        21.86484
571.34        21.97489
571.77        22.13829
572.21        22.20819
572.64        22.25104
573.08        22.40028
573.51          22.662
573.95        22.85755
574.38         22.8727
574.82        23.04259
575.25        22.92314
575.69        22.88338
576.12        22.79553
576.56        23.11265
576.99        23.39408
577.42        23.04283
577.86        23.08938
578.29        22.95979
578.73        23.25918
579.16        22.88414
579.60        22.94137
580.03        22.67447
580.47        22.80831
580.90        22.78147
581.33        22.66018
581.77        22.85067
582.20        22.54166
582.64        22.47929
583.07         22.1501
583.51        22.01466
583.94        22.07648
584.37        21.94782
584.81        21.66235
585.24        21.72189
585.68        21.93269
586.11        21.71666
586.54        21.20064
586.98        21.20046
587.41        21.73362
587.85        21.57104
588.28         21.2783
588.71        21.41907
589.15        21.39479
589.58        21.12748
590.01         21.1847
590.45        21.09545
590.88        21.11658
591.31        21.18314
591.75        21.26151
592.18        21.33846
592.61         21.2879
593.05        21.18911
593.48        21.45477
593.91        21.33732
594.35        21.17168
594.78        21.22791
595.21         21.5432
595.65        21.54862
596.08        21.31522
596.51        21.70112
596.94         22.1367
597.38        22.52247
597.81        22.65676
598.24        22.59086
598.68        22.62694
599.11         23.1251
599.54        23.47851
599.97        23.76777
600.41        23.80384
600.84        24.11478
601.27        24.48861
601.70        24.90775
602.14        25.27691
602.57        25.59845
603.00        25.85441
603.43        26.14224
603.87        26.42621
604.30        26.76291
604.73        27.15435
605.16        27.57817
605.60        28.00529
606.03        28.44686
606.46        28.83423
606.89        29.19598
607.32        29.55731
607.76        29.90898
608.19         30.2609
608.62        30.59065
609.05        30.92947
609.48        31.34495
609.92        31.78213
610.35        32.03423
610.78        32.42169
611.21        32.34806
611.64        32.66257
612.07        33.14321
612.50        33.52219
612.94        33.70714
613.37        34.33321
613.80        34.46158
614.23        34.97419
614.66        35.23425
615.09         35.4455
615.52        35.61498
615.96        35.78122
616.39         35.9584
616.82        36.12206
617.25        36.57681
617.68        36.62648
618.11        36.94047
618.54        37.28006
618.97        37.52627
619.40        37.70622
619.84        37.89621
620.27        38.12344
620.70        38.42379
621.13        38.79612
621.56        38.54722
621.99        39.30723
622.42        38.82536
622.85        38.98331
623.28        39.10497
623.71        39.37283
624.14        38.78275
624.57        39.25704
625.00        39.17606
625.43        39.12374
625.86        39.01523
626.29        38.90853
626.72        38.90121
627.15        38.73727
627.58        38.66487
628.01        38.58038
628.44        38.38193
628.87         38.0895
629.30        37.86636
629.73        37.72482
630.16        37.52676
630.59        37.26255
631.02        37.09676
631.45        36.83855
631.88        36.54491
632.31        36.15688
632.74        35.70504
633.17        35.21089
633.60        34.71476
634.03         34.2363
634.46        33.76419
634.89         33.3102
635.32        32.89499
635.75        32.51842
636.18        32.17426
636.61        31.84064
637.04        31.48392
637.47        31.10158
637.89        30.68314
638.32        30.23068
638.75        29.84285
639.18        29.54714
639.61        29.03407
640.04        28.83678
640.47        28.53952
640.90        28.29664
641.33        28.10128
641.76         27.9376
642.18        27.77032
642.61        27.58223
643.04        27.38978
643.47        27.23113
643.90        27.15919
644.33        27.17903
644.76        27.30453
645.18        27.47606
645.61        27.52135
646.04        27.39858
646.47        27.45231
646.90        27.65405
647.33         27.7765
647.75        27.81661
648.18        27.90541
648.61        28.07336
649.04        28.35064
649.47        28.72444
649.89        29.09526
650.32        29.44439
650.75        29.87442
651.18        30.36852
651.61        30.79811
652.03        31.18892
652.46        31.70877
652.89        32.29494
653.32        32.72435
653.74        33.06956
654.17        33.33454
654.60        33.45393
655.03        34.65891
655.46        34.51498
655.88         35.5285
656.31        38.06247
656.74        38.16898
657.16        37.52143
657.59         37.0105
658.02        37.35734
658.45        38.47961
658.87        38.59599
659.30        38.69936
659.73        39.36037
660.15        39.69028
660.58        40.01309
661.01        40.22264
661.44        40.41011
661.86        40.50761
662.29        40.59626
662.72        41.00514
663.14        41.64454
663.57        41.84201
664.00        41.67847
664.42        41.83524
664.85        42.36088
665.27         42.8643
665.70        43.25034
666.13        43.56916
666.55        43.79929
666.98        43.92452
667.41        44.00228
667.83        44.11813
668.26        44.28931
668.69        44.51549
669.11         44.7702
669.54        44.96463
669.96        45.07783
670.39        45.32296
670.82        45.38866
671.24        45.56118
671.67        45.74421
672.09        45.95134
672.52        46.17691
672.94        46.44413
673.37        46.39368
673.80        46.86204
674.22        46.81959
674.65        47.06155
675.07        47.30123
675.50        47.55756
675.92        47.82586
676.35        47.98397
676.77        48.01063
677.20        48.41968
677.62        48.31665
678.05        48.49928
678.47        48.69818
678.90        48.92434
679.32         49.1277
679.75        49.25212
680.17        49.29041
680.60        49.27939
681.02        49.26954
681.45         49.3029
681.87        49.40773
682.30        49.67389
682.72        49.92812
683.15        50.17533
683.57        50.36278
684.00        50.54021
684.42        50.69939
684.85        50.85058
685.27        51.00209
685.70         51.0431
686.12        51.03657
686.54        51.37588
686.97        51.94562
687.39        52.15047
687.82        51.96121
688.24        51.94982
688.66        52.14631
689.09        52.01064
689.51        51.97358
689.94        51.94561
690.36        52.06166
690.78        52.25245
691.21        52.48378
691.63        52.69317
692.06        52.85464
692.48        53.00351
692.90        53.13879
693.33        53.25136
693.75         53.3461
694.17        53.41326
694.60        53.48859
695.02        53.61673
695.44        53.79846
695.87        54.11108
696.29        54.47988
696.71        54.53881
697.14        54.35904
697.56        54.47031
697.98        54.87738
698.41        55.09104
698.83        55.07637
699.25         55.4821
699.68        55.58019
700.10        55.74289
700.52        55.73928
700.94        55.64914
701.37        55.52774
701.79         55.4945
702.21        55.57896
702.64        55.74773
703.06        55.96215
703.48         56.1688
703.90        56.35191
704.33        56.54176
704.75        56.71791
705.17        56.90161
705.59        57.06948
706.01        57.22042
706.44        57.38984
706.86        57.51101
707.28        57.55608
707.70        57.81219
708.12        58.30334
708.55        57.85046
708.97         58.1184
709.39        58.38681
709.81        58.82191
710.23        59.12826
710.66        59.18977
711.08         59.2587
711.50        59.34668
711.92        59.44168
712.34        59.56157
712.76        59.71231
713.19        59.85288
713.61        59.95139
714.03        59.98334
714.45        59.96702
714.87        59.95396
715.29        60.02243
715.71        60.18682
716.13        60.42173
716.56        60.65582
716.98        60.84175
717.40        60.92842
717.82        60.93877
718.24         60.9148
718.66        60.92636
719.08         60.9936
719.50        61.09285
719.92        61.20063
720.34        61.28028
720.76        61.32097
721.19        61.33284
721.61        61.33928
722.03        61.34821
722.45        61.36345
722.87         61.3928
723.29        61.44772
723.71        61.48604
724.13        61.48889
724.55        61.65187
724.97        61.79258
725.39        61.73878
725.81        61.86086
726.23        62.11753
726.65        62.20288
727.07        62.19672
727.49        62.38906
727.91        62.43438
728.33        62.49425
728.75        62.62935
729.17        62.84711
729.59        63.15802
730.01        63.44633
730.43        63.44211
730.85        63.17308
731.27        62.91913
731.69        62.78869
732.10        62.78596
732.52         62.9353
732.94        63.26727
733.36        63.73403
733.78        64.12682
734.20        64.37306
734.62        64.70607
735.04        65.02618
735.46        64.81007
735.88        64.26268
736.30        64.22884
736.72        64.71318
737.13        65.10583
737.55        65.35985
737.97        65.01324
738.39        64.32071
738.81          63.958
739.23        64.07169
739.65        64.50682
740.06        65.02094
740.48        65.25346
740.90        65.12202
741.32        64.82754
741.74        64.53947
742.16        64.43899
742.57        64.59725
742.99        64.99168
743.41        65.47663
743.83        65.68389
744.25        65.61115
744.67        65.61518
745.08        65.74323
745.50        65.79237
745.92        65.78572
746.34        65.84829
746.75        65.96453
747.17        66.04166
747.59        66.07751
748.01         66.1129
748.42        66.15125
748.84        66.20443
749.26        66.29015
749.68        66.28313
750.09        66.21568
750.51        66.43253
750.93        66.80464
751.35        66.74476
751.76        66.32629
752.18        66.16714
752.60        66.30892
753.01         66.4109
753.43         66.4386
753.85        66.51851
754.27        66.65898
754.68        66.86651
755.10        67.08294
755.52        67.21646
755.93        67.21879
756.35        67.06429
756.77        66.92759
757.18        67.01927
757.60        67.37704
758.02         68.2459
758.43        69.08569
758.85        68.95189
759.26        67.00694
759.68        66.47402
760.10        67.26269
760.51        68.39474
760.93        68.21116
761.34        68.28635
761.76        68.33421
762.18        68.18675
762.59        67.95226
763.01        67.53947
763.42        67.13471
763.84         67.0088
764.26        67.22948
764.67        67.63012
765.09        68.08365
765.50        68.52448
765.92         68.8446
766.33        68.57605
766.75        68.16996
767.16        67.86949
767.58        67.87327
768.00        67.87507
768.41        67.90352
768.83        68.26682
769.24         68.6932
769.66        68.92387
770.07        68.07092
770.49        67.81056
770.90        67.96274
771.32        68.29362
771.73        68.67043
772.15        68.79819
772.56        68.68053
772.97        68.60651
773.39        68.57282
773.80        68.66369
774.22        68.83877
774.63        69.16069
775.05        69.48152
775.46        69.62955
775.88        69.53783
776.29        69.30582
776.70        69.02172
777.12        68.85563
777.53        68.85566
777.95        68.94012
778.36        69.11258
778.77        69.31689
779.19        69.51939
779.60         69.9224
780.02        70.35301
780.43        70.28214
780.84        69.85812
781.26         69.7058
781.67        69.91795
782.09        70.49734
782.50         71.1969
782.91        70.96587
783.33        70.28597
783.74        69.89276
784.15        69.97434
784.57        69.87698
784.98        69.62254
785.39        69.57253
785.81        69.74369
786.22        70.02654
786.63        70.38535
787.04         70.7667
787.46        71.13201
787.87        71.46412
788.28        71.73988
788.70        71.90154
789.11        71.93509
789.52         71.9219
789.93        71.86262
790.35        71.66033
790.76        71.39323
791.17        71.27831
791.58        71.36052
792.00        71.46785
792.41        71.57664
792.82        71.87284
793.23        72.26181
793.65        72.17401
794.06        71.79092
794.47        72.06431
794.88        72.80386
795.29        72.97263
795.71        72.49944
796.12        71.97766
796.53        71.61756
796.94        71.54619
797.35        71.85038
797.76        72.48539
798.18        73.19176
798.59        73.61521
799.00        73.63895
799.41        73.26432
799.82        72.85493
800.23        72.56506
800.64        72.55176
801.06        72.68703
801.47        72.93632
801.88        73.16589
802.29        73.30937
802.70        73.39418
803.11        73.42661
803.52        73.39586
803.93         73.3277
804.34        73.27641
804.75        73.20134
805.17        73.06674
805.58        72.98154
805.99        72.77522
806.40         72.5907
806.81        73.33311
807.22        74.59933
807.63        74.45975
808.04        73.10719
808.45        72.61469
808.86        73.14573
809.27        73.57808
809.68        73.71758
810.09        73.63599
810.50        73.38294
810.91        73.35197
811.32        73.59239
811.73         73.7554
812.14        73.83392
812.55        74.08234
812.96        74.41254
813.37        74.50644
813.78        74.32025
814.19         73.9704
814.60        73.58441
815.01        73.33385
815.42        73.26195
815.83         73.3152
816.24        73.44581
816.65        73.56156
817.05        73.62248
817.46        73.62434
817.87         73.6021
818.28        73.55297
818.69        73.49739
819.10        73.41521
819.51        73.33357
819.92        73.39331
820.33        73.62122
820.74        73.64484
821.14        74.00566
821.55        74.23856
821.96        74.48405
822.37        74.75115
822.78        74.93333
823.19        74.83459
823.60        74.42694
824.00        73.77499
824.41        73.12425
824.82        72.88995
825.23        73.15046
825.64        73.80452
826.04        74.57398
826.45        74.87386
826.86        74.57681
827.27        73.85966
827.68        73.02765
828.08        72.59056
828.49          72.648
828.90        73.08521
829.31        73.73426
829.72        74.30348
830.12        74.70753
830.53        74.95302
830.94        75.14396
831.35        75.40153
831.75        75.77142
832.16        76.11185
832.57          76.344
832.97        76.32188
833.38         76.0297
833.79        75.58505
834.20        75.09242
834.60        74.67081
835.01         74.3987
835.42        74.22179
835.82        74.21926
836.23        74.44408
836.64        74.90027
837.04        75.59469
837.45        76.23817
837.86        76.50852
838.26        76.31966
838.67        75.76391
839.08        75.08017
839.48        74.62923
839.89        74.55222
840.29        74.74472
840.70        75.07787
841.11        75.35397
841.51        75.52991
841.92        75.63197
842.33        75.73927
842.73        75.95902
843.14         76.2595
843.54        76.62246
843.95        76.95876
844.35        77.20583
844.76         77.3094
845.17        77.26148
845.57        77.13786
845.98        77.02735
846.38        76.97636
846.79        76.97755
847.19        76.88988
847.60        76.42772
848.00        75.60126
848.41        74.53878
848.81        73.61044
849.22        73.35348
849.62        73.90422
850.03        75.07426
850.43        76.52127
850.84        77.40792
851.24        77.52905
851.65        76.98042
852.05         76.1693
852.46        75.73664
852.86        75.82813
853.27        76.28028
853.67        76.68365
854.07        76.69804
854.48        76.20623
854.88        75.36066
855.29        74.35615
855.69        73.81775
856.10        73.85689
856.50        74.40055
856.90        75.04371
857.31        75.20914
857.71        74.81628
858.12        74.01949
858.52        73.16481
858.92        72.76768
859.33        72.96033
859.73        73.61087
860.13        74.47058
860.54        75.15561
860.94         75.5737
861.34          75.745
861.75        75.69358
862.15        75.52741
862.55        75.25713
862.96        74.87264
863.36        74.32659
863.76        73.57796
864.17        72.69578
864.57         71.7877
864.97        71.02299
865.38         70.5844
865.78        70.54079
866.18        70.80587
866.58        71.35012
866.99        72.05887
867.39        72.87314
867.79        73.74611
868.19         74.4329
868.60        74.59952
869.00        74.21911
869.40        73.35693
869.80        72.43755
870.21         72.1974
870.61        72.84688
871.01        74.13679
871.41        75.50496
871.81        76.04995
872.22        75.55214
872.62        74.28589
873.02        72.76289
873.42        71.83195
873.82        71.75552
874.22        72.31874
874.63        73.09731
875.03        73.43777
875.43        73.18819
875.83        72.54473
876.23        71.95639
876.63         72.1521
877.03        73.25461
877.44        74.92905
877.84        76.61892
878.24        77.33459
878.64        76.86722
879.04        75.61494
879.44        74.09208
879.84        73.03954
880.24        72.66397
880.64         72.7125
881.04        73.10471
881.44        73.70728
881.84        74.41097
882.24        75.29062
882.65        76.04015
883.05        76.24716
883.45        75.78444
883.85        74.80275
884.25        73.74568
884.65        73.31242
885.05        73.64147
885.45        74.49189
885.85        75.57907
886.25        76.39571
886.65        76.73508
887.05        76.76878
887.45        76.45039
887.85        75.71964
888.25        74.69994
888.65        73.47463
889.04        72.38017
889.44        71.94839
889.84        72.18911
890.24        72.98936
890.64        74.05095
891.04        74.71729
891.44        74.74727
891.84        74.35412
892.24        73.79425
892.64        73.42504
893.04        73.34446
893.44        73.42323
893.83        73.68184
894.23        74.08674
894.63        74.61055
895.03        75.24966
895.43        75.85831
895.83        76.20821
896.23        76.24619
896.63        75.99555
897.02        75.58402
897.42        75.30399
897.82        75.21712
898.22        75.29638
898.62        75.38055
899.01        75.20036
899.41        74.71043
899.81        74.03086
900.21        73.44294
900.61        73.36661
901.00        73.86212
901.40        74.77167
901.80        75.74038
902.20        76.19308
902.59         75.9705
902.99        75.24011
903.39        74.30209
903.79        73.61001
904.18        73.29465
904.58         73.2655
904.98        73.34484
905.38        73.26865
905.77        72.96039
906.17        72.52431
906.57        72.14537
906.96        72.12954
907.36        72.49673
907.76        73.15945
908.15        73.85202
908.55        74.01422
908.95        73.60009
909.34         72.7897
909.74        72.02209
910.14        71.83664
910.53        72.39498
910.93        73.46533
911.33        74.84614
911.72        76.23624
912.12         77.3863
912.52        78.35455
912.91        79.07436
913.31        79.41584
913.70        79.37308
914.10         78.9531
914.49        78.20616
914.89        77.22023
915.29        76.11042
915.68        74.92999
916.08        73.95623
916.47        73.45972
916.87        73.53065
917.26        74.05309
917.66        74.79785
918.05        75.38774
918.45        75.63759
918.84        75.68134
919.24        75.51332
919.64        75.30862
920.03        75.14288
920.42         74.9241
920.82        74.74609
921.21        74.66759
921.61        74.70927
922.00         74.8969
922.40        75.12326
922.79        75.27594
923.19        75.29001
923.58        75.21276
923.98        75.12606
924.37         75.1777
924.77        75.38531
925.16        75.70018
925.55        76.01256
925.95        76.14836
926.34         76.0854
926.74        75.86875
927.13        75.59028
927.52        75.36047
927.92        75.23164
928.31        75.15903
928.70         75.1373
929.10        75.14104
929.49        75.15574
929.89        75.15941
930.28        75.15719
930.67        75.07409
931.07        74.89691
931.46        74.66677
931.85        74.40195
932.24        74.13171
932.64        73.90112
933.03          73.752
933.42        73.72579
933.82        73.87076
934.21        74.19827
934.60        74.58448
934.99        75.08053
935.39        75.75584
935.78        76.61343
936.17        77.59361
936.56        78.19623
936.96        77.65279
937.35        75.94647
937.74        73.47292
938.13        71.11611
938.53        69.99811
938.92         70.2719
939.31        71.67294
939.70        73.60751
940.09        74.88805
940.49        75.05984
940.88        74.44869
941.27        73.54723
941.66        73.11646
942.05        73.35314
942.44        74.04196
942.84        74.76877
943.23        74.91634
943.62         74.2837
944.01        73.12213
944.40        72.03455
944.79        71.86783
945.18        72.76985
945.57        74.48887
945.97        76.28428
946.36         77.1126
946.75        76.56981
947.14        75.00734
947.53        73.19722
947.92        72.30934
948.31        72.63651
948.70        73.86166
949.09        75.35751
949.48        75.99676
949.87        75.44527
950.26        74.08826
950.65        72.59158
951.04        71.85322
951.43        72.07572
951.82        73.01746
952.21        74.14938
952.60        74.53291
952.99        73.91374
953.38        72.61383
953.77        71.33646
954.16        71.00867
954.55        71.81247
954.94        73.57025
955.33        75.58924
955.72        76.37653
956.11        75.44639
956.50        73.30928
956.89        71.10874
957.28        70.34582
957.66        71.34363
958.05        73.61832
958.44        76.31071
958.83        77.65426
959.22         77.0698
959.61         75.2122
960.00        73.05028
960.39        71.80476
960.78        71.70864
961.16        72.38873
961.55        73.38327
961.94        73.89101
962.33         73.6087
962.72        72.93452
963.11        72.10347
963.49        71.37439
963.88        70.85307
964.27        70.39474
964.66        70.18774
965.04        70.64897
965.43        71.72282
965.82        73.31776
966.21        74.92564
966.60        75.60683
966.98        75.14775
967.37        73.90942
967.76        72.38503
968.15        71.23386
968.53        70.61317
968.92        70.27884
969.31        70.29298
969.69        70.78701
970.08        71.66734
970.47        73.05129
970.86        74.38084
971.24        74.67712
971.63        73.73229
972.02        71.84174
972.40          69.952
972.79        69.61096
973.17        71.07344
973.56        73.77261
973.95        76.78477
974.33        78.34008
974.72         77.8187
975.11        75.83942
975.49        73.34836
975.88        72.09992
976.26        72.53009
976.65        74.06554
977.04          76.097
977.42        77.50925
977.81        77.72275
978.19        77.19586
978.58         76.2571
978.96        75.29621
979.35        74.57294
979.74         73.9909
980.12        73.66772
980.51        73.79156
980.89        74.43166
981.28        75.35471
981.66        76.66653
982.05        78.20793
982.43        79.95181
982.82        81.85532
983.20        83.21641
983.59        82.75628
983.97        80.39693
984.35        76.62524
984.74        73.04054
985.12        71.87373
985.51        73.41794
985.89        77.08536
986.28        81.26156
986.66        83.56695
987.04        83.11902
987.43        80.67434
987.81        77.26978
988.20         75.0412
988.58         74.6326
988.96        75.42694
989.35        76.54047
989.73        76.80266
990.12         75.7877
990.50        74.06895
990.88        72.06472
991.27        70.37031
991.65        69.20502
992.03        68.45374
992.42        68.15616
992.80        68.70423
993.18        70.01474
993.56        72.02793
993.95        74.31763
994.33        76.16306
994.71         77.1258
995.10         77.3562
995.48        77.07715
995.86        76.78229
996.24         76.6512
996.63        76.45177
997.01        76.32637
997.39        76.33333
997.77        76.46616
998.15        76.80795
998.54        77.12674
998.92        77.01171
999.30        76.40629
999.68        75.45785
1000.06          74.585
1000.45        74.53107
1000.83        75.52881
1001.21        77.23254
1001.59        79.25468
1001.97        80.96851
1002.35        82.09528
1002.73        82.80367
1003.12        82.87891
1003.50        81.93017
1003.88        80.06894
1004.26        77.45021
1004.64        74.86424
1005.02        73.69398
1005.40         74.2226
1005.78        75.97472
1006.16        78.10061
1006.54        79.38181
1006.92        79.51529
1007.30        78.81801
1007.69        77.54121
1008.07        76.40794
1008.45        75.76921
1008.83        75.50154
1009.21        75.59595
1009.59        76.04215
1009.97        76.75851
1010.35        77.67002
1010.73        78.79053
1011.11        80.10062
1011.49        81.43181
1011.86        82.73399
1012.24        83.32639
1012.62        82.39758
1013.00        79.82011
1013.38        75.78445
1013.76        71.13345
1014.14        67.79278
1014.52        66.63347
1014.90        67.33295
1015.28         69.0994
1015.66        70.46214
1016.04        70.96836
1016.41        71.17657
1016.79        71.12348
1017.17        70.94893
1017.55        70.84917
1017.93        70.65112
1018.31        70.85007
1018.69         72.2107
1019.06        75.03044
1019.44        79.50156
1019.82        85.34842
1020.20        89.60262
1020.58        89.83154
1020.95         86.6099
1021.33        82.30955
1021.71        79.28884
1022.09        77.72346
1022.46        76.81411
1022.84        76.31238
1023.22        75.09295
1023.60        73.18346
1023.97        71.62409
1024.35        70.77055
1024.73        70.62463
