SpectraSmart Spectrum 2.9.0.0
--------- Device Information -----------
Spectrum Name :  反射率_0
Saving Time :  2024/04/30 01:16:35
Spectro-Module Model Name : SE2030-DUVN
Spectro-Module Serial Number : OS361AC55029948
Wavelength Start : 200
Wavelength End : 1025
Wavelength Unit : Wavelength(nm)
Spectrum Unit : Reflectance(%)
-----------Spectrum Setting ------------
Integration Time : 20ms
Average : 10
Boxcar : 0
Background removal :  enabled
linearity correction :  enabled
SC :  disabled
Intensity correction :  disabled
DWT denoise :  enabled
savitzky-golay :  disabled
FFT :  disabled
Running average :  disabled
Kalman :  disabled
High pass :  disabled
---------------BEGIN--------------------
Wavelength(nm)             Reflectance(%)
200.29               0
200.75        37.42383
201.21        29.52738
201.67        19.88753
202.13        11.62109
202.58         6.14415
203.04        3.908407
203.50        4.196537
203.96        5.135972
204.42        5.963624
204.88        7.072901
205.34        10.26439
205.80        17.11291
206.26         25.3394
206.72        32.51204
207.18        36.52784
207.64         36.1546
208.10        32.04263
208.55        24.90814
209.01        16.45392
209.47        11.84426
209.93        12.71506
210.39        16.99068
210.85        21.24668
211.31        22.39352
211.77        20.13184
212.23        14.57193
212.69        7.471666
213.14        7.013245
213.60         15.4186
214.06         26.8955
214.52        35.87242
214.98        39.40033
215.44        38.55276
215.90         35.0807
216.36         30.3576
216.81        26.91997
217.27        26.35034
217.73        27.74594
218.19        32.49276
218.65        41.64911
219.11        51.99205
219.57        60.43201
220.02        64.31538
220.48        63.40134
220.94        58.05388
221.40        47.71286
221.86        33.26145
222.32        22.96536
222.77        22.15636
223.23        27.14317
223.69        32.66281
224.15        35.65608
224.61        36.52274
225.06          36.352
225.52        36.62685
225.98        39.25115
226.44        43.67884
226.90        48.08735
227.36        51.29942
227.81        52.90115
228.27        53.30431
228.73        52.80674
229.19        51.94997
229.65        51.72433
230.10        52.29961
230.56        53.33412
231.02        54.11736
231.48        54.05019
231.93        53.07993
232.39        51.45765
232.85        49.71719
233.31        48.93368
233.77         49.4164
234.22        51.02594
234.68         52.7008
235.14        52.56416
235.60        50.29343
236.05        46.61328
236.51        43.18468
236.97        42.08965
237.43        43.79663
237.88        48.21476
238.34        54.36769
238.80        58.98521
239.26          59.599
239.71        56.93298
240.17        52.47166
240.63        48.41416
241.08        45.06827
241.54        41.12714
242.00        36.44855
242.46        33.34318
242.91        35.05519
243.37        42.04792
243.83        50.03485
244.28        54.13018
244.74        53.67921
245.20        49.02249
245.66        41.50927
246.11        35.42929
246.57        33.50327
247.03        34.69027
247.48         37.7221
247.94        38.96169
248.40        37.93822
248.85        36.64111
249.31        36.11092
249.77        36.56171
250.22        38.12165
250.68        40.76811
251.14        45.66576
251.59        52.40886
252.05        57.05902
252.51        58.95741
252.96        58.56518
253.42        56.96549
253.88        54.36666
254.33        50.51301
254.79        47.20368
255.25         47.3052
255.70        50.29288
256.16        54.27981
256.62        57.35983
257.07        58.38603
257.53        58.09251
257.99        56.98397
258.44        55.47564
258.90        54.79054
259.35        54.65282
259.81        54.88322
260.27        55.07124
260.72        54.93789
261.18        54.65495
261.63        54.11877
262.09        53.48562
262.55        52.62606
263.00        51.56218
263.46        50.55407
263.91         49.5324
264.37         48.6976
264.83        47.96997
265.28        47.24701
265.74        46.68198
266.19        46.27457
266.65        46.07632
267.11        46.02611
267.56        45.94482
268.02        45.58493
268.47        44.87806
268.93        43.88997
269.38        42.80519
269.84        42.06134
270.30        41.73984
270.75        41.71415
271.21        41.69867
271.66        41.23938
272.12        40.27188
272.57        38.92866
273.03        37.53648
273.48        36.52201
273.94        36.04582
274.39        35.90641
274.85        35.90518
275.31        35.68385
275.76        35.15415
276.22        34.47807
276.67        33.76486
277.13        33.26719
277.58        32.97325
278.04        32.82171
278.49        32.65659
278.95        32.36945
279.40        31.89081
279.86        31.35283
280.31        30.77211
280.77         30.2914
281.22        29.90357
281.68         29.6008
282.13        29.36325
282.59        29.22457
283.04        29.14058
283.50        29.09293
283.95        28.99419
284.41        28.73002
284.86        28.27688
285.32         27.7272
285.77        27.11576
286.22        26.56494
286.68        26.12316
287.13        25.72859
287.59        25.43246
288.04        25.25181
288.50        25.19034
288.95        25.20584
289.41        25.22842
289.86        25.10815
290.32        24.84634
290.77        24.48719
291.22        24.10958
291.68        23.84216
292.13        23.71438
292.59        23.70127
293.04        23.81889
293.50        24.11622
293.95        24.57192
294.40        25.17496
294.86        25.78384
295.31        26.19109
295.77        26.35349
296.22        26.31898
296.68        26.25601
297.13        26.41414
297.58        26.85392
298.04         27.4638
298.49        28.09906
298.95        28.52535
299.40        28.68597
299.85        28.67357
300.31        28.57781
300.76        28.48002
301.21        28.44616
301.67        28.44678
302.12        28.48343
302.58        28.69962
303.03        29.08542
303.48        29.46891
303.94        29.72444
304.39        30.39165
304.84         30.2114
305.30        30.21624
305.75        30.12348
306.20        30.13699
306.66        30.28881
307.11        30.51382
307.57        30.74351
308.02        30.80706
308.47        30.68974
308.93        30.45999
309.38        30.18111
309.83        29.99634
310.29        29.93975
310.74        29.95891
311.19        29.99499
311.65        29.95237
312.10        29.80398
312.55        29.58813
313.00        29.34785
313.46         29.1446
313.91        28.98622
314.36        28.85409
314.82        28.72989
315.27        28.60744
315.72        28.47069
316.18        28.33273
316.63         28.1752
317.08        27.97739
317.53        27.74446
317.99         27.4931
318.44        27.24564
318.89        27.04231
319.35        26.89248
319.80        26.77962
320.25         26.7071
320.70        26.67942
321.16        26.67727
321.61        26.70968
322.06        26.71494
322.51        26.60195
322.97        26.35374
323.42        25.99802
323.87        25.61529
324.32        25.33942
324.78        25.19434
325.23        25.16002
325.68        25.15108
326.13        25.02357
326.59        24.73931
327.04         24.3576
327.49        23.96573
327.94         23.7133
328.39        23.63433
328.85        23.66924
329.30        23.75228
329.75        23.73288
330.20        23.56797
330.66        23.30781
331.11        23.01084
331.56        22.74832
332.01        22.55045
332.46         22.3886
332.92        22.27101
333.37        22.23952
333.82        22.28426
334.27        22.39689
334.72        22.51184
335.17        22.51594
335.63        22.37987
336.08        22.13753
336.53        21.84233
336.98        21.60546
337.43        21.46693
337.88        21.39906
338.34        21.37644
338.79        21.37576
339.24         21.3764
339.69        21.39746
340.14        21.42464
340.59        21.42963
341.05        21.40986
341.50        21.36237
341.95        21.31766
342.40        21.33617
342.85        21.42075
343.30        21.53968
343.75        21.63897
344.20         21.6356
344.66        21.51923
345.11        21.31617
345.56        21.05887
346.01        20.79619
346.46         20.5623
346.91        20.35649
347.36        20.20975
347.81        20.16482
348.26        20.22102
348.72         20.3622
349.17        20.54012
349.62        20.67015
350.07        20.72093
350.52        20.70794
350.97        20.65069
351.42          20.585
351.87          20.528
352.32        20.47441
352.77        20.42959
353.22        20.40334
353.67        20.39791
354.13        20.41096
354.58        20.44687
355.03           20.51
355.48        20.59089
355.93        20.67944
356.38        20.73994
356.83        20.72164
357.28        20.61731
357.73        20.44337
358.18        20.23994
358.63          20.072
359.08        19.95697
359.53        19.87823
359.98        19.81131
360.43        19.71478
360.88        19.57931
361.33        19.42385
361.78        19.26471
362.23        19.12432
362.68        19.01215
363.13         18.9222
363.58         18.8517
364.03         18.7968
364.48        18.75272
364.93        18.71617
365.38        18.68549
365.83        18.65923
366.28         18.6323
366.73        18.59983
367.18        18.54806
367.63        18.45717
368.08        18.32599
368.53        18.16505
368.98        17.99355
369.43        17.84185
369.88        17.72226
370.33        17.63018
370.78        17.56213
371.23        17.51019
371.68        17.46764
372.13        17.43243
372.58        17.39703
373.03        17.35035
373.48        17.28459
373.93        17.19567
374.38        17.08121
374.83        16.94139
375.28        16.78547
375.72        16.62059
376.17        16.46783
376.62        16.32135
377.07        16.18322
377.52        16.04883
377.97        15.95034
378.42        15.93917
378.87        16.01677
379.32        16.16354
379.77        16.30217
380.22        16.32043
380.67        16.19736
381.11        15.95841
381.56        15.69518
382.01        15.55857
382.46        15.58634
382.91        15.73883
383.36        15.90908
383.81        15.93343
384.26        15.78145
384.71        15.50378
385.15        15.21386
385.60        15.11216
386.05         15.2223
386.50        15.47263
386.95        15.72908
387.40         15.7851
387.85        15.60548
388.29        15.26575
388.74        14.90589
389.19        14.66269
389.64        14.56831
390.09        14.56718
390.54        14.62321
390.98         14.6767
391.43        14.70593
391.88        14.73353
392.33        14.73758
392.78         14.6983
393.23        14.62002
393.67        14.46878
394.12         14.3052
394.57        14.31448
395.02         14.2983
395.47        14.40327
395.91        14.50831
396.36        14.50221
396.81        14.36945
397.26        14.15238
397.71        13.92854
398.15         13.8037
398.60         13.8157
399.05        13.89253
399.50        13.97642
399.95        14.04759
400.39        14.01375
400.84         13.8956
401.29        13.71401
401.74         13.5923
402.18        13.55902
402.63        13.55244
403.08        13.56219
403.53        13.58349
403.97        13.60553
404.42        13.63285
404.87        13.64247
405.32        13.59468
405.76        13.48287
406.21        13.32526
406.66        13.16491
407.11        13.07323
407.55        13.07127
408.00         13.1403
408.45        13.23456
408.90        13.26722
409.34        13.21286
409.79        13.09454
410.24         12.9775
410.68        12.96127
411.13        13.06398
411.58          13.252
412.03        13.43931
412.47        13.48294
412.92        13.34263
413.37        13.08098
413.81        12.79297
414.26        12.63914
414.71        12.64233
415.15        12.75829
415.60        12.91471
416.05         13.0073
416.49        13.00036
416.94         12.9308
417.39        12.82624
417.83        12.72652
418.28        12.65327
418.73         12.5861
419.17         12.5347
419.62        12.51837
420.07        12.53565
420.51         12.5826
420.96         12.6329
421.41        12.63556
421.85        12.57858
422.30        12.49137
422.74        12.39469
423.19        12.34141
423.64        12.33659
424.08        12.37027
424.53        12.41846
424.98        12.46445
425.42        12.49899
425.87        12.51544
426.31         12.5072
426.76        12.48497
427.21        12.40902
427.65        12.30507
428.10        12.18396
428.54        12.04486
428.99        11.91247
429.44        11.87071
429.88        11.89102
430.33        11.77828
430.77        11.60801
431.22        11.75196
431.66        12.16081
432.11        12.36549
432.56        12.29215
433.00        12.22338
433.45        12.16272
433.89        11.85875
434.34        11.47187
434.78        11.44459
435.23        11.71575
435.67        11.82131
436.12        11.73205
436.57         11.7141
437.01        11.77361
437.46        11.79625
437.90        11.77748
438.35        11.74478
438.79        11.70718
439.24        11.65936
439.68        11.62262
440.13        11.63968
440.57        11.68116
441.02        11.70455
441.46        11.70057
441.91        11.60188
442.35        11.45195
442.80        11.55737
443.24        11.80979
443.69        11.64617
444.13        11.15575
444.58        10.94183
445.02        11.01578
445.47        11.07542
445.91        11.08013
446.36        11.10951
446.80         11.1471
447.24        11.17883
447.69        11.20495
448.13        11.22794
448.58        11.24926
449.02        11.26374
449.47        11.28457
449.91        11.32821
450.36         11.3953
450.80        11.47896
451.25        11.55217
451.69         11.5714
452.13        11.52788
452.58        11.44333
453.02        11.34484
453.47        11.27616
453.91        11.24741
454.36         11.2795
454.80        11.30197
455.24        11.33041
455.69        11.34182
456.13        11.34135
456.58        11.34033
457.02        11.34388
457.46        11.35699
457.91        11.37454
458.35        11.38695
458.79        11.38485
459.24          11.376
459.68         11.3695
460.13        11.37989
460.57        11.37454
461.01         11.4434
461.46        11.46507
461.90        11.47687
462.34        11.60108
462.79        11.78059
463.23        11.76707
463.68        11.58596
464.12        11.49491
464.56        11.50924
465.01        11.50712
465.45        11.47358
465.89        11.43786
466.34        11.41858
466.78        11.46074
467.22        11.57678
467.67        11.59955
468.11        11.52867
468.55        11.42807
468.99        11.33479
469.44        11.27604
469.88        11.26373
470.32        11.29522
470.77        11.34753
471.21        11.39659
471.65        11.42642
472.10        11.44899
472.54        11.46965
472.98        11.51093
473.42        11.57461
473.87        11.64848
474.31        11.71271
474.75        11.73962
475.20         11.7289
475.64        11.68792
476.08        11.63796
476.52        11.60929
476.97        11.61011
477.41        11.62838
477.85        11.66031
478.29        11.69682
478.74         11.7367
479.18         11.7781
479.62        11.80674
480.06        11.83062
480.50        11.85414
480.95        11.76531
481.39        11.77144
481.83        11.80515
482.27        11.93891
482.72        12.05923
483.16        12.27389
483.60        12.37349
484.04        12.38775
484.48        12.28075
484.93        12.15554
485.37        12.28692
485.81        12.53912
486.25        12.75065
486.69        12.12846
487.14        12.25167
487.58        12.74187
488.02        12.78564
488.46        12.86587
488.90        12.94427
489.34        12.48781
489.79        12.49432
490.23        12.72417
490.67        13.00358
491.11         13.2197
491.55        13.19783
491.99        13.01574
492.43        13.03642
492.88        13.28066
493.32        13.50231
493.76        13.64578
494.20        13.76613
494.64        13.85594
495.08        13.89612
495.52        13.90787
495.96        13.96534
496.41        14.08714
496.85        14.17044
497.29        14.21612
497.73        14.48346
498.17        14.73462
498.61         14.7536
499.05        14.53961
499.49        14.47443
499.93        14.59812
500.37        14.76351
500.82        14.92145
501.26        15.02997
501.70        15.07202
502.14        15.08403
502.58         15.1075
503.02        15.18782
503.46        15.33647
503.90        15.53869
504.34        15.74846
504.78        15.88854
505.22         15.9375
505.66         15.9144
506.10        15.85589
506.54        15.83972
506.98         15.8883
507.42        15.94902
507.86        15.98252
508.30        16.10658
508.74        16.01752
509.18        15.97333
509.62        15.92383
510.06        15.93245
510.50        16.00997
510.94        16.14015
511.38        16.28926
511.82        16.39349
512.26        16.43434
512.70        16.42836
513.14        16.40448
513.58         16.4084
514.02        16.45258
514.46        16.52299
514.90        16.59657
515.34        16.63683
515.78        16.63504
516.22        16.60431
516.66         16.5691
517.10        16.56617
517.54        16.60193
517.98        16.66105
518.42        16.71834
518.86        16.73421
519.30        16.69942
519.74        16.63014
520.18        16.54486
520.62        16.47025
521.06        16.41786
521.50        16.38314
521.93        16.36787
522.37        16.36938
522.81         16.3865
523.25        16.41746
523.69        16.45721
524.13        16.49785
524.57          16.533
525.01        16.55816
525.45        16.56518
525.89        16.54385
526.32        16.49161
526.76        16.41833
527.20        16.33106
527.64        16.24157
528.08         16.1565
528.52        16.07626
528.96        16.00854
529.40        15.96365
529.83        15.94137
530.27        15.94043
530.71        15.94641
531.15        15.93798
531.59        15.90846
532.03        15.86112
532.46        15.80435
532.90        15.75768
533.34        15.72575
533.78        15.70617
534.22        15.68915
534.66        15.65922
535.09        15.61346
535.53        15.56306
535.97        15.52334
536.41          15.523
536.85        15.56489
537.28        15.63614
537.72        15.71215
538.16        15.75758
538.60        15.76347
539.04        15.74514
539.47        15.70968
539.91        15.68501
540.35        15.67653
540.79        15.68179
541.22        15.71073
541.66        15.78199
542.10        15.89334
542.54        16.03895
542.97        16.19696
543.41        16.33248
543.85        16.43639
544.29         16.5191
544.72        16.58509
545.16        16.65644
545.60        16.73861
546.04         16.8202
546.47        16.90862
546.91        17.04175
547.35        17.20856
547.79        17.34962
548.22        17.45656
548.66        17.60855
549.10        17.81024
549.53        17.96344
549.97        18.03604
550.41        18.34831
550.84        18.34762
551.28         18.4515
551.72        18.50186
552.15        18.67082
552.59        18.72904
553.03        18.85891
553.46        18.98568
553.90        19.09604
554.34        19.18266
554.77        19.27177
555.21        19.36454
555.65        19.40896
556.08        19.42347
556.52         19.5012
556.96        19.63404
557.39        19.76346
557.83        19.87926
558.27        19.96974
558.70        20.04576
559.14        20.14912
559.57        20.26237
560.01        20.35605
560.45        20.41929
560.88        20.37835
561.32        20.36581
561.75        20.39235
562.19        20.48385
562.63        20.53536
563.06        20.54216
563.50        20.57238
563.93        20.63048
564.37        20.71359
564.80        20.81461
565.24        20.93458
565.68        21.05211
566.11        21.14853
566.55        21.21953
566.98        21.24272
567.42         21.2616
567.85        21.30303
568.29         21.3806
568.72        21.54455
569.16        21.81692
569.60        21.77489
570.03        22.08496
570.47        22.24352
570.90         22.4255
571.34        22.53171
571.77        22.71379
572.21        22.81953
572.64        22.87979
573.08        23.00776
573.51        23.24409
573.95        23.16372
574.38        23.38878
574.82        23.44593
575.25        23.39098
575.69        23.32402
576.12        23.11377
576.56        23.50681
576.99        23.63273
577.42        23.62926
577.86        23.70622
578.29        23.61242
578.73        23.62129
579.16        23.53036
579.60        23.53768
580.03        23.43565
580.47        23.31255
580.90        23.20471
581.33        23.11308
581.77        23.18485
582.20        23.13872
582.64        22.97037
583.07        22.69666
583.51        22.52346
583.94        22.57749
584.37        22.50524
584.81        22.31784
585.24         22.3205
585.68         22.3836
586.11        22.27553
586.54        22.10196
586.98        22.12115
587.41        22.32654
587.85        22.04821
588.28        21.90068
588.71         22.2309
589.15        21.88658
589.58        21.95247
590.01        21.96801
590.45        21.92621
590.88        21.84865
591.31        21.89892
591.75        22.04232
592.18        22.16894
592.61        22.25428
593.05        22.08521
593.48        22.01672
593.91        22.21129
594.35        22.09874
594.78        22.22912
595.21        22.39557
595.65        22.32688
596.08        22.09862
596.51        22.51758
596.94        22.84319
597.38        23.19538
597.81        23.31887
598.24        23.32911
598.68        23.50175
599.11        23.80058
599.54        24.06082
599.97        24.24466
600.41         24.3377
600.84        24.59175
601.27        24.91671
601.70        25.34622
602.14        25.78347
602.57         26.0423
603.00        26.14622
603.43        26.42558
603.87        26.81119
604.30        27.26452
604.73        27.52633
605.16        27.91563
605.60        28.34158
606.03        28.75988
606.46        29.11399
606.89        29.49016
607.32        29.90052
607.76        30.26589
608.19        30.59391
608.62        30.88994
609.05        31.18654
609.48        31.58569
609.92        32.05806
610.35        32.20398
610.78        32.61752
611.21        32.60207
611.64        33.09026
612.07        33.40288
612.50        33.59789
612.94        33.94024
613.37        34.44095
613.80        34.39036
614.23        34.94676
614.66         35.1617
615.09        35.38093
615.52        35.57907
615.96        35.83887
616.39         36.0318
616.82        36.09919
617.25        36.57791
617.68        36.74172
618.11        37.07685
618.54        37.35216
618.97        37.60472
619.40        37.83107
619.84        38.01693
620.27        38.18217
620.70        38.32693
621.13        38.48532
621.56        38.51528
621.99        38.75345
622.42         38.7906
622.85        39.11374
623.28        38.80694
623.71        39.35352
624.14        38.92899
624.57        39.16438
625.00         39.0891
625.43        39.09245
625.86        38.99174
626.29        38.74824
626.72        39.01427
627.15         38.6596
627.58        38.61149
628.01        38.52331
628.44        38.36995
628.87        38.15209
629.30        37.96133
629.73        37.81999
630.16        37.63823
630.59        37.40673
631.02        37.29528
631.45        37.03173
631.88        36.75523
632.31        36.38371
632.74        35.94252
633.17        35.45779
633.60        34.97925
634.03        34.52795
634.46        34.09133
634.89        33.66787
635.32        33.25565
635.75        32.85187
636.18        32.45813
636.61        32.07494
637.04        31.70421
637.47        31.35166
637.89        30.99664
638.32        30.61858
638.75        30.27909
639.18        29.99579
639.61        29.46603
640.04        29.24886
640.47        28.95141
640.90        28.73755
641.33        28.58856
641.76        28.47575
642.18        28.34376
642.61        28.16671
643.04        27.96667
643.47        27.78693
643.90        27.68659
644.33        27.67631
644.76        27.77381
645.18        27.91664
645.61        27.92839
646.04        27.76653
646.47        27.77636
646.90        27.95022
647.33        28.08641
647.75         28.1846
648.18        28.38976
648.61        28.67672
649.04        28.95636
649.47        29.23358
649.89        29.48845
650.32        29.75046
650.75        30.25575
651.18        30.93439
651.61        31.33618
652.03        31.52574
652.46        32.04313
652.89        32.79862
653.32        33.23971
653.74        33.46715
654.17        33.49863
654.60        33.97148
655.03        35.04562
655.46        34.60004
655.88        35.87157
656.31        37.88282
656.74        38.41169
657.16        37.35499
657.59        36.61879
658.02        37.37811
658.45        38.17751
658.87        38.60927
659.30        39.12017
659.73         39.2759
660.15        39.78654
660.58        39.97158
661.01        40.23586
661.44        40.46197
661.86        40.63549
662.29        40.81892
662.72         41.2744
663.14        41.91571
663.57        42.10268
664.00        41.92016
664.42        42.03664
664.85        42.50781
665.27         42.9526
665.70         43.3038
666.13        43.65058
666.55        43.97704
666.98         44.2507
667.41        44.47907
667.83        44.68315
668.26        44.85577
668.69        44.96569
669.11        45.04653
669.54        45.18134
669.96        45.38126
670.39        45.63765
670.82        45.91032
671.24        46.08136
671.67         46.1571
672.09        46.29934
672.52        46.51701
672.94        46.73988
673.37        46.61236
673.80        47.04114
674.22        47.00234
674.65        47.27638
675.07        47.59068
675.50        47.95055
675.92        48.30555
676.35        48.56806
676.77        48.73023
677.20        48.79676
677.62        48.82124
678.05        48.89243
678.47        49.03013
678.90        49.21388
679.32        49.39684
679.75        49.51235
680.17        49.54218
680.60        49.52349
681.02         49.4992
681.45        49.52826
681.87         49.6321
682.30        49.80424
682.72         50.0323
683.15        50.20046
683.57        50.33488
684.00        50.59239
684.42        50.92773
684.85        51.15186
685.27        51.24796
685.70        51.27353
686.12        51.25273
686.54        51.49131
686.97        51.90498
687.39        52.14205
687.82        52.14544
688.24        52.18105
688.66        52.24841
689.09        52.18098
689.51        52.02614
689.94        51.96357
690.36        52.02118
690.78        52.12389
691.21        52.26704
691.63        52.51013
692.06        52.80474
692.48         53.0145
692.90        53.12695
693.33        53.24397
693.75        53.36658
694.17        53.41117
694.60        53.41856
695.02        53.47992
695.44        53.60134
695.87        53.85726
696.29        54.18452
696.71        54.19876
697.14        53.99598
697.56        54.17981
697.98        54.69054
698.41        54.90422
698.83        54.81902
699.25         54.9046
699.68        55.14503
700.10        55.25421
700.52        55.20795
700.94        55.22959
701.37        55.18455
701.79        55.19847
702.21        55.23077
702.64        55.28947
703.06        55.38303
703.48        55.53633
703.90         55.7513
704.33        56.02999
704.75        56.30136
705.17        56.49982
705.59        56.57576
706.01        56.57966
706.44        56.58562
706.86        56.60151
707.28        56.62472
707.70        57.08948
708.12          57.203
708.55        57.36177
708.97         57.3703
709.39        57.46938
709.81        57.67146
710.23        57.84157
710.66         57.9774
711.08        58.17532
711.50        58.39248
711.92        58.53912
712.34        58.60637
712.76        58.62469
713.19         58.6095
713.61        58.62351
714.03        58.66929
714.45        58.73478
714.87        58.82277
715.29        58.93752
715.71        59.07309
716.13        59.22818
716.56        59.36557
716.98        59.48489
717.40        59.55614
717.82        59.60405
718.24        59.62849
718.66        59.61626
719.08        59.57509
719.50        59.51767
719.92        59.46951
720.34        59.46362
720.76        59.50836
721.19         59.5927
721.61        59.69662
722.03        59.76159
722.45        59.77215
722.87          59.738
723.29        59.69505
723.71        59.70277
724.13          59.776
724.55        59.90234
724.97        60.03671
725.39         60.1034
725.81        60.09369
726.23        60.04013
726.65        60.00762
727.07         60.0998
727.49        60.33354
727.91        60.65862
728.33        61.01828
728.75        61.31839
729.17        61.51684
729.59         61.6409
730.01        61.67151
730.43        61.58078
730.85        61.39174
731.27        61.13115
731.69        60.89576
732.10        60.83752
732.52        60.98634
732.94        61.30435
733.36        61.71319
733.78        62.04925
734.20        62.24475
734.62        62.36482
735.04         62.4416
735.46        62.45012
735.88        62.46318
736.30        62.65065
736.72        62.91936
737.13        63.03485
737.55        62.89139
737.97        62.42825
738.39        61.85598
738.81        61.66781
739.23        61.92146
739.65        62.35587
740.06        62.75468
740.48        62.97274
740.90        62.93261
741.32        62.65409
741.74        62.30088
742.16        62.17045
742.57        62.34402
742.99        62.73128
743.41        63.18417
743.83        63.41491
744.25        63.38734
744.67        63.28787
745.08        63.21844
745.50        63.22977
745.92        63.36308
746.34        63.60207
746.75        63.89076
747.17         64.1078
747.59        64.22258
748.01        64.33593
748.42         64.4226
748.84        64.31166
749.26        64.08715
749.68        63.96368
750.09         63.9729
750.51        64.13662
750.93        64.35558
751.35        64.35371
751.76        64.15434
752.18        64.07755
752.60        64.13913
753.01        64.12955
753.43        64.05507
753.85        64.07214
754.27        64.20493
754.68        64.43278
755.10        64.69289
755.52        64.89145
755.93         64.9817
756.35        64.94894
756.77        64.91296
757.18        65.05032
757.60         65.3903
758.02        66.02565
758.43        66.58254
758.85        66.60192
759.26        65.18018
759.68        64.72926
760.10        65.04106
760.51        65.40314
760.93        65.65235
761.34        65.77537
761.76         65.7326
762.18        65.74369
762.59        65.80074
763.01        65.44709
763.42        64.79123
763.84        64.53108
764.26        64.79225
764.67         64.8209
765.09        64.58146
765.50        65.94326
765.92        66.33131
766.33        66.57645
766.75        65.99226
767.16        65.88559
767.58        66.17547
768.00        66.28817
768.41        66.19109
768.83        66.20625
769.24        66.28058
769.66        66.23535
770.07        66.10062
770.49        65.91762
770.90        65.79099
771.32         66.1218
771.73         66.7646
772.15        66.90919
772.56        66.54136
772.97        66.44537
773.39        66.25304
773.80         66.3864
774.22        66.47131
774.63        66.84039
775.05        67.24827
775.46        67.44257
775.88        67.34178
776.29        67.06965
776.70        66.73058
777.12        66.50998
777.53        66.46523
777.95        66.51048
778.36        66.64606
778.77        66.81269
779.19         66.9765
779.60        67.34555
780.02        67.76076
780.43        67.69298
780.84        67.29011
781.26        67.22497
781.67         67.5615
782.09        68.14622
782.50        68.72507
782.91        68.58347
783.33        67.82807
783.74        67.45139
784.15        67.51384
784.57        67.46502
784.98        67.31477
785.39         67.2214
785.81        67.16319
786.22        67.72739
786.63        67.74184
787.04         68.1539
787.46        68.58894
787.87        69.03859
788.28        69.42588
788.70        69.64452
789.11        69.67556
789.52        69.56914
789.93        69.37404
790.35        69.14671
790.76        68.94413
791.17         68.7984
791.58        68.75226
792.00        68.75858
792.41        68.82151
792.82        69.10849
793.23         69.5239
793.65        69.50532
794.06        69.20132
794.47        69.48906
794.88        70.20477
795.29        70.40305
795.71        70.01416
796.12        69.61865
796.53        69.37659
796.94        69.23827
797.35        69.31921
797.76        69.85959
798.18        70.62379
798.59        71.03377
799.00        70.96702
799.41        70.66415
799.82        70.29241
800.23        70.07056
800.64        70.08261
801.06        70.23022
801.47        70.45695
801.88         70.5974
802.29        70.59293
802.70        70.48592
803.11        70.32351
803.52        70.17722
803.93        70.08895
804.34        70.04942
804.75         70.0164
805.17         69.9879
805.58        70.00144
805.99         69.8475
806.40         69.6487
806.81        70.10121
807.22         70.9855
807.63        71.07949
808.04        70.46918
808.45        70.36638
808.86        70.85062
809.27        71.22697
809.68        71.34969
810.09         71.3279
810.50        71.13884
810.91        70.75954
811.32        70.38239
811.73        70.31413
812.14         70.6191
812.55        71.22546
812.96         71.9221
813.37        72.30242
813.78        72.24657
814.19        71.89005
814.60         71.4254
815.01        71.12862
815.42        71.07314
815.83        71.16904
816.24        71.35432
816.65        71.51283
817.05        71.58983
817.46         71.5993
817.87        71.56581
818.28        71.45897
818.69        71.28832
819.10        71.05717
819.51        70.82513
819.92        70.71638
820.33        70.76295
820.74        70.91898
821.14         71.1372
821.55         71.3463
821.96        71.51074
822.37        71.66494
822.78        71.75485
823.19        71.69214
823.60         71.4672
824.00        71.08726
824.41        70.70201
824.82        70.58193
825.23         70.7726
825.64        71.22376
826.04        71.71391
826.45        71.76908
826.86        71.31496
827.27        70.50179
827.68        69.65865
828.08        69.32877
828.49        69.60158
828.90        70.35226
829.31        71.32595
829.72        72.07332
830.12        72.46292
830.53        72.53642
830.94        72.47423
831.35          72.545
831.75        72.84349
832.16        73.18885
832.57        73.47598
832.97        73.50874
833.38        73.24945
833.79        72.84461
834.20        72.37442
834.60        71.91486
835.01        71.54285
835.42        71.20773
835.82        71.05194
836.23        71.24391
836.64        71.81162
837.04        72.73393
837.45        73.63395
837.86         74.0253
838.26        73.78153
838.67        73.04903
839.08        72.16143
839.48        71.63167
839.89        71.63125
840.29        71.98975
840.70        72.52179
841.11         72.9397
841.51        73.16425
841.92        73.26109
842.33        73.28276
842.73        73.29256
843.14        73.27346
843.54        73.22072
843.95        73.16634
844.35        73.23823
844.76        73.42303
845.17        73.67239
845.57        73.91305
845.98        73.98353
846.38        73.86469
846.79        73.61076
847.19         73.2294
847.60         72.6964
848.00        72.08073
848.41        71.41663
848.81        70.90946
849.22        70.85332
849.62        71.32336
850.03        72.20198
850.43        73.27791
850.84        73.95771
851.24        74.11739
851.65        73.79331
852.05        73.26627
852.46         72.9679
852.86        72.99756
853.27        73.27134
853.67         73.5022
854.07        73.49706
854.48        73.16914
854.88        72.61987
855.29        71.96357
855.69        71.64575
856.10        71.70532
856.50        72.11237
856.90        72.54967
857.31        72.57356
857.71        72.14515
858.12        71.38876
858.52        70.59546
858.92        70.19275
859.33        70.29187
859.73        70.78883
860.13        71.50777
860.54        72.18166
860.94        72.73343
861.34        73.13679
861.75         73.3149
862.15        73.19877
862.55        72.76767
862.96        72.09978
863.36        71.23116
863.76         70.2501
864.17        69.27161
864.57        68.34539
864.97        67.68528
865.38        67.55457
865.78        68.01053
866.18        68.95876
866.58        70.16216
866.99        71.08444
867.39        71.54282
867.79        71.61465
868.19        71.37519
868.60        70.97527
869.00        70.50598
869.40        69.90429
869.80        69.41129
870.21        69.43655
870.61         70.0807
871.01        71.20641
871.41        72.35002
871.81         72.7532
872.22        72.24971
872.62        71.06118
873.02        69.66039
873.42        68.85007
873.82        68.87022
874.22        69.51061
874.63        70.38532
875.03        70.89954
875.43        70.89379
875.83        70.53021
876.23        70.15337
876.63        70.32066
877.03         71.1348
877.44        72.34748
877.84         73.5295
878.24        73.90623
878.64         73.3336
879.04        72.12305
879.44        70.77962
879.84        70.02599
880.24        70.02846
880.64        70.55212
881.04        71.33988
881.44         71.9619
881.84        72.26309
882.24        72.38481
882.65        72.33078
883.05        72.25186
883.45         72.1502
883.85        71.97585
884.25        71.81905
884.65        71.84922
885.05        72.08298
885.45        72.46323
885.85        72.87318
886.25        73.09727
886.65        73.05726
887.05        72.82013
887.45         72.3965
887.85        71.82278
888.25        71.18279
888.65        70.52213
889.04        69.95747
889.44        69.70824
889.84        69.75452
890.24        70.06523
890.64        70.54022
891.04        70.94536
891.44         71.1808
891.84        71.29939
892.24        71.37655
892.64        71.54526
893.04         71.8383
893.44        72.19164
893.83        72.60667
894.23        73.00829
894.63        73.37663
895.03        73.72121
895.43        73.97594
895.83         74.0407
896.23        73.90936
896.63        73.60475
897.02        73.23354
897.42        73.03477
897.82        73.05033
898.22         73.2566
898.62        73.50711
899.01        73.56177
899.41        73.34393
899.81        72.90991
900.21         72.4678
900.61        72.33772
901.00         72.5714
901.40        73.08622
901.80        73.55083
902.20        73.43237
902.59        72.64468
902.99        71.37561
903.39        70.10494
903.79        69.54266
904.18        69.82607
904.58        70.75851
904.98        71.86758
905.38        72.41788
905.77        72.20284
906.17        71.43351
906.57        70.52547
906.96        70.16886
907.36        70.50272
907.76        71.35345
908.15        72.28388
908.55        72.44679
908.95        71.73175
909.34        70.42316
909.74        69.19775
910.14        68.94384
910.53        69.87426
910.93        71.63048
911.33        73.71095
911.72        75.33331
912.12        76.14392
912.52        76.36449
912.91        76.22436
913.31        76.11425
913.70        76.18108
914.10        76.24359
914.49        76.17203
914.89        75.77505
915.29        75.06128
915.68        74.18626
916.08        73.36969
916.47        72.78503
916.87        72.53849
917.26        72.51767
917.66        72.71254
918.05        73.12638
918.45        73.65865
918.84        74.35951
919.24         74.9377
919.64        75.05122
920.03        74.64633
920.42        73.79697
920.82         72.8931
921.21        72.44764
921.61        72.58791
922.00        73.18389
922.40        73.93522
922.79        74.40488
923.19        74.42059
923.58        74.14617
923.98        73.75777
924.37         73.5389
924.77        73.56137
925.16        73.72533
925.55        73.92828
925.95        74.01972
926.34         73.9742
926.74        73.84446
927.13        73.67958
927.52        73.50925
927.92          73.363
928.31        73.20401
928.70        73.06503
929.10        72.99247
929.49        72.98477
929.89        72.99754
930.28        72.99114
930.67        72.81753
931.07        72.45946
931.46        72.00808
931.85        71.52796
932.24        71.11176
932.64        70.81576
933.03        70.63864
933.42        70.64178
933.82        70.90396
934.21        71.42861
934.60        72.10988
934.99        72.85915
935.39        73.51655
935.78        74.05093
936.17        74.45029
936.56        74.50522
936.96        73.94288
937.35        72.81724
937.74        71.32092
938.13        69.93951
938.53        69.26673
938.92        69.36916
939.31        70.14088
939.70        71.25559
940.09        72.05017
940.49        72.25758
940.88        72.03407
941.27        71.65369
941.66        71.56864
942.05        71.89281
942.44        72.51641
942.84        73.10346
943.23        73.16135
943.62        72.53813
944.01        71.41976
944.40        70.37186
944.79        70.20432
945.18        71.05157
945.57        72.68805
945.97        74.38393
946.36        75.10058
946.75        74.45155
947.14        72.79861
947.53        70.92623
947.92        70.02097
948.31        70.38071
948.70        71.68317
949.09        73.31039
949.48        74.14216
949.87        73.82406
950.26        72.71668
950.65        71.43712
951.04        70.82688
951.43        71.08065
951.82        71.96872
952.21        72.98764
952.60        73.25829
952.99        72.54936
953.38        71.16527
953.77        69.80269
954.16        69.36855
954.55        70.03225
954.94        71.62955
955.33        73.44804
955.72        73.97128
956.11        72.74767
956.50        70.32958
956.89        67.92536
957.28        67.10709
957.66         68.1969
958.05        70.68268
958.44        73.66793
958.83        75.29437
959.22         74.9121
959.61        73.17388
960.00         71.0308
960.39        69.68707
960.78        69.38866
961.16        69.77462
961.55        70.43358
961.94        70.67896
962.33        70.27682
962.72         69.6069
963.11        68.91138
963.49        68.45242
963.88        68.31067
964.27        68.32842
964.66        68.58984
965.04        69.32878
965.43         70.4234
965.82        71.80251
966.21        73.05075
966.60         73.4158
966.98        72.77648
967.37        71.49005
967.76        69.98174
968.15        68.79871
968.53         68.0844
968.92        67.62439
969.31        67.62566
969.69        68.46744
970.08         70.0994
970.47        72.53996
970.86        74.91956
971.24        75.73318
971.63        74.63626
972.02        72.08532
972.40        69.35416
972.79        68.46449
973.17        69.77702
973.56        72.58141
973.95        75.80099
974.33         77.3961
974.72        76.65637
975.11        74.31601
975.49        71.38581
975.88        69.69384
976.26        69.72478
976.65        70.89886
977.04        72.65773
977.42        73.98757
977.81        74.34312
978.19        74.14924
978.58        73.69999
978.96        73.32804
979.35        73.23689
979.74        73.29552
980.12        73.52424
980.51        73.95697
980.89        74.62312
981.28        75.33765
981.66        76.26552
982.05        77.37051
982.43        78.68679
982.82        80.13707
983.20        81.14049
983.59        80.61187
983.97        78.48532
984.35        75.20525
984.74        72.07513
985.12        70.87932
985.51         71.8567
985.89        74.55679
986.28         77.6962
986.66        79.47256
987.04        79.14536
987.43         77.2743
987.81        74.62189
988.20        72.83298
988.58        72.37689
988.96         72.8396
989.35        73.40435
989.73        72.99678
990.12        71.32755
990.50        68.96413
990.88        66.62289
991.27         65.3932
991.65        65.50865
992.03        66.60775
992.42        68.29775
992.80        70.31483
993.18         72.3668
993.56        74.54829
993.95        76.44271
994.33         77.4298
994.71         77.2508
995.10        76.12215
995.48        74.62045
995.86        73.72283
996.24         73.6833
996.63        74.16792
997.01        75.07759
997.39        75.94863
997.77        76.53382
998.15        77.01568
998.54        77.14783
998.92        76.53758
999.30        75.16509
999.68        73.11759
1000.06        71.04536
1000.45        70.17372
1000.83        70.93747
1001.21        73.01492
1001.59        75.70731
1001.97        77.81211
1002.35        78.89425
1002.73        79.19894
1003.12        78.97265
1003.50        78.56848
1003.88        78.18949
1004.26        77.74839
1004.64        77.21027
1005.02         76.5779
1005.40        75.92366
1005.78        75.33517
1006.16        75.03129
1006.54        75.27316
1006.92        76.05973
1007.30         77.3088
1007.69        78.60302
1008.07        79.18154
1008.45        78.68194
1008.83        77.32484
1009.21        75.53286
1009.59          74.078
1009.97        73.24046
1010.35        72.76273
1010.73        72.69664
1011.11        73.09739
1011.49        73.82773
1011.86        74.92966
1012.24         75.6718
1012.62        75.11274
1013.00        73.03654
1013.38        69.55397
1013.76        65.48374
1014.14        62.69398
1014.52        62.01805
1014.90        63.21035
1015.28        65.18967
1015.66        66.11341
1016.04        65.47426
1016.41        63.72672
1016.79        61.92434
1017.17        62.00984
1017.55        64.16682
1017.93        67.30117
1018.31        70.14158
1018.69        71.74204
1019.06        72.24043
1019.44        71.70922
1019.82         70.9034
1020.20        71.79722
1020.58        74.98708
1020.95        79.16799
1021.33        82.34039
1021.71        82.74755
1022.09        80.24633
1022.46        74.82043
1022.84        67.48323
1023.22        61.91367
1023.60        60.80191
1023.97        63.09878
1024.35        66.66105
1024.73        69.28461
