SpectraSmart Spectrum 2.9.0.0
--------- Device Information -----------
Spectrum Name :  反射率_0
Saving Time :  2024/04/30 01:20:58
Spectro-Module Model Name : SE2030-DUVN
Spectro-Module Serial Number : OS361AC55029948
Wavelength Start : 200
Wavelength End : 1025
Wavelength Unit : Wavelength(nm)
Spectrum Unit : Reflectance(%)
-----------Spectrum Setting ------------
Integration Time : 20ms
Average : 10
Boxcar : 0
Background removal :  enabled
linearity correction :  enabled
SC :  disabled
Intensity correction :  disabled
DWT denoise :  enabled
savitzky-golay :  disabled
FFT :  disabled
Running average :  disabled
Kalman :  disabled
High pass :  disabled
---------------BEGIN--------------------
Wavelength(nm)             Reflectance(%)
200.29               0
200.75        72.13391
201.21        58.40986
201.67        45.37148
202.13        38.39048
202.58        39.87253
203.04        49.35645
203.50        64.76571
203.96        80.53839
204.42        92.53011
204.88        100.2677
205.34        101.7095
205.80        96.28728
206.26        87.33984
206.72        77.74713
207.18        69.86462
207.64         64.6663
208.10        61.35821
208.55        59.03606
209.01        57.69572
209.47        58.15807
209.93        60.07984
210.39        62.89613
210.85        64.84626
211.31        64.23932
211.77        60.81921
212.23        54.09561
212.69        45.27472
213.14        42.14971
213.60        47.93532
214.06        58.16056
214.52           67.57
214.98        73.31863
215.44        76.33832
215.90         78.1169
216.36        80.02736
216.81        84.44576
217.27        92.78932
217.73        105.6796
218.19        122.6367
218.65        136.4356
219.11        140.3278
219.57        135.4303
220.02        128.0594
220.48        124.0538
220.94        122.8882
221.40        123.5912
221.86        123.2451
222.32        116.1564
222.77        103.9437
223.23        92.97648
223.69        86.19025
224.15        84.21268
224.61        85.80503
225.06        90.17152
225.52        95.60079
225.98        97.71083
226.44        95.58945
226.90         91.5708
227.36         88.0649
227.81        86.67247
228.27        87.33824
228.73        89.22734
229.19        91.45585
229.65        92.19301
230.10        91.02268
230.56        89.32182
231.02        87.75828
231.48        86.91486
231.93        86.68489
232.39        86.84833
232.85        87.36422
233.31        88.34637
233.77        89.70354
234.22        91.56068
234.68        93.16813
235.14        93.31134
235.60        91.81232
236.05        89.05086
236.51        86.32838
236.97        85.24992
237.43        86.17319
237.88        89.20912
238.34        93.39847
238.80        96.46125
239.26        96.68463
239.71        94.66018
240.17        91.52193
240.63        89.09049
241.08        87.90413
241.54        87.22775
242.00        87.44276
242.46        89.23367
242.91        93.11543
243.37         98.1389
243.83        103.0759
244.28        107.5597
244.74        111.8516
245.20        115.4977
245.66        118.6424
246.11        121.6624
246.57        124.1666
247.03        127.0063
247.48        127.2023
247.94        119.5501
248.40         107.587
248.85        95.86879
249.31         88.8307
249.77        87.29929
250.22        90.72441
250.68        99.75764
251.14        114.2968
251.59        122.8724
252.05        117.0151
252.51        105.4001
252.96        96.05817
253.42        92.15391
253.88        91.67296
254.33        92.96457
254.79        94.64627
255.25        93.76258
255.70        90.39606
256.16        87.09826
256.62        84.93753
257.07         84.4531
257.53        85.64403
257.99        87.52417
258.44         88.9305
258.90        89.11631
259.35        87.68026
259.81        85.94151
260.27        84.22288
260.72        82.77596
261.18        81.89648
261.63        81.03718
262.09         80.3567
262.55        79.61388
263.00        78.69691
263.46        77.93713
263.91        77.10849
264.37        76.41241
264.83        75.71737
265.28        74.94115
265.74        74.23989
266.19        73.53485
266.65        72.93597
267.11        72.38016
267.56        71.83426
268.02        71.30119
268.47        70.71252
268.93        70.08697
269.38        69.36854
269.84        68.57963
270.30        67.72573
270.75        66.80991
271.21         65.8862
271.66        64.93631
272.12        63.97811
272.57        62.96827
273.03        61.94662
273.48         60.8653
273.94        59.82053
274.39         58.7723
274.85        57.81488
275.31        56.92521
275.76        56.05958
276.22        55.26561
276.67        54.47322
277.13        53.75338
277.58        53.02531
278.04        52.34895
278.49        51.60939
278.95        50.80349
279.40        49.87001
279.86        48.92909
280.31        47.98871
280.77        47.23427
281.22        46.63225
281.68         46.1816
282.13        45.80179
282.59        45.48359
283.04        45.14892
283.50        44.81165
283.95        44.38417
284.41        43.79406
284.86         43.0205
285.32         42.1617
285.77        41.25832
286.22        40.46584
286.68        39.83963
287.13        39.31378
287.59        38.90643
288.04        38.56066
288.50        38.28444
288.95        38.04021
289.41        37.84674
289.86        37.66142
290.32        37.50084
290.77        37.35928
291.22        37.19721
291.68        36.95698
292.13        36.62605
292.59        36.25109
293.04        35.97129
293.50        36.03616
293.95        36.45989
294.40        37.18234
294.86        37.95741
295.31        38.40911
295.77        38.45982
296.22        38.21403
296.68        37.94981
297.13        38.08006
297.58        38.69823
298.04        39.63056
298.49        40.61853
298.95        41.26706
299.40        41.47565
299.85        41.39576
300.31        41.20428
300.76        41.10008
301.21        41.18357
301.67        41.38698
302.12        41.65268
302.58        42.04646
303.03         42.5234
303.48         42.9674
303.94        43.29774
304.39        43.95709
304.84        43.93878
305.30        44.07297
305.75        44.09383
306.20        44.13126
306.66        44.22463
307.11        44.33419
307.57        44.47323
308.02         44.5679
308.47        44.62281
308.93        44.65897
309.38        44.67603
309.83        44.72948
310.29        44.82297
310.74        44.92709
311.19        44.98171
311.65         44.8889
312.10        44.63251
312.55        44.25963
313.00        43.87322
313.46        43.63084
313.91        43.55685
314.36        43.60857
314.82        43.70232
315.27        43.72227
315.72        43.61835
316.18        43.43198
316.63        43.18538
317.08        42.92607
317.53        42.68035
317.99        42.44329
318.44        42.21178
318.89        41.99236
319.35        41.78398
319.80        41.58276
320.25        41.41604
320.70        41.32274
321.16         41.2879
321.61         41.3186
322.06        41.31729
322.51        41.13707
322.97        40.75443
323.42        40.22328
323.87        39.67511
324.32        39.32452
324.78        39.20817
325.23        39.28275
325.68        39.41609
326.13        39.38607
326.59         39.1218
327.04        38.70626
327.49        38.23912
327.94         37.8984
328.39        37.73141
328.85        37.66527
329.30        37.65127
329.75         37.5442
330.20        37.30848
330.66        36.99908
331.11        36.68456
331.56        36.43657
332.01        36.28297
332.46        36.19036
332.92        36.14242
333.37        36.16348
333.82        36.22492
334.27        36.31778
334.72        36.39048
335.17        36.35642
335.63        36.19349
336.08        35.94711
336.53        35.64848
336.98        35.37764
337.43        35.17172
337.88        35.00989
338.34        34.91616
338.79        34.94498
339.24        35.08115
339.69        35.31331
340.14        35.53842
340.59        35.58226
341.05        35.41309
341.50        35.08238
341.95        34.71187
342.40        34.50654
342.85        34.51313
343.30        34.65917
343.75        34.85421
344.20        34.95302
344.66        34.91839
345.11        34.79649
345.56        34.61069
346.01        34.39103
346.46        34.17081
346.91        33.94791
347.36        33.77305
347.81        33.72702
348.26        33.81383
348.72        33.99835
349.17        34.22369
349.62        34.38021
350.07        34.42649
350.52        34.39217
350.97        34.28348
351.42        34.11304
351.87        33.90454
352.32        33.66444
352.77        33.44946
353.22        33.35384
353.67        33.39278
354.13        33.53017
354.58        33.71186
355.03        33.84518
355.48        33.89054
355.93        33.86719
356.38        33.76151
356.83         33.5578
357.28        33.26892
357.73        32.90482
358.18        32.52624
358.63        32.23162
359.08        32.04312
359.53        31.93738
359.98        31.86594
360.43        31.74404
360.88        31.54972
361.33        31.31315
361.78        31.05972
362.23        30.82837
362.68        30.63525
363.13        30.46706
363.58        30.32412
364.03        30.21053
364.48        30.11853
364.93        30.03926
365.38        29.96321
365.83        29.87352
366.28        29.76542
366.73        29.64991
367.18         29.5085
367.63         29.3136
368.08        29.06866
368.53        28.78161
368.98        28.51982
369.43         28.3907
369.88        28.41325
370.33        28.55891
370.78        28.72661
371.23        28.74968
371.68        28.58496
372.13        28.27098
372.58        27.91433
373.03        27.69143
373.48        27.64067
373.93        27.70481
374.38        27.77403
374.83        27.66929
375.28        27.35925
375.72        26.91675
376.17         26.4705
376.62        26.15012
377.07        25.98707
377.52        25.92563
377.97        25.93552
378.42        25.97018
378.87        26.00023
379.32         26.0397
379.77        26.04717
380.22        25.95919
380.67        25.76798
381.11        25.48161
381.56        25.17206
382.01        24.96499
382.46        24.89511
382.91        24.93773
383.36        25.00742
383.81        24.96863
384.26        24.79527
384.71         24.5267
385.15        24.25533
385.60        24.15373
386.05        24.23686
386.50        24.44321
386.95        24.64994
387.40        24.67027
387.85        24.47249
388.29        24.11443
388.74        23.74489
389.19        23.49215
389.64        23.38545
390.09        23.37437
390.54        23.40737
390.98        23.39806
391.43        23.33215
391.88        23.24223
392.33        23.14335
392.78        23.07415
393.23        23.04377
393.67        22.97903
394.12        22.90083
394.57        22.99583
395.02        22.92458
395.47        22.94767
395.91        22.94901
396.36        22.89083
396.81         22.7753
397.26        22.62191
397.71        22.45437
398.15         22.2974
398.60        22.19151
399.05        22.08489
399.50        21.97956
399.95        21.97186
400.39        21.94604
400.84        21.89579
401.29         21.7961
401.74        21.73773
402.18        21.72834
402.63        21.69967
403.08        21.67595
403.53        21.71248
403.97        21.80716
404.42        21.94261
404.87        22.04989
405.32        22.02011
405.76        21.83225
406.21          21.531
406.66        21.21352
407.11        21.03356
407.55        21.03226
408.00        21.16626
408.45        21.33973
408.90        21.37631
409.34        21.22887
409.79         20.9527
410.24        20.66993
410.68        20.56152
411.13        20.66465
411.58        20.92092
412.03        21.20459
412.47        21.30486
412.92          21.158
413.37        20.85065
413.81         20.5068
414.26        20.33727
414.71        20.37095
415.15        20.54367
415.60        20.75949
416.05        20.88082
416.49        20.86232
416.94        20.75518
417.39        20.59487
417.83        20.43124
418.28        20.29354
418.73        20.15777
419.17        20.05215
419.62        20.02649
420.07        20.08101
420.51        20.20304
420.96        20.33295
421.41        20.36118
421.85        20.26395
422.30        20.09601
422.74        19.91123
423.19        19.82452
423.64        19.84811
424.08        19.95209
424.53        20.08198
424.98        20.17557
425.42        20.20995
425.87        20.19341
426.31        20.12588
426.76        20.03662
427.21        19.87238
427.65        19.66698
428.10        19.46057
428.54          19.294
428.99        19.19588
429.44         19.2776
429.88        19.44378
430.33        19.29326
430.77        18.94784
431.22        19.05685
431.66        19.56056
432.11        19.78851
432.56        19.65506
433.00         19.4992
433.45        19.35834
433.89        19.11603
434.34        18.89217
434.78        18.91607
435.23        19.11825
435.67        19.17207
436.12        19.05402
436.57        18.93309
437.01        18.85832
437.46        18.84083
437.90         18.8907
438.35        18.99461
438.79        19.10688
439.24        19.12404
439.68        19.05796
440.13        19.02111
440.57        18.99877
441.02        18.97083
441.46        18.94633
441.91        18.79401
442.35        18.59756
442.80        18.88106
443.24        19.46849
443.69        19.42304
444.13        18.81347
444.58        18.54667
445.02        18.63119
445.47        18.58458
445.91         18.4049
446.36        18.32874
446.80        18.35493
447.24         18.4263
447.69        18.51359
448.13        18.56738
448.58        18.57522
449.02         18.5522
449.47        18.52034
449.91        18.50152
450.36        18.50668
450.80          18.526
451.25         18.5484
451.69        18.55339
452.13        18.53486
452.58        18.50745
453.02        18.48006
453.47         18.4635
453.91        18.45563
454.36        18.50521
454.80        18.50838
455.24        18.51351
455.69        18.49406
456.13        18.45366
456.58         18.4162
457.02        18.40102
457.46        18.41645
457.91        18.45303
458.35        18.48924
458.79        18.50279
459.24         18.4996
459.68        18.49673
460.13        18.50793
460.57        18.47108
461.01        18.53094
461.46        18.50022
461.90         18.4511
462.34        18.60433
462.79         18.8755
463.23        18.86003
463.68        18.59551
464.12        18.48592
464.56        18.54905
465.01        18.58622
465.45        18.56651
465.89        18.52694
466.34        18.49757
466.78        18.55681
467.22        18.72619
467.67        18.73906
468.11        18.60098
468.55        18.41371
468.99        18.25095
469.44        18.17948
469.88        18.21901
470.32        18.35356
470.77        18.51734
471.21        18.61699
471.65        18.61888
472.10         18.5591
472.54        18.47618
472.98        18.44868
473.42        18.49417
473.87        18.58307
474.31        18.67907
474.75        18.73343
475.20        18.73934
475.64        18.71283
476.08        18.67684
476.52        18.65391
476.97        18.65351
477.41        18.67386
477.85        18.72459
478.29        18.76355
478.74        18.88272
479.18        18.98976
479.62        19.08338
480.06        19.16264
480.50        19.23272
480.95         19.1264
481.39        19.15611
481.83        19.16363
482.27        19.26012
482.72        19.27994
483.16        19.47451
483.60        19.58425
484.04        19.66158
484.48        19.74971
484.93         19.8955
485.37        19.97407
485.81        19.92926
486.25        20.28279
486.69        20.06322
487.14        20.03164
487.58        20.22867
488.02        20.44143
488.46        20.81738
488.90        21.03651
489.34          20.434
489.79        20.39701
490.23        20.58203
490.67        20.87805
491.11         21.1219
491.55        21.06169
491.99        20.79272
492.43        20.80677
492.88        21.13026
493.32        21.43435
493.76        21.65715
494.20        21.88002
494.64        22.08903
495.08        22.26997
495.52        22.39947
495.96        22.46317
496.41        22.49516
496.85        22.45058
497.29        22.38318
497.73        22.69883
498.17        23.04136
498.61        23.10623
499.05        22.84917
499.49        22.77286
499.93        22.92115
500.37        23.08841
500.82         23.2406
501.26        23.37791
501.70        23.48665
502.14        23.59703
502.58        23.72212
503.02         23.8545
503.46        23.99538
503.90        24.14886
504.34         24.2954
504.78        24.40069
505.22        24.45685
505.66        24.46877
506.10         24.4546
506.54         24.4723
506.98        24.53775
507.42        24.58896
507.86        24.58776
508.30        24.74974
508.74        24.61832
509.18        24.57677
509.62        24.53124
510.06        24.55594
510.50        24.66055
510.94        24.82623
511.38        25.01694
511.82        25.16015
512.26        25.23218
512.70        25.24927
513.14        25.23237
513.58        25.21566
514.02        25.21207
514.46        25.21323
514.90        25.21071
515.34        25.19313
515.78        25.15966
516.22        25.11729
516.66        25.08367
517.10        25.08271
517.54        25.11554
517.98        25.17165
518.42        25.22228
518.86        25.22135
519.30         25.1612
519.74        25.06068
520.18        24.94901
520.62        24.87087
521.06        24.84031
521.50        24.84467
521.93        24.87793
522.37        24.92087
522.81        24.96602
523.25        25.01539
523.69        25.05797
524.13        25.07748
524.57        25.06934
525.01        25.03193
525.45         24.9754
525.89        24.92056
526.32        24.86985
526.76        24.82633
527.20        24.77711
527.64         24.7026
528.08        24.60276
528.52        24.48986
528.96        24.38294
529.40        24.31053
529.83        24.27807
530.27        24.27719
530.71        24.29337
531.15        24.30744
531.59        24.30839
532.03        24.29647
532.46        24.26616
532.90        24.21778
533.34        24.15341
533.78        24.08167
534.22        24.00435
534.66        23.92368
535.09        23.84362
535.53        23.77194
535.97         23.7312
536.41        23.76231
536.85        23.86547
537.28        24.02125
537.72        24.17974
538.16        24.26402
538.60        24.25607
539.04        24.18223
539.47        24.07389
539.91        24.00413
540.35        23.98776
540.79        24.01317
541.22        24.07206
541.66         24.1544
542.10        24.25171
542.54        24.37077
542.97        24.50768
543.41         24.6567
543.85        24.81262
544.29        24.97617
544.72        25.12879
545.16        25.26218
545.60        25.37322
546.04         25.4547
546.47        25.53392
546.91        25.69443
547.35        25.92569
547.79        26.12751
548.22        26.27141
548.66        26.45538
549.10        26.68063
549.53        26.80879
549.97         26.8073
550.41        27.17666
550.84        27.10644
551.28        27.21162
551.72        27.24772
552.15        27.44902
552.59        27.47672
553.03         27.6071
553.46        27.74344
553.90        27.88707
554.34        28.02753
554.77        28.18953
555.21        28.36019
555.65        28.44408
556.08        28.46034
556.52        28.55159
556.96        28.70097
557.39        28.81427
557.83        28.88169
558.27        28.89358
558.70        28.89329
559.14        28.98529
559.57        29.15393
560.01        29.34525
560.45        29.51542
560.88        29.51481
561.32        29.52098
561.75        29.55494
562.19        29.66723
562.63        29.72928
563.06        29.73843
563.50        29.78674
563.93        29.85906
564.37        29.91713
564.80        29.95145
565.24        29.98994
565.68         30.0406
566.11        30.12013
566.55         30.2393
566.98        30.37327
567.42        30.54335
567.85        30.69563
568.29        30.81784
568.72        31.03521
569.16         31.3975
569.60        31.23717
570.03        31.50385
570.47        31.81664
570.90        31.85158
571.34        31.93265
571.77        32.12991
572.21        32.27903
572.64         32.4246
573.08        32.50254
573.51        32.55174
573.95        32.67151
574.38        32.95563
574.82        32.87718
575.25        33.08888
575.69        32.98215
576.12        32.75805
576.56        33.14434
576.99        33.39285
577.42        33.14091
577.86        33.17628
578.29        33.08374
578.73        33.18963
579.16        33.05566
579.60        33.03753
580.03        32.83114
580.47        33.07294
580.90        32.93384
581.33        32.60098
581.77        32.85981
582.20         32.7277
582.64        32.68532
583.07        32.24667
583.51        31.95962
583.94        31.92794
584.37        31.75922
584.81        31.53383
585.24        31.75173
585.68        32.08212
586.11        32.02668
586.54        31.43652
586.98        31.33917
587.41        31.65544
587.85         31.5511
588.28        31.40785
588.71        31.73463
589.15        31.37133
589.58        31.16442
590.01         31.2818
590.45        31.26121
590.88        31.30145
591.31        31.37396
591.75        31.39594
592.18         31.5132
592.61        31.81994
593.05        30.96426
593.48        31.61118
593.91        31.64501
594.35        31.25809
594.78        31.27815
595.21        31.50215
595.65        31.95424
596.08        31.64029
596.51         32.1186
596.94        32.14466
597.38        32.43375
597.81        32.65883
598.24         32.7887
598.68         33.1395
599.11         33.1622
599.54        33.85394
599.97        34.09418
600.41        33.87906
600.84        34.27863
601.27        34.51186
601.70        34.99587
602.14        35.42357
602.57        35.64401
603.00        35.69882
603.43        36.00127
603.87        36.43675
604.30        36.99389
604.73        37.18526
605.16        37.52134
605.60        37.86706
606.03        38.30292
606.46        38.73493
606.89        39.08181
607.32        39.36314
607.76        39.65049
608.19        39.97728
608.62        40.23785
609.05        40.43266
609.48        40.76332
609.92        41.27372
610.35        41.08154
610.78        41.68148
611.21         41.8469
611.64        42.06843
612.07         42.3025
612.50        42.55393
612.94        42.90521
613.37        43.46909
613.80        43.38508
614.23        43.93903
614.66        44.17429
615.09         44.4757
615.52        44.69094
615.96         44.7695
616.39        45.21251
616.82        44.86449
617.25         45.1864
617.68        45.24846
618.11          45.474
618.54        45.64524
618.97        45.75521
619.40         45.8587
619.84        46.00706
620.27        46.22439
620.70        46.58676
621.13        46.98156
621.56        46.78577
621.99        46.61861
622.42        46.35626
622.85        46.87094
623.28        46.96659
623.71        47.31443
624.14        46.45263
624.57         47.1535
625.00        47.07092
625.43         46.9731
625.86        46.84505
626.29        46.73259
626.72        46.63375
627.15        46.52451
627.58        46.52766
628.01        46.56507
628.44        46.26305
628.87        45.72204
629.30        45.55796
629.73        45.74405
630.16        45.69258
630.59        45.36963
631.02        45.21795
631.45        45.03498
631.88        44.82712
632.31        44.52657
632.74        44.18058
633.17        43.80228
633.60         43.4129
634.03        43.02306
634.46        42.64337
634.89        42.27352
635.32        41.85917
635.75        41.42926
636.18        41.11921
636.61         40.8936
637.04        40.57766
637.47         40.1664
637.89        39.72813
638.32        39.27925
638.75        38.92884
639.18        38.71288
639.61        38.22793
640.04        38.15524
640.47        37.91891
640.90        37.71567
641.33        37.53941
641.76        37.38504
642.18         37.2353
642.61        37.07114
643.04        36.90318
643.47        36.76365
643.90        36.69265
644.33         36.6947
644.76        36.80831
645.18        36.96866
645.61        36.96901
646.04        36.76047
646.47        36.78904
646.90        37.03154
647.33        37.20056
647.75          37.286
648.18        37.48454
648.61        37.76828
649.04        38.01348
649.47        38.22461
649.89        38.41398
650.32        38.61638
650.75        39.03797
651.18        39.63518
651.61        40.05583
652.03         40.3427
652.46        40.87588
652.89        41.51159
653.32        41.88818
653.74        42.18839
654.17        41.97978
654.60        41.98273
655.03        43.76968
655.46        42.94205
655.88        43.89498
656.31        47.13044
656.74        48.02782
657.16        46.76439
657.59         45.3399
658.02        45.28693
658.45        46.12542
658.87        46.86993
659.30        46.65027
659.73        47.11961
660.15        47.39681
660.58        47.59791
661.01        47.86435
661.44         48.0587
661.86        48.02807
662.29        47.86019
662.72        48.06223
663.14        48.58738
663.57        48.73141
664.00        48.55573
664.42        48.67055
664.85        49.11299
665.27        49.53415
665.70          49.856
666.13        50.13221
666.55        50.34546
666.98        50.47861
667.41        50.55652
667.83        50.61536
668.26        50.66451
668.69        50.70365
669.11         50.7596
669.54        50.84732
669.96        50.96458
670.39        51.19577
670.82        51.48301
671.24         51.5134
671.67        51.36687
672.09         51.5631
672.52        52.04349
672.94        52.34891
673.37        52.05687
673.80        52.35749
674.22        52.15839
674.65        52.38831
675.07         52.7353
675.50        53.05945
675.92        53.29347
676.35        53.50139
676.77        53.58313
677.20        53.55318
677.62        53.45719
678.05        53.45306
678.47        53.56864
678.90        53.76601
679.32        53.99008
679.75        54.13324
680.17        54.16046
680.60        54.16395
681.02        54.20405
681.45        54.09743
681.87        54.29791
682.30         54.4496
682.72        54.65206
683.15        54.75014
683.57        54.77718
684.00        54.90058
684.42        55.10946
684.85        55.28884
685.27        55.43438
685.70        55.54245
686.12        55.64904
686.54          56.001
686.97        56.49562
687.39        56.72767
687.82        56.65588
688.24        56.64089
688.66        56.69242
689.09        56.59094
689.51        56.39161
689.94        56.29749
690.36        56.33547
690.78        56.45874
691.21        56.63102
691.63        56.79242
692.06        56.91942
692.48        57.03786
692.90        57.15159
693.33         57.2592
693.75        57.36111
694.17        57.44169
694.60        57.51067
695.02        57.57029
695.44        57.61551
695.87        57.74939
696.29        57.93624
696.71        57.84975
697.14        57.60411
697.56        57.74698
697.98        58.22652
698.41        58.50722
698.83        58.55191
699.25        58.66502
699.68        58.82819
700.10        58.92432
700.52        58.94059
700.94          58.903
701.37        58.81176
701.79        58.81127
702.21        58.71431
702.64        58.68609
703.06        58.70472
703.48        58.84282
703.90        59.10307
704.33        59.46845
704.75        59.84309
705.17        60.12158
705.59        60.24743
706.01        60.25496
706.44         60.1861
706.86        60.12716
707.28        60.11077
707.70        60.09922
708.12        60.11751
708.55        60.24096
708.97        60.44686
709.39        60.61312
709.81         60.7361
710.23        60.92582
710.66        61.16772
711.08         61.3928
711.50        61.56728
711.92         61.7126
712.34        61.82779
712.76        61.90489
713.19        61.94125
713.61        61.97558
714.03        62.00243
714.45        62.02692
714.87        62.06214
715.29        62.12305
715.71        62.21139
716.13        62.32235
716.56        62.42809
716.98        62.55606
717.40        62.67316
717.82        62.77824
718.24        62.85926
718.66        62.90119
719.08        62.90374
719.50        62.86937
719.92        62.82312
720.34         62.8062
720.76        62.82808
721.19        62.87333
721.61        62.92729
722.03         62.9383
722.45        62.89721
722.87        62.82251
723.29        62.74405
723.71         62.7093
724.13        62.73112
724.55        62.79372
724.97        62.88315
725.39        62.96748
725.81        63.03676
726.23        63.11852
726.65        63.21036
727.07        63.24226
727.49        63.32425
727.91        63.35592
728.33        63.39266
728.75         63.5145
729.17        63.73646
729.59        63.95397
730.01        64.06682
730.43        64.34032
730.85         64.1581
731.27        63.90107
731.69        63.78028
732.10        63.73485
732.52        63.87292
732.94         64.1266
733.36        64.46726
733.78        64.75838
734.20        64.94355
734.62        65.22942
735.04        65.51759
735.46        65.31798
735.88        64.81772
736.30        64.79354
736.72        65.23896
737.13        65.65919
737.55        65.81085
737.97        65.50698
738.39        64.91034
738.81        64.50709
739.23        64.47211
739.65        64.90681
740.06        65.55992
740.48        65.84521
740.90        65.67349
741.32        65.37383
741.74        65.09066
742.16        64.92702
742.57        64.95783
742.99        65.12278
743.41        65.35844
743.83         65.5795
744.25        65.73434
744.67         65.7864
745.08        65.77345
745.50        65.80424
745.92        65.90186
746.34        65.99107
746.75        66.05756
747.17        66.11084
747.59        66.15209
748.01        66.19195
748.42        66.22859
748.84        66.25549
749.26        66.28997
749.68        66.25616
750.09        66.19024
750.51        66.36132
750.93        66.67753
751.35          66.714
751.76        66.51155
752.18        66.48058
752.60        66.63739
753.01        66.76231
753.43        66.80874
753.85        66.80972
754.27        66.76901
754.68        66.83196
755.10        66.79807
755.52        66.85474
755.93        66.91913
756.35        66.95206
756.77        67.02956
757.18        67.22339
757.60        67.53592
758.02        68.17516
758.43        68.75984
758.85        68.60824
759.26        67.08313
759.68        66.70737
760.10         67.2107
760.51        68.03145
760.93        67.72977
761.34         67.9309
761.76        68.16975
762.18        68.06007
762.59        67.67393
763.01        67.32208
763.42         67.1342
763.84        67.03864
764.26        67.09295
764.67        67.20625
765.09        67.38884
765.50        67.91104
765.92        68.60906
766.33        68.55198
766.75        68.11351
767.16        67.82925
767.58        67.90452
768.00        67.74346
768.41        67.45506
768.83        67.82864
769.24        68.59871
769.66         68.6323
770.07        67.99662
770.49        67.63143
770.90        67.67209
771.32        67.90628
771.73        68.22943
772.15        68.35355
772.56        68.26051
772.97        68.26477
773.39        67.94898
773.80        68.38634
774.22        68.62894
774.63        68.88368
775.05        68.84965
775.46        68.86246
775.88        68.89613
776.29        68.79774
776.70        68.59779
777.12        68.46135
777.53        68.41347
777.95        68.37524
778.36        68.40849
778.77        68.53301
779.19        68.73284
779.60        69.24001
780.02        69.81833
780.43        69.70286
780.84        69.06672
781.26        68.87565
781.67        69.23396
782.09        69.80897
782.50          70.367
782.91        70.36124
783.33        69.82478
783.74        69.52623
784.15         69.5089
784.57        69.25328
784.98        68.84123
785.39        68.69131
785.81        68.84669
786.22        69.19807
786.63        69.66042
787.04        70.04305
787.46        70.31799
787.87        70.62764
788.28        70.95082
788.70        71.11829
789.11        71.11699
789.52         71.0848
789.93        71.03004
790.35        70.85201
790.76        70.61973
791.17        70.52679
791.58        70.61328
792.00         70.7176
792.41        70.83694
792.82        71.16939
793.23        71.61531
793.65        71.63588
794.06        71.34869
794.47        71.51647
794.88        71.99886
795.29        72.00195
795.71        71.47255
796.12        70.87392
796.53         70.4023
796.94         70.2301
797.35        70.44805
797.76        71.00822
798.18        71.67708
798.59        72.11874
799.00        72.21243
799.41        72.02004
799.82        71.72999
800.23        71.52441
800.64        71.50355
801.06        71.56264
801.47        71.70627
801.88        71.88444
802.29        72.05988
802.70        72.20243
803.11        72.29464
803.52        72.38175
803.93        72.43057
804.34        72.27467
804.75        71.93456
805.17        71.70412
805.58        71.68569
805.99        71.50555
806.40        71.28006
806.81        71.85128
807.22        72.92553
807.63        72.98812
808.04        72.16194
808.45        71.99696
808.86        72.59979
809.27        73.06716
809.68        73.23434
810.09        73.28134
810.50        73.17175
810.91        72.85526
811.32        72.49318
811.73         72.3446
812.14        72.46568
812.55        72.80376
812.96        73.19289
813.37        73.31116
813.78        73.08549
814.19        72.65295
814.60        72.18116
815.01        71.89839
815.42        71.86272
815.83        71.98879
816.24        72.24725
816.65        72.57532
817.05        72.90942
817.46        73.22197
817.87         73.4448
818.28        73.42319
818.69         73.1504
819.10        72.67145
819.51        72.13983
819.92        71.85449
820.33        71.91235
820.74         72.2227
821.14        72.68138
821.55        73.12686
821.96         73.4856
822.37        73.80979
822.78        74.03981
823.19        74.07042
823.60        73.88895
824.00        73.50798
824.41        73.06971
824.82        72.84345
825.23        72.88749
825.64        73.15274
826.04        73.50026
826.45        73.59106
826.86        73.36906
827.27        72.93709
827.68        72.47293
828.08        72.27826
828.49        72.38489
828.90        72.73494
829.31        73.20907
829.72        73.60046
830.12        73.86588
830.53        73.99104
830.94        74.07983
831.35        74.26118
831.75        74.58199
832.16        74.90671
832.57        75.17968
832.97         75.2767
833.38        75.17339
833.79        74.97506
834.20        74.70491
834.60        74.36823
835.01        74.03142
835.42        73.66724
835.82        73.46854
836.23        73.68681
836.64        74.36448
837.04        75.44024
837.45        76.48471
837.86        76.92639
838.26        76.61271
838.67        75.73476
839.08        74.63251
839.48        73.81987
839.89        73.50053
840.29        73.52219
840.70        73.79267
841.11        74.17526
841.51        74.61252
841.92        75.11071
842.33        75.61523
842.73        75.99931
843.14        76.16806
843.54        76.15965
843.95        76.01461
844.35        75.89065
844.76        75.81065
845.17        75.72583
845.57        75.64878
845.98        75.55971
846.38        75.46998
846.79        75.40136
847.19        75.27903
847.60        74.91943
848.00        74.33773
848.41        73.61082
848.81         72.9757
849.22        72.77875
849.62        73.12022
850.03        73.86413
850.43        74.82467
850.84        75.45484
851.24        75.64745
851.65        75.43469
852.05        75.06844
852.46        74.91882
852.86        75.05334
853.27        75.38808
853.67        75.64398
854.07        75.65459
854.48        75.33481
854.88         74.7808
855.29        74.07906
855.69        73.63699
856.10        73.49975
856.50         73.6836
856.90        73.92861
857.31        73.86781
857.71        73.47902
858.12        72.85197
858.52        72.27345
858.92        72.15688
859.33        72.57801
859.73        73.42386
860.13        74.41869
860.54        75.13501
860.94        75.47459
861.34        75.46003
861.75        75.15678
862.15        74.75642
862.55        74.31622
862.96         73.8347
863.36        73.26495
863.76        72.55346
864.17        71.75414
864.57        70.95798
864.97        70.34022
865.38        70.09882
865.78           70.29
866.18        70.81547
866.58        71.54165
866.99        72.16735
867.39        72.59494
867.79        72.84931
868.19        72.87675
868.60        72.61065
869.00        72.09544
869.40        71.35442
869.80        70.69218
870.21        70.62588
870.61        71.29972
871.01        72.51493
871.41        73.83926
871.81        74.57982
872.22        74.54229
872.62        73.90812
873.02        72.98808
873.42        72.31479
873.82        72.08533
874.22        72.20261
874.63        72.44611
875.03        72.47685
875.43        72.22501
875.83        71.78658
876.23        71.50861
876.63        71.94086
877.03        73.14198
877.44        74.85416
877.84        76.51268
878.24        77.11022
878.64        76.45932
879.04        74.94466
879.44        73.19492
879.84        72.13506
880.24         71.9788
880.64        72.40892
881.04        73.16941
881.44        73.82713
881.84         74.2057
882.24        74.48672
882.65        74.52508
883.05        74.20367
883.45        73.51774
883.85         72.5358
884.25        71.66647
884.65        71.55218
885.05        72.28093
885.45        73.62211
885.85        75.17989
886.25        76.24971
886.65        76.57029
887.05        76.34602
887.45        75.64834
887.85        74.64133
888.25        73.52696
888.65        72.34333
889.04        71.35371
889.44        70.98026
889.84        71.21107
890.24        71.96842
890.64        73.01509
891.04        73.79377
891.44        74.07112
891.84        73.99629
892.24        73.71658
892.64        73.46415
893.04        73.31847
893.44        73.18262
893.83        73.16241
894.23        73.37646
894.63        73.84985
895.03        74.55042
895.43        75.24326
895.83        75.55951
896.23        75.41706
896.63        74.87838
897.02        74.18975
897.42        73.83228
897.82        73.90572
898.22          74.327
898.62        74.76527
899.01        74.67574
899.41        73.95493
899.81        72.81064
900.21        71.72803
900.61        71.43961
901.00        72.07201
901.40        73.37032
901.80         74.7958
902.20        75.46533
902.59         75.1424
902.99        74.10849
903.39        72.82229
903.79        71.97269
904.18        71.75528
904.58        71.99768
904.98        72.43652
905.38        72.68045
905.77        72.59818
906.17        72.31711
906.57        72.05447
906.96        72.16284
907.36        72.67412
907.76        73.49078
908.15        74.27522
908.55        74.35636
908.95        73.68538
909.34        72.48949
909.74        71.36698
910.14        71.10151
910.53        71.88237
910.93        73.37915
911.33        75.20682
911.72        76.76079
912.12        77.71358
912.52        78.23756
912.91        78.36082
913.31        78.13052
913.70        77.63991
914.10        76.84918
914.49        75.91081
914.89        75.05808
915.29         74.3912
915.68        73.91889
916.08        73.67388
916.47        73.53249
916.87        73.50677
917.26        73.58324
917.66        73.78465
918.05        74.17171
918.45        74.67159
918.84        75.27438
919.24         75.7645
919.64        75.95007
920.03        75.78961
920.42        75.32717
920.82        74.76452
921.21        74.31293
921.61        74.06039
922.00        73.98032
922.40        74.01688
922.79        74.15193
923.19        74.32818
923.58        74.57926
923.98        74.86641
924.37        75.13695
924.77        75.35989
925.16        75.52453
925.55          75.631
925.95        75.69753
926.34        75.74925
926.74         75.7723
927.13          75.742
927.52        75.58673
927.92        75.31302
928.31        74.92862
928.70        74.55177
929.10        74.35094
929.49        74.35954
929.89        74.50903
930.28         74.6701
930.67        74.53563
931.07        74.05833
931.46        73.38652
931.85        72.70757
932.24        72.29951
932.64        72.24577
933.03        72.46822
933.42        72.91406
933.82        73.46655
934.21        74.06098
934.60        74.64974
934.99        75.19405
935.39        75.61481
935.78        75.93875
936.17        76.15288
936.56        76.09109
936.96        75.55515
937.35        74.59576
937.74         73.3489
938.13        72.26868
938.53        71.91672
938.92        72.32822
939.31        73.40062
939.70        74.68181
940.09        75.28433
940.49        74.93044
940.88        73.90003
941.27        72.70143
941.66        72.10025
942.05        72.27769
942.44        73.04066
942.84        73.98276
943.23        74.45022
943.62        74.19071
944.01        73.42036
944.40        72.62779
944.79        72.51938
945.18        73.22955
945.57        74.54048
945.97         75.8521
946.36        76.38712
946.75        75.82184
947.14        74.43431
947.53        72.88065
947.92        72.13928
948.31        72.45216
948.70        73.57892
949.09        74.92773
949.48        75.42992
949.87        74.79861
950.26        73.40102
950.65        71.95338
951.04        71.44145
951.43        72.06912
951.82        73.56101
952.21        75.29201
952.60        76.11842
952.99        75.69053
953.38        74.36657
953.77         72.9054
954.16        72.31859
954.55        72.80973
954.94         74.1621
955.33         75.6972
955.72        76.00217
956.11        74.66364
956.50         72.2346
956.89        69.82133
957.28          68.817
957.66        69.51452
958.05        71.45564
958.44        73.85062
958.83        75.08719
959.22        74.61304
959.61        72.98438
960.00        71.07633
960.39        69.99822
960.78        69.96517
961.16        70.67099
961.55        71.61295
961.94        71.91784
962.33        71.31026
962.72        70.20303
963.11        69.08259
963.49        68.56738
963.88        68.79312
964.27        69.52909
964.66         70.5741
965.04         71.6402
965.43        72.46676
965.82        73.13944
966.21         73.6066
966.60        73.76299
966.98        73.64108
967.37          73.326
967.76        72.88856
968.15        72.43772
968.53        71.99688
968.92        71.44788
969.31        71.09426
969.69        71.49323
970.08        72.67834
970.47        74.66234
970.86        76.47856
971.24        76.47282
971.63        74.36493
972.02        70.77417
972.40        67.32159
972.79        66.46375
973.17        68.59089
973.56        72.82315
973.95         77.6943
974.33        80.45505
974.72        80.13184
975.11        77.61116
975.49         74.1634
975.88        72.08154
976.26        71.99766
976.65        73.16759
977.04        74.93365
977.42        76.11934
977.81        76.12456
978.19        75.50237
978.58        74.56172
978.96        73.60497
979.35        72.85643
979.74        72.18464
980.12        71.73495
980.51        71.77179
980.89        72.37807
981.28          73.324
981.66        74.59211
982.05        75.82448
982.43        76.96279
982.82        78.01344
983.20        78.57423
983.59        77.89748
983.97        76.00121
984.35        73.19157
984.74        70.62223
985.12        69.87263
985.51        71.13949
985.89        74.07985
986.28        77.41982
986.66         79.3649
987.04        79.19373
987.43        77.41154
987.81        74.94398
988.20        73.72604
988.58        74.25745
988.96        76.04869
989.35        77.85211
989.73        77.89138
990.12        75.73143
990.50        72.13972
990.88        68.39814
991.27        66.53367
991.65        67.01122
992.03        69.19591
992.42        72.16767
992.80        74.83389
993.18        76.67928
993.56        78.01985
993.95        78.82269
994.33        79.21098
994.71        79.17344
995.10        78.67804
995.48        77.91585
995.86         77.3102
996.24        76.99437
996.63        76.84045
997.01        77.02399
997.39        77.55332
997.77        78.34584
998.15        79.40193
998.54        80.29459
998.92         80.3873
999.30        79.55459
999.68        77.93267
1000.06        76.13767
1000.45        75.32451
1000.83        75.92275
1001.21        77.62116
1001.59        79.77463
1001.97        81.27629
1002.35        81.79328
1002.73        81.65578
1003.12        81.21452
1003.50        80.95184
1003.88        81.07359
1004.26         81.3787
1004.64        81.80128
1005.02        82.26678
1005.40        82.68506
1005.78        83.07466
1006.16        83.37911
1006.54        83.48383
1006.92        83.37788
1007.30        83.10332
1007.69        82.59666
1008.07         81.9565
1008.45        81.21242
1008.83        80.39118
1009.21        79.77203
1009.59         79.7819
1009.97        80.45902
1010.35        81.63895
1010.73        82.89151
1011.11        83.48885
1011.49        83.27647
1011.86        82.60052
1012.24        81.56825
1012.62         80.5853
1013.00        79.78111
1013.38        78.92586
1013.76        78.34118
1014.14        78.68922
1014.52        80.02335
1014.90        82.13249
1015.28        83.90372
1015.66        83.58932
1016.04         80.8802
1016.41        76.36282
1016.79        71.33296
1017.17        68.61308
1017.55        69.02586
1017.93        71.34614
1018.31        74.35269
1018.69        77.19083
1019.06        80.04296
1019.44        83.37186
1019.82        87.47986
1020.20        91.45351
1020.58        93.84658
1020.95        94.09888
1021.33        92.82456
1021.71        90.92588
1022.09        88.48178
1022.46        84.91827
1022.84        80.53369
1023.22        76.59882
1023.60        74.60039
1023.97        74.77432
1024.35        75.98494
1024.73         76.6843
