SpectraSmart Spectrum 2.9.0.0
--------- Device Information -----------
Spectrum Name :  反射率_0
Saving Time :  2024/04/30 01:16:15
Spectro-Module Model Name : SE2030-DUVN
Spectro-Module Serial Number : OS361AC55029948
Wavelength Start : 200
Wavelength End : 1025
Wavelength Unit : Wavelength(nm)
Spectrum Unit : Reflectance(%)
-----------Spectrum Setting ------------
Integration Time : 20ms
Average : 10
Boxcar : 0
Background removal :  enabled
linearity correction :  enabled
SC :  disabled
Intensity correction :  disabled
DWT denoise :  enabled
savitzky-golay :  disabled
FFT :  disabled
Running average :  disabled
Kalman :  disabled
High pass :  disabled
---------------BEGIN--------------------
Wavelength(nm)             Reflectance(%)
200.29               0
200.75        39.38598
201.21        28.06458
201.67        14.12683
202.13        2.380591
202.58        -4.80295
203.04        -7.86019
203.50       -6.561491
203.96      -0.7993928
204.42        8.442573
204.88        20.38151
205.34        31.95485
205.80         38.2104
206.26        38.95604
206.72        37.04216
207.18        33.61408
207.64        29.19048
208.10        23.85523
208.55        16.82308
209.01        10.56918
209.47        11.18908
209.93        18.74715
210.39        29.76511
210.85        38.57935
211.31        40.39784
211.77        34.84499
212.23         21.2939
212.69        2.073941
213.14       -6.999601
213.60        2.282542
214.06        20.71809
214.52         36.9832
214.98        44.01265
215.44        43.19597
215.90        37.63109
216.36        30.48067
216.81        27.56951
217.27        32.04607
217.73        43.31927
218.19        60.80261
218.65        76.22824
219.11        81.76107
219.57        79.36273
220.02        73.98512
220.48        70.11785
220.94        67.56348
221.40        64.54166
221.86        60.35229
222.32        55.66592
222.77        52.04962
223.23        50.74336
223.69        50.01041
224.15        48.05082
224.61        44.66218
225.06        39.93317
225.52        35.56535
225.98        35.22394
226.44        39.12628
226.90        44.67303
227.36        49.40812
227.81        51.91699
228.27        52.60592
228.73        52.03303
229.19        51.03397
229.65        51.14235
230.10        52.46117
230.56        54.21178
231.02        55.42774
231.48        55.30618
231.93        53.85966
232.39        51.55515
232.85        48.97569
233.31        47.31342
233.77        46.99645
234.22        47.78153
234.68         49.0483
235.14        49.66074
235.60        49.30951
236.05        48.41911
236.51        47.60814
236.97        47.61635
237.43        48.65491
237.88        50.68007
238.34        53.40327
238.80        56.25211
239.26        58.34165
239.71        59.66936
240.17        59.85032
240.63        58.81974
241.08        56.47087
241.54        51.73396
242.00        44.31224
242.46        37.90515
242.91        38.07566
243.37        45.23043
243.83        54.43147
244.28         59.6672
244.74        59.94811
245.20        56.28815
245.66        49.70344
246.11        43.26331
246.57        39.37138
247.03        37.27531
247.48        36.89396
247.94        37.59207
248.40        38.79131
248.85        40.19275
249.31        42.14645
249.77        44.99006
250.22        49.30849
250.68        56.15812
251.14        65.36462
251.59        69.59628
252.05        64.51361
252.51        56.48561
252.96        50.36059
253.42        47.61234
253.88        47.08539
254.33        47.72031
254.79        49.72857
255.25        52.31014
255.70        54.36408
256.16        56.11575
256.62        57.29457
257.07        57.80301
257.53        58.16787
257.99         58.2964
258.44         58.0658
258.90        57.98843
259.35        57.71693
259.81        57.49012
260.27        57.20215
260.72        56.80548
261.18        56.45755
261.63        55.92703
262.09        55.26341
262.55        54.20526
263.00        52.80706
263.46        51.44611
263.91         50.1315
264.37        49.14939
264.83         48.4177
265.28         47.7728
265.74        47.36041
266.19        47.17215
266.65        47.22201
267.11        47.42939
267.56        47.53373
268.02        47.17374
268.47        46.27707
268.93        44.96155
269.38        43.49804
269.84        42.48545
270.30        42.06285
270.75        42.04942
271.21        42.14878
271.66        41.88449
272.12        41.16225
272.57        40.12096
273.03        38.97992
273.48        37.99418
273.94        37.31043
274.39        36.78469
274.85         36.3872
275.31        35.99755
275.76        35.55681
276.22        35.14281
276.67        34.71278
277.13        34.30233
277.58        33.86301
278.04        33.41702
278.49        32.93009
278.95        32.46436
279.40        31.98135
279.86        31.55274
280.31         31.1039
280.77        30.64557
281.22        30.15207
281.68        29.67583
282.13        29.27508
282.59        29.08992
283.04        29.08843
283.50        29.19758
283.95        29.27745
284.41        29.13744
284.86        28.72955
285.32        28.17857
285.77        27.52138
286.22        26.88108
286.68        26.32199
287.13        25.78658
287.59        25.37288
288.04        25.17319
288.50        25.19658
288.95        25.36767
289.41        25.56226
289.86          25.548
290.32        25.30609
290.77        24.90956
291.22        24.45294
291.68        24.09091
292.13        23.87479
292.59        23.77938
293.04        23.84806
293.50        24.17198
293.95        24.72994
294.40        25.49055
294.86        26.28082
295.31         26.8396
295.77        27.10178
296.22        27.12721
296.68        27.07589
297.13        27.18727
297.58        27.53346
298.04        28.01483
298.49        28.53089
298.95         28.9163
299.40        29.12817
299.85        29.23756
300.31        29.30069
300.76        29.34357
301.21        29.41117
301.67        29.48569
302.12        29.56845
302.58        29.80437
303.03        30.18871
303.48        30.55365
303.94        30.78501
304.39        31.43103
304.84         31.2556
305.30        31.26972
305.75        31.19854
306.20        31.24636
306.66        31.44282
307.11        31.72525
307.57        31.99879
308.02         32.0531
308.47        31.87025
308.93        31.52485
309.38        31.13256
309.83        30.92005
310.29        30.93456
310.74        31.10214
311.19        31.28422
311.65        31.26043
312.10        30.98546
312.55        30.54085
313.00         30.0715
313.46        29.79915
313.91        29.76203
314.36        29.88389
314.82        30.04561
315.27        30.07804
315.72        29.92039
316.18        29.64001
316.63        29.28352
317.08        28.93428
317.53        28.63291
317.99        28.36133
318.44         28.1268
318.89        27.94818
319.35        27.82247
319.80        27.74624
320.25        27.70773
320.70        27.68106
321.16        27.64141
321.61        27.60115
322.06        27.52363
322.51        27.36519
322.97        27.12256
323.42        26.81357
323.87        26.49205
324.32         26.2487
324.78        26.09605
325.23        26.02476
325.68        25.97642
326.13        25.85258
326.59        25.62481
327.04        25.33686
327.49        25.03654
327.94        24.81282
328.39        24.68286
328.85        24.59955
329.30        24.54176
329.75        24.43519
330.20        24.26287
330.66        24.06299
331.11        23.84097
331.56         23.5804
332.01        23.29225
332.46        22.96865
332.92         22.6953
333.37         22.6481
333.82        22.84681
334.27        23.24192
334.72        23.65401
335.17        23.77997
335.63        23.54127
336.08        23.02874
336.53        22.41153
336.98        21.99992
337.43        21.89337
337.88        22.00251
338.34        22.21772
338.79        22.38164
339.24        22.43088
339.69        22.42739
340.14        22.38908
340.59        22.33937
341.05        22.29294
341.50        22.21875
341.95        22.14164
342.40        22.11964
342.85        22.15417
343.30        22.22812
343.75        22.27529
344.20        22.18636
344.66        21.95451
345.11        21.61771
345.56        21.25379
346.01        20.98269
346.46        20.84814
346.91         20.8215
347.36        20.87482
347.81        20.96482
348.26        21.06714
348.72        21.18246
349.17         21.2994
349.62         21.3983
350.07        21.46502
350.52        21.49526
350.97        21.47068
351.42        21.37016
351.87        21.20479
352.32        20.99691
352.77        20.80057
353.22        20.70016
353.67        20.71603
354.13        20.81986
354.58        20.97728
355.03        21.12924
355.48        21.24602
355.93        21.33785
356.38        21.38186
356.83        21.34762
357.28        21.23679
357.73        21.05516
358.18        20.85155
358.63        20.70798
359.08        20.64015
359.53        20.62509
359.98        20.61565
360.43        20.53255
360.88        20.35907
361.33        20.12808
361.78        19.87485
362.23        19.65231
362.68        19.48223
363.13        19.35256
363.58        19.26003
364.03        19.19934
364.48        19.16152
364.93        19.14177
365.38         19.1321
365.83        19.11926
366.28        19.09421
366.73        19.05565
367.18        18.98565
367.63        18.85972
368.08        18.67969
368.53        18.45835
368.98        18.23618
369.43        18.07731
369.88        18.00028
370.33        17.99174
370.78        18.01776
371.23        18.02002
371.68        17.97687
372.13        17.89544
372.58         17.7983
373.03         17.7243
373.48        17.67819
373.93        17.64409
374.38        17.58331
374.83        17.43694
375.28        17.20554
375.72        16.92001
376.17         16.6538
376.62        16.47446
377.07        16.39583
377.52        16.38821
377.97        16.43213
378.42        16.49387
378.87        16.55188
379.32        16.61288
379.77        16.64564
380.22        16.60571
380.67        16.48898
381.11        16.30161
381.56        16.10106
382.01        15.98362
382.46        15.97433
382.91        16.05279
383.36        16.15044
383.81        16.15911
384.26        16.05782
384.71        15.87682
385.15        15.68565
385.60        15.61903
386.05        15.68561
386.50        15.83361
386.95        15.97332
387.40        15.96739
387.85        15.79601
388.29        15.51343
388.74        15.21613
389.19          14.979
389.64        14.82578
390.09        14.72346
390.54        14.68102
390.98        14.71241
391.43        14.80791
391.88         14.9555
392.33        15.08614
392.78        15.11671
393.23        15.04029
393.67        14.84797
394.12        14.62119
394.57         14.5762
395.02        14.51982
395.47        14.58772
395.91         14.6659
396.36        14.65865
396.81        14.54923
397.26        14.37856
397.71        14.19227
398.15         14.0469
398.60        13.97827
399.05        13.93372
399.50         13.8988
399.95        13.91481
400.39        13.90236
400.84        13.86589
401.29        13.79203
401.74        13.74153
402.18        13.72217
402.63        13.68807
403.08        13.66029
403.53        13.68351
403.97        13.75749
404.42         13.8683
404.87        13.96173
405.32        13.95054
405.76        13.81634
406.21        13.59294
406.66        13.35376
407.11        13.21553
407.55        13.20951
408.00        13.30387
408.45        13.42481
408.90        13.43762
409.34        13.30765
409.79        13.07972
410.24        12.85242
410.68        12.77131
411.13         12.8669
411.58        13.09298
412.03        13.34587
412.47         13.4509
412.92        13.35344
413.37        13.12099
413.81        12.85731
414.26        12.73763
414.71        12.78721
415.15        12.95516
415.60        13.15371
416.05        13.25483
416.49        13.21895
416.94        13.09237
417.39        12.92628
417.83        12.79744
418.28        12.73537
418.73        12.70751
419.17        12.70214
419.62        12.70369
420.07        12.70226
420.51        12.70805
420.96        12.70638
421.41        12.66417
421.85        12.57748
422.30         12.4696
422.74        12.36516
423.19        12.32383
423.64        12.34859
424.08        12.42693
424.53         12.5217
424.98        12.59126
425.42        12.61948
425.87        12.60725
426.31        12.55863
426.76        12.50273
427.21        12.40674
427.65        12.29084
428.10        12.16912
428.54        12.04534
428.99        11.94096
429.44        11.93764
429.88        11.99312
430.33        11.88869
430.77        11.69871
431.22        11.80604
431.66        12.17164
432.11        12.34723
432.56        12.26657
433.00        12.20347
433.45        12.15781
433.89        11.86992
434.34        11.49471
434.78        11.48122
435.23        11.75882
435.67        11.84517
436.12        11.71276
436.57        11.63375
437.01        11.63853
437.46         11.6567
437.90        11.69045
438.35        11.74935
438.79        11.81213
439.24        11.82481
439.68        11.79696
440.13        11.79069
440.57        11.78771
441.02        11.76556
441.46        11.72749
441.91        11.59916
442.35        11.43994
442.80        11.57947
443.24        11.90986
443.69        11.85493
444.13        11.46077
444.58        11.28468
445.02         11.3301
445.47        11.30515
445.91        11.20016
446.36        11.14658
446.80        11.14297
447.24        11.16055
447.69        11.19326
448.13        11.23254
448.58        11.27294
449.02        11.31463
449.47        11.35921
449.91        11.40288
450.36        11.44393
450.80        11.47953
451.25        11.50079
451.69        11.49533
452.13        11.46057
452.58        11.40834
453.02         11.3492
453.47        11.29944
453.91        11.26299
454.36        11.27213
454.80        11.26579
455.24        11.27445
455.69        11.27985
456.13        11.27875
456.58        11.28518
457.02        11.30954
457.46        11.35342
457.91        11.40956
458.35        11.45042
458.79        11.43876
459.24         11.3811
459.68        11.29876
460.13        11.23056
460.57        11.18274
461.01        11.25389
461.46         11.3131
461.90        11.38156
462.34        11.55593
462.79        11.77071
463.23        11.78286
463.68        11.61839
464.12        11.53848
464.56         11.5598
465.01        11.55709
465.45        11.51585
465.89        11.46745
466.34        11.43255
466.78        11.45893
467.22         11.5609
467.67        11.57414
468.11         11.4998
468.55        11.40011
468.99        11.31419
469.44        11.27243
469.88        11.28476
470.32        11.34581
470.77        11.42184
471.21        11.47168
471.65        11.47732
472.10        11.45826
472.54        11.43238
472.98        11.44209
473.42        11.49465
473.87        11.57094
474.31        11.64894
474.75        11.69656
475.20        11.70994
475.64        11.69899
476.08        11.67481
476.52        11.65125
476.97        11.63567
477.41         11.6206
477.85        11.62077
478.29        11.65844
478.74        11.73674
479.18        11.84044
479.62        11.93503
480.06        11.99724
480.50        12.02392
480.95         11.9143
481.39        11.88484
481.83        11.87651
482.27        11.96895
482.72        12.04604
483.16        12.22916
483.60        12.33146
484.04         12.3895
484.48        12.34667
484.93        12.27544
485.37        12.45496
485.81         12.7546
486.25        12.81971
486.69        12.27208
487.14        12.38486
487.58        12.77574
488.02        12.94033
488.46        12.94182
488.90        13.00136
489.34        12.71232
489.79        12.72142
490.23        12.87279
490.67        13.10988
491.11        13.33622
491.55        13.31996
491.99        13.12999
492.43        13.13864
492.88        13.36639
493.32         13.5718
493.76        13.71353
494.20        13.86241
494.64         14.0109
495.08        14.13274
495.52        14.22056
495.96         14.3024
496.41        14.38667
496.85        14.38441
497.29        14.32526
497.73        14.51112
498.17        14.71563
498.61        14.71695
499.05        14.50526
499.49        14.44374
499.93         14.5664
500.37         14.7305
500.82        14.89645
501.26        15.03609
501.70        15.13093
502.14        15.20794
502.58        15.28562
503.02        15.37515
503.46        15.48271
503.90        15.60672
504.34        15.72782
504.78        15.81306
505.22        15.85577
505.66        15.86413
506.10        15.86002
506.54        15.89636
506.98        15.98509
507.42         16.0778
507.86        16.13713
508.30        16.28569
508.74        16.21709
509.18        16.18935
509.62          16.144
510.06        16.13598
510.50        16.17623
510.94        16.25163
511.38        16.34748
511.82        16.43035
512.26         16.4882
512.70        16.53058
513.14        16.55924
513.58         16.5763
514.02        16.58637
514.46        16.58929
514.90         16.5927
515.34        16.61119
515.78         16.6474
516.22        16.69532
516.66         16.7506
517.10        16.80573
517.54        16.85415
517.98        16.89451
518.42         16.9153
518.86        16.89886
519.30        16.84506
519.74        16.76365
520.18        16.67203
520.62        16.59593
521.06        16.54591
521.50        16.51957
521.93        16.51707
522.37        16.53158
522.81        16.55862
523.25        16.59339
523.69         16.6303
524.13         16.6617
524.57        16.68167
525.01        16.68845
525.45         16.6694
525.89        16.60754
526.32        16.50296
526.76        16.36978
527.20        16.23409
527.64        16.13533
528.08        16.08307
528.52        16.06841
528.96        16.07249
529.40        16.06331
529.83        16.03024
530.27        15.98316
530.71        15.93223
531.15        15.89598
531.59        15.87781
532.03        15.86921
532.46        15.85719
532.90         15.8278
533.34        15.77879
533.78         15.7206
534.22        15.66469
534.66        15.62641
535.09         15.6095
535.53        15.61429
535.97        15.63663
536.41         15.6753
536.85          15.724
537.28         15.7766
537.72        15.82479
538.16        15.85919
538.60        15.87652
539.04        15.88449
539.47        15.87116
539.91        15.83557
540.35        15.78053
540.79        15.71696
541.22        15.68033
541.66        15.72911
542.10        15.86887
542.54        16.07747
542.97        16.31201
543.41        16.50495
543.85        16.63691
544.29        16.72951
544.72        16.78966
545.16         16.8439
545.60        16.90243
546.04        16.95053
546.47        17.01012
546.91        17.14382
547.35        17.34269
547.79        17.53918
548.22        17.70084
548.66        17.87014
549.10         18.0456
549.53        18.14132
549.97        18.14563
550.41        18.41506
550.84        18.40435
551.28        18.51907
551.72        18.59437
552.15        18.79318
552.59        18.87896
553.03        19.04131
553.46        19.19075
553.90        19.29095
554.34        19.33387
554.77        19.35159
555.21        19.37649
555.65        19.40832
556.08        19.47402
556.52        19.64942
556.96        19.88745
557.39         20.0685
557.83        20.16788
558.27        20.19128
558.70        20.18323
559.14        20.23993
559.57        20.35904
560.01         20.4956
560.45        20.61043
560.88        20.58735
561.32        20.55169
561.75        20.52731
562.19        20.56886
562.63        20.61447
563.06        20.66674
563.50        20.77853
563.93        20.91776
564.37        21.02528
564.80        21.08511
565.24        21.12037
565.68         21.1498
566.11         21.2164
566.55        21.32886
566.98        21.44081
567.42        21.56484
567.85        21.68141
568.29        21.78957
568.72        21.95124
569.16        22.19004
569.60        22.11584
570.03        22.42198
570.47        22.52466
570.90        22.58863
571.34        22.84243
571.77        22.86649
572.21        22.97301
572.64         23.0455
573.08        23.18159
573.51        23.41625
573.95         23.4969
574.38        23.88481
574.82        23.86451
575.25        23.64741
575.69        23.57846
576.12        23.70162
576.56        23.90776
576.99        24.13256
577.42        24.04426
577.86        23.94951
578.29        23.85798
578.73         23.8504
579.16         23.9699
579.60        23.70667
580.03        23.54767
580.47        23.74484
580.90        23.73428
581.33         23.5851
581.77        23.73754
582.20        23.49682
582.64        23.33346
583.07        23.04611
583.51        22.89576
583.94         22.9748
584.37         22.8708
584.81        22.60949
585.24        22.67531
585.68        22.88667
586.11        22.69078
586.54        22.26325
586.98        22.30656
587.41        22.80927
587.85        22.54976
588.28        22.31829
588.71         22.4964
589.15        22.28198
589.58        22.23691
590.01        22.18233
590.45        22.07289
590.88        21.99906
591.31        22.06608
591.75        22.22201
592.18        22.37131
592.61        22.49661
593.05        22.23643
593.48        22.29626
593.91        22.43534
594.35        22.34384
594.78        22.43529
595.21        22.56135
595.65        22.55116
596.08        22.46131
596.51        22.81667
596.94        23.19598
597.38        23.52604
597.81        23.65142
598.24        23.63956
598.68        23.70968
599.11        24.07442
599.54        24.45306
599.97        24.69397
600.41        24.76282
600.84        25.01239
601.27        25.40484
601.70        25.81631
602.14         26.1946
602.57        26.53883
603.00         26.8232
603.43        27.12515
603.87        27.41335
604.30        27.77346
604.73        28.20589
605.16        28.69024
605.60        29.17596
606.03        29.59714
606.46        29.90309
606.89        30.23782
607.32        30.63008
607.76        30.98033
608.19        31.28182
608.62        31.62163
609.05         32.0472
609.48        32.44496
609.92        32.70406
610.35         33.4011
610.78        33.34194
611.21        33.37812
611.64        33.93294
612.07        34.25127
612.50        34.53178
612.94        34.89481
613.37        35.38814
613.80        35.60592
614.23        36.11921
614.66         36.4171
615.09        36.66415
615.52        36.90243
615.96         37.1422
616.39        37.30291
616.82        37.32798
617.25        37.75275
617.68        37.86285
618.11        38.27318
618.54        38.68752
618.97        38.95549
619.40        39.13404
619.84        39.13553
620.27        39.47478
620.70        39.77911
621.13        40.17873
621.56        39.84557
621.99        40.03773
622.42        40.02438
622.85        40.39577
623.28        40.41351
623.71        40.84216
624.14        40.19975
624.57        40.68217
625.00         40.6008
625.43        40.54552
625.86        40.42842
626.29        40.26379
626.72        40.19719
627.15        40.02333
627.58        39.91657
628.01        39.79696
628.44        39.59813
628.87        39.33378
629.30        39.12222
629.73        38.97349
630.16        38.77906
630.59        38.52791
631.02        38.36914
631.45        38.10113
631.88        37.78814
632.31        37.37016
632.74        36.87639
633.17        36.34231
633.60         35.8315
634.03        35.36687
634.46        34.93015
634.89        34.51201
635.32        34.09792
635.75        33.68048
636.18        33.26576
636.61        32.85217
637.04        32.43896
637.47        32.03363
637.89        31.61473
638.32        31.17474
638.75        30.79922
639.18        30.50939
639.61        29.99081
640.04         29.7921
640.47        29.47975
640.90         29.2142
641.33        28.98891
641.76        28.79368
642.18        28.60451
642.61        28.40626
643.04        28.21094
643.47        28.05616
643.90        27.99175
644.33        28.02145
644.76        28.16578
645.18         28.3527
645.61        28.38592
646.04        28.22156
646.47        28.21968
646.90        28.38089
647.33        28.51392
647.75        28.61941
648.18        28.83874
648.61        29.15702
649.04        29.46571
649.47        29.75888
649.89        30.11805
650.32         30.5314
650.75        30.91215
651.18        31.29176
651.61        31.81134
652.03        32.44639
652.46        33.06267
652.89        33.56787
653.32        33.88501
653.74        34.13828
654.17        34.32606
654.60        34.55179
655.03        35.77297
655.46        35.68689
655.88        37.03178
656.31        39.41621
656.74        39.79695
657.16        39.06639
657.59        38.05026
658.02        38.58768
658.45        39.64894
658.87        40.00641
659.30        40.13332
659.73        40.68973
660.15        41.20844
660.58        41.49812
661.01        41.86884
661.44        42.21218
661.86        42.34154
662.29        42.36416
662.72        42.81853
663.14        43.61453
663.57        43.88026
664.00        43.67997
664.42        43.80834
664.85        44.31765
665.27        44.75681
665.70        45.06943
666.13        45.39534
666.55        45.72559
666.98        46.02054
667.41        46.28026
667.83        46.49683
668.26        46.66787
668.69         46.8053
669.11        46.93769
669.54        47.11283
669.96        47.34233
670.39        47.61508
670.82        47.89326
671.24        48.11842
671.67        48.26712
672.09        48.35667
672.52        48.44556
672.94        48.66922
673.37        48.66963
673.80        49.28098
674.22        49.37778
674.65        49.73963
675.07        50.05264
675.50        50.31458
675.92         50.5245
676.35        50.68896
676.77        50.82447
677.20        50.92173
677.62        51.02313
678.05        51.09981
678.47         51.3214
678.90        51.55531
679.32         51.8036
679.75        51.96084
680.17        51.99749
680.60        52.07269
681.02        52.01073
681.45        52.04446
681.87         52.1278
682.30        52.31086
682.72        52.57007
683.15        52.64901
683.57        52.63848
684.00        52.98135
684.42        53.57763
684.85        53.91802
685.27        53.96895
685.70        53.89795
686.12        53.81607
686.54        54.13874
686.97        54.79388
687.39        55.08255
687.82        54.90061
688.24        55.36681
688.66           55.15
689.09        55.08545
689.51        54.84346
689.94        54.73928
690.36        54.81065
690.78        54.89614
691.21        55.01516
691.63         55.3961
692.06        55.90922
692.48        56.04712
692.90        55.84969
693.33        55.83648
693.75        56.03571
694.17        56.12383
694.60        56.13417
695.02        56.23491
695.44        56.42124
695.87        56.80094
696.29        57.26113
696.71        57.20875
697.14         56.7929
697.56        56.92098
697.98        57.53772
698.41        57.80638
698.83         57.7136
699.25        57.81302
699.68        58.08786
700.10        58.25288
700.52        58.28198
700.94        58.28979
701.37        58.29583
701.79        58.32603
702.21        58.38511
702.64        58.46787
703.06        58.56823
703.48         58.6899
703.90        58.83314
704.33         59.0113
704.75        59.18176
705.17        59.33445
705.59        59.44408
706.01        59.51713
706.44        59.58777
706.86        59.70916
707.28        59.88542
707.70        60.12096
708.12        60.38042
708.55        60.54742
708.97        60.63484
709.39        60.77512
709.81        60.97564
710.23        61.15186
710.66        61.29354
711.08        61.46881
711.50        61.64612
711.92        61.77654
712.34        61.85518
712.76        61.89899
713.19        61.91114
713.61        61.92776
714.03        61.94307
714.45        61.98193
714.87        62.04942
715.29        62.09208
715.71        62.13752
716.13        62.31849
716.56        62.57814
716.98        62.76839
717.40        62.83707
717.82        62.87249
718.24        62.89751
718.66        62.91625
719.08        62.94542
719.50        62.97463
719.92        62.99074
720.34        63.01296
720.76        63.05097
721.19        62.94063
721.61        63.00422
722.03        63.03612
722.45        63.12568
722.87        63.24856
723.29        63.38356
723.71        63.49179
724.13        63.55705
724.55        63.59604
724.97        63.61459
725.39        63.60416
725.81        63.57578
726.23        63.57375
726.65        63.62917
727.07        63.62605
727.49        63.83438
727.91        64.01569
728.33        64.24427
728.75        64.50174
729.17        64.76841
729.59        65.04243
730.01        65.24592
730.43        65.26437
730.85        65.09502
731.27        64.78744
731.69        64.48426
732.10        64.41181
732.52        64.61504
732.94        65.02688
733.36         65.5299
733.78        65.89909
734.20        66.05689
734.62         66.0883
735.04        66.05314
735.46        66.02106
735.88        66.05685
736.30        66.17356
736.72        66.34299
737.13        66.59654
737.55        66.74223
737.97         66.6217
738.39        65.87855
738.81        65.64677
739.23         65.8664
739.65        66.29097
740.06        66.71093
740.48         66.9254
740.90        66.86568
741.32        66.64017
741.74        66.38949
742.16        66.24675
742.57        66.37654
742.99        66.65117
743.41        66.99756
743.83        67.17321
744.25        67.16409
744.67        67.17303
745.08        67.24165
745.50        67.28641
745.92        67.32813
746.34        67.41279
746.75        67.53815
747.17        67.64938
747.59         67.7075
748.01        67.84846
748.42        68.07643
748.84        68.01437
749.26        67.59841
749.68        68.27435
750.09        67.50588
750.51          67.726
750.93         68.0617
751.35        68.04163
751.76        67.70259
752.18        67.59184
752.60        67.75491
753.01        67.89079
753.43        67.95999
753.85        67.99458
754.27        67.98571
754.68         68.2221
755.10        68.21774
755.52        68.35485
755.93        68.46132
756.35        68.51009
756.77        68.60258
757.18        68.80668
757.60        69.14782
758.02        69.88481
758.43        70.61295
758.85        70.26174
759.26        69.19748
759.68        68.21242
760.10        68.71265
760.51         69.6555
760.93        69.41647
761.34        69.83197
761.76        70.16607
762.18        69.82916
762.59        68.99092
763.01        68.51379
763.42        68.54479
763.84        68.60276
764.26        68.66559
764.67        68.67916
765.09        68.70737
765.50        69.21976
765.92        70.07551
766.33        70.18412
766.75        69.74636
767.16        69.82052
767.58        69.92235
768.00        69.78887
768.41        69.36052
768.83        69.75253
769.24         70.6785
769.66        70.53076
770.07        69.51919
770.49        69.36888
770.90        70.06993
771.32        70.43632
771.73        70.38421
772.15        70.30515
772.56         70.2432
772.97        70.43156
773.39        70.38466
773.80        70.49468
774.22        70.57973
774.63        70.79253
775.05        71.00311
775.46        71.02114
775.88        70.79865
776.29         70.4517
776.70        70.09387
777.12        69.92455
777.53         69.9951
777.95        70.21182
778.36        70.52918
778.77        70.83215
779.19        71.07419
779.60        71.40758
780.02        71.69509
780.43        71.66849
780.84        71.43852
781.26        71.13984
781.67        70.93036
782.09        71.57954
782.50        72.67484
782.91        72.33516
783.33         71.9129
783.74        71.53287
784.15        71.65823
784.57        71.51461
784.98        71.16407
785.39        71.05746
785.81        71.22164
786.22        71.53108
786.63          71.937
787.04        72.36583
787.46        72.76654
787.87        73.12691
788.28        73.41928
788.70        73.56603
789.11        73.55197
789.52        73.49049
789.93        73.37599
790.35        73.05207
790.76        72.62183
791.17        72.42614
791.58        72.53591
792.00        72.66386
792.41         72.8041
792.82         73.3544
793.23        74.13157
793.65        74.13702
794.06        73.57253
794.47        73.82114
794.88        74.71841
795.29        74.91698
795.71        74.34212
796.12        73.91385
796.53        73.75301
796.94        73.38003
797.35        72.99647
797.76        73.43507
798.18        74.46873
798.59         75.0317
799.00        74.97321
799.41        74.83112
799.82        74.70295
800.23        74.53996
800.64        74.40098
801.06        74.26426
801.47        74.19454
801.88        74.23137
802.29        74.36859
802.70        74.57434
803.11        74.79798
803.52        74.94689
803.93        75.00413
804.34        75.01208
804.75        74.93864
805.17        74.81435
805.58        74.70662
805.99        74.35597
806.40        73.96426
806.81        74.43185
807.22         75.5234
807.63        75.82646
808.04        75.34178
808.45        75.27791
808.86        75.68357
809.27        75.81118
809.68        75.61282
810.09        75.42554
810.50         75.2785
810.91        75.07154
811.32        74.91571
811.73        74.98473
812.14        75.29738
812.55        75.84081
812.96        76.41253
813.37        76.59526
813.78        76.31538
814.19        75.77141
814.60        75.19885
815.01        74.88888
815.42        74.91918
815.83         75.2121
816.24        75.66257
816.65         76.0374
817.05        76.22893
817.46        76.27148
817.87        76.19538
818.28        75.98356
818.69        75.66492
819.10         75.2437
819.51        74.82946
819.92        74.64096
820.33         74.7399
820.74        75.05859
821.14        75.50539
821.55        75.93597
821.96        76.28458
822.37        76.59277
822.78        76.79713
823.19        76.79517
823.60        76.57539
824.00        76.15025
824.41        75.67608
824.82        75.43984
825.23        75.50166
825.64        75.81299
826.04        76.20007
826.45        76.25945
826.86        75.92529
827.27        75.31692
827.68         74.6804
828.08        74.42517
828.49        74.60686
828.90        75.14471
829.31        75.83534
829.72         76.3266
830.12        76.53249
830.53        76.46366
830.94         76.3279
831.35        76.43095
831.75        76.86685
832.16        77.45477
832.57        78.00114
832.97        78.14719
833.38        77.82154
833.79        77.21661
834.20        76.53391
834.60         76.0374
835.01        75.84328
835.42        75.83891
835.82        76.06702
836.23         76.5257
836.64        77.18362
837.04        78.05762
837.45        78.82722
837.86        79.11716
838.26         78.8378
838.67         78.1057
839.08        77.19602
839.48        76.53007
839.89        76.27593
840.29        76.31573
840.70        76.55824
841.11         76.8598
841.51        77.17542
841.92        77.51689
842.33        77.85989
842.73        78.13462
843.14        78.26587
843.54        78.28053
843.95        78.21867
844.35        78.23221
844.76        78.32539
845.17        78.43913
845.57        78.53796
845.98        78.52541
846.38        78.39957
846.79        78.20699
847.19        77.91906
847.60        77.43166
848.00        76.79797
848.41        76.08186
848.81        75.51908
849.22        75.45509
849.62        75.97507
850.03        76.92091
850.43        78.08273
850.84        78.85856
851.24          79.111
851.65        78.87801
852.05        78.36493
852.46        77.87943
852.86        77.53571
853.27        77.33495
853.67        77.13206
854.07        76.92288
854.48        76.64208
854.88        76.34206
855.29        76.05389
855.69         76.0508
856.10        76.27952
856.50        76.75838
856.90        77.19268
857.31        77.19408
857.71        76.74525
858.12        75.92443
858.52        75.06483
858.92        74.67263
859.33        74.86755
859.73        75.54819
860.13        76.42972
860.54        77.04736
860.94        77.30242
861.34        77.23994
861.75        76.96002
862.15        76.70683
862.55        76.52769
862.96        76.36993
863.36        76.12093
863.76        75.63549
864.17        74.94364
864.57        74.17052
864.97        73.49938
865.38        73.14136
865.78        73.17003
866.18        73.47172
866.58        74.00211
866.99        74.62913
867.39        75.29944
867.79        75.99809
868.19        76.47764
868.60        76.38051
869.00        75.69322
869.40        74.50227
869.80        73.32391
870.21        73.04438
870.61        73.90004
871.01        75.58518
871.41        77.41171
871.81        78.28014
872.22        77.91264
872.62        76.62876
873.02        75.00586
873.42        74.01456
873.82        73.95137
874.22        74.55067
874.63        75.36336
875.03        75.69968
875.43        75.39811
875.83        74.68913
876.23        74.00555
876.63        74.04104
877.03        74.92455
877.44         76.3282
877.84        77.78286
878.24        78.44109
878.64         78.1105
879.04        77.13806
879.44        75.90651
879.84         74.9605
880.24        74.47432
880.64        74.26237
881.04        74.35704
881.44        74.81323
881.84        75.57961
882.24        76.67347
882.65          77.724
883.05        78.20248
883.45        77.92235
883.85        77.05891
884.25        76.06532
884.65         75.6554
885.05        75.98326
885.45        76.80759
885.85        77.84087
886.25        78.58347
886.65        78.83327
887.05        78.75041
887.45        78.34708
887.85        77.65034
888.25        76.78355
888.65        75.80579
889.04        74.91161
889.44        74.44111
889.84        74.38535
890.24         74.6833
890.64        75.22515
891.04        75.74043
891.44        76.08956
891.84        76.32162
892.24         76.4465
892.64        76.50898
893.04        76.53775
893.44        76.49651
893.83        76.47454
894.23        76.55941
894.63         76.7986
895.03        77.17207
895.43        77.55858
895.83        77.76468
896.23         77.7494
896.63        77.54899
897.02        77.29449
897.42        77.26437
897.82        77.49311
898.22        77.92098
898.62        78.32875
899.01        78.36738
899.41        77.95257
899.81        77.20599
900.21        76.42262
900.61        76.05029
901.00        76.18156
901.40         76.6899
901.80        77.25153
902.20        77.33965
902.59        76.83125
902.99        75.89525
903.39        74.89507
903.79        74.36263
904.18        74.41874
904.58        74.94114
904.98        75.58607
905.38        75.83155
905.77        75.53873
906.17        74.85593
906.57        74.16414
906.96        74.09619
907.36        74.74189
907.76        75.92823
908.15         77.1431
908.55        77.40511
908.95         76.5789
909.34        74.99216
909.74         73.3936
910.14        72.79182
910.53        73.45326
910.93        75.00227
911.33        76.97646
911.72        78.64644
912.12        79.65476
912.52        80.21207
912.91        80.45322
913.31        80.59158
913.70        80.71896
914.10        80.68307
914.49        80.43285
914.89        79.91855
915.29        79.18265
915.68        78.33602
916.08        77.55296
916.47        76.92991
916.87        76.56309
917.26        76.39052
917.66        76.43019
918.05        76.72811
918.45        77.19624
918.84        77.85261
919.24        78.43633
919.64        78.66479
920.03        78.46999
920.42        77.90104
920.82        77.21381
921.21        76.71101
921.61        76.50299
922.00        76.54599
922.40        76.72233
922.79        76.91317
923.19        77.03768
923.58        77.15472
923.98        77.32139
924.37        77.63357
924.77        78.07919
925.16        78.59311
925.55        79.03799
925.95        79.20792
926.34         79.0835
926.74         78.7355
927.13        78.28132
927.52        77.87376
927.92         77.5916
928.31        77.38257
928.70        77.29306
929.10        77.37592
929.49        77.61184
929.89        77.94329
930.28        78.25496
930.67        78.25379
931.07        77.88834
931.46         77.2968
931.85        76.60633
932.24        76.01299
932.64        75.60975
933.03        75.36354
933.42        75.36847
933.82        75.75587
934.21        76.52188
934.60        77.53603
934.99        78.59512
935.39        79.34358
935.78         79.7086
936.17        79.73276
936.56        79.31116
936.96        78.37264
937.35        77.04868
937.74        75.48115
938.13        74.12833
938.53         73.5377
938.92        73.75075
939.31         74.6907
939.70        75.98806
940.09        76.88348
940.49         77.0871
940.88        76.77047
941.27        76.28701
941.66        76.22109
942.05        76.70968
942.44         77.5998
942.84        78.47694
943.23        78.71076
943.62        78.08909
944.01        76.84258
944.40        75.58602
944.79        75.19842
945.18        75.84314
945.57        77.28104
945.97        78.78992
946.36        79.35879
946.75        78.60812
947.14        76.89963
947.53        75.01714
947.92        74.13475
948.31        74.54226
948.70        75.92428
949.09        77.62379
949.48        78.45522
949.87        78.05532
950.26         76.8007
950.65        75.39347
951.04        74.80116
951.43        75.23785
951.82         76.4436
952.21        77.81405
952.60        78.26991
952.99        77.52627
953.38         75.9591
953.77        74.38046
954.16        73.86291
954.55        74.60165
954.94        76.35771
955.33        78.37299
955.72        79.02377
956.11        77.80605
956.50        75.35094
956.89        72.80734
957.28        71.63737
957.66        72.18201
958.05        73.94408
958.44        76.30436
958.83        77.95479
959.22         78.3364
959.61        77.83733
960.00        76.97035
960.39        76.40218
960.78        76.28612
961.16        76.42135
961.55        76.50743
961.94        76.16415
962.33        75.32978
962.72        74.29791
963.11        73.37011
963.49        72.88045
963.88        72.89162
964.27        73.27158
964.66        73.92347
965.04        74.72449
965.43        75.46966
965.82        76.18841
966.21        76.73435
966.60        76.85858
966.98        76.55482
967.37        75.96542
967.76        75.27846
968.15        74.74484
968.53        74.42645
968.92        74.20135
969.31          74.242
969.69        74.86815
970.08        76.02319
970.47        77.71769
970.86        79.26781
971.24        79.51411
971.63        78.22315
972.02         75.8233
972.40        73.36649
972.79        72.51853
973.17        73.58012
973.56        75.94483
973.95        78.77585
974.33        80.45612
974.72        80.36232
975.11        79.05014
975.49        77.23228
975.88        76.29075
976.26        76.56344
976.65        77.53943
977.04        78.80292
977.42        79.62665
977.81        79.58144
978.19        79.04775
978.58        78.21724
978.96        77.24897
979.35        76.33177
979.74        75.44257
980.12        74.82317
980.51        74.84791
980.89        75.64771
981.28        76.95289
981.66        78.68474
982.05        80.38486
982.43        81.94656
982.82         83.3558
983.20        84.22836
983.59        83.84251
983.97        82.20147
984.35        79.57873
984.74        77.04366
985.12        76.05233
985.51         76.8107
985.89        79.03472
986.28        81.61494
986.66        83.02743
987.04        82.63155
987.43        80.87952
987.81         78.5558
988.20        77.31836
988.58        77.58636
988.96        78.94198
989.35        80.27281
989.73        80.03634
990.12        77.84225
990.50        74.35213
990.88        70.73096
991.27        68.81754
991.65        69.04917
992.03        70.92324
992.42        73.53904
992.80        75.82204
993.18        77.28392
993.56        78.16789
993.95        78.70055
994.33        79.47691
994.71        80.51872
995.10        81.62083
995.48        82.30308
995.86        82.01702
996.24         80.7331
996.63        78.55865
997.01        76.39386
997.39        75.63288
997.77        76.62874
998.15        78.98001
998.54        81.52546
998.92        82.45535
999.30         81.3288
999.68        78.65574
1000.06        75.47673
1000.45         73.7537
1000.83        74.25491
1001.21        76.37289
1001.59        79.30251
1001.97         81.7218
1002.35        83.10881
1002.73        83.80355
1003.12        83.96596
1003.50        83.75018
1003.88        83.33865
1004.26        82.69352
1004.64        81.88068
1005.02        81.11102
1005.40        80.51131
1005.78        80.07397
1006.16        80.01608
1006.54        80.60623
1006.92        81.83195
1007.30        83.65548
1007.69        85.47079
1008.07        86.15047
1008.45        85.20216
1008.83        82.91713
1009.21        80.14422
1009.59          78.369
1009.97        78.07758
1010.35        78.88523
1010.73        80.35892
1011.11        81.73649
1011.49        82.66805
1011.86        83.38869
1012.24        83.72672
1012.62        83.61795
1013.00         83.0659
1013.38        82.00484
1013.76        80.51717
1014.14        78.97504
1014.52         77.5659
1014.90        76.23955
1015.28        75.10606
1015.66         74.1653
1016.04        73.38281
1016.41        72.95295
1016.79        72.56498
1017.17        71.73689
1017.55        70.66761
1017.93        69.70966
1018.31        69.36199
1018.69        70.24318
1019.06        72.59064
1019.44        76.40631
1019.82        81.84457
1020.20        87.23228
1020.58        90.34371
1020.95         90.7842
1021.33        89.38239
1021.71        87.30443
1022.09        84.70889
1022.46         80.8959
1022.84        75.92842
1023.22        70.80262
1023.60        67.27384
1023.97        66.00048
1024.35        66.38787
1024.73        67.38554
