SpectraSmart Spectrum 2.9.0.0
--------- Device Information -----------
Spectrum Name :  反射率_0
Saving Time :  2024/04/27 22:32:13
Spectro-Module Model Name : SE2030-DUVN
Spectro-Module Serial Number : OS361AC55029948
Wavelength Start : 200
Wavelength End : 1025
Wavelength Unit : Wavelength(nm)
Spectrum Unit : Reflectance(%)
-----------Spectrum Setting ------------
Integration Time : 20ms
Average : 10
Boxcar : 0
Background removal :  enabled
linearity correction :  enabled
SC :  disabled
Intensity correction :  disabled
DWT denoise :  enabled
savitzky-golay :  disabled
FFT :  disabled
Running average :  disabled
Kalman :  disabled
High pass :  disabled
---------------BEGIN--------------------
Wavelength(nm)             Reflectance(%)
200.29               0
200.75        70.96957
201.21        68.72807
201.67        65.72284
202.13        61.42827
202.58        55.79757
203.04        50.35182
203.50         46.6359
203.96        46.76505
204.42        50.31167
204.88         55.3049
205.34        60.33159
205.80        64.89093
206.26        69.35065
206.72        74.56588
207.18        80.41535
207.64        82.15235
208.10        77.62672
208.55        71.88383
209.01        66.52948
209.47        60.96675
209.93        52.48684
210.39        32.66278
210.85       -23.76692
211.31       -82.48031
211.77        5.819558
212.23         59.3565
212.69        76.32487
213.14        78.44787
213.60         71.5032
214.06         54.4316
214.52        25.29676
214.98         7.28567
215.44        21.80633
215.90        46.82354
216.36        65.43999
216.81        72.71037
217.27        71.94963
217.73         66.9277
218.19        59.89028
218.65        54.14063
219.11        51.06738
219.57        49.53651
220.02         49.1762
220.48        50.44291
220.94        52.54744
221.40        55.41933
221.86        58.46471
222.32        61.05214
222.77        63.07906
223.23        64.43826
223.69        65.11508
224.15        65.07574
224.61        64.45412
225.06        63.26465
225.52        62.01254
225.98         61.2461
226.44        61.10979
226.90         61.1911
227.36        61.33566
227.81        61.38921
228.27        61.30536
228.73         61.0591
229.19          60.256
229.65        58.25597
230.10        55.09121
230.56        51.52022
231.02        48.25463
231.48        46.27078
231.93        45.63334
232.39        46.02632
232.85        47.17659
233.31         48.7523
233.77        50.47398
234.22         52.3872
234.68        53.90844
235.14        54.36157
235.60         53.6589
236.05         51.7677
236.51         49.4548
236.97        48.52936
237.43        49.71193
237.88         52.7654
238.34        55.94332
238.80        57.43766
239.26         56.6914
239.71           53.24
240.17        47.32581
240.63        44.50506
241.08        49.27946
241.54        57.34563
242.00        63.38195
242.46        65.08153
242.91        62.77155
243.37        55.22021
243.83        38.56102
244.28        17.06131
244.74        15.81778
245.20        35.19847
245.66         53.5189
246.11        62.62597
246.57        65.73066
247.03        65.58507
247.48        62.82293
247.94        61.33329
248.40         64.0989
248.85        68.35419
249.31        71.70776
249.77        72.62971
250.22        71.80999
250.68        70.46383
251.14          69.452
251.59        69.41087
252.05        70.37281
252.51        71.76185
252.96        72.85321
253.42        72.45696
253.88        69.95888
254.33        67.31062
254.79         64.8411
255.25         61.4922
255.70        57.60229
256.16        54.13713
256.62        52.73259
257.07        55.13307
257.53        60.16893
257.99        65.51529
258.44        69.20652
258.90        70.05857
259.35        68.25733
259.81        65.37587
260.27        62.13095
260.72        59.38133
261.18        57.66256
261.63        56.36963
262.09        55.55426
262.55        54.90381
263.00        54.25039
263.46        53.78869
263.91        53.39328
264.37        53.22129
264.83        53.15701
265.28        53.08942
265.74        52.95847
266.19         52.4831
266.65         51.7335
267.11        50.75352
267.56         49.6867
268.02        48.86652
268.47        48.31937
268.93        47.96814
269.38        47.68353
269.84        47.29359
270.30        46.72754
270.75         46.0307
271.21        45.22647
271.66        44.29694
272.12        43.29089
272.57        42.19032
273.03        41.09176
273.48        40.05873
273.94        39.18549
274.39        38.43536
274.85        37.84605
275.31        37.36536
275.76        36.94689
276.22        36.61782
276.67        36.31393
277.13        36.05923
277.58        35.78093
278.04        35.50691
278.49        35.15235
278.95        34.72846
279.40         34.1845
279.86        33.60252
280.31        32.97727
280.77        32.43211
281.22        31.95228
281.68        31.57215
282.13        31.24104
282.59        30.94576
283.04         30.6496
283.50        30.36824
283.95        30.10919
284.41        29.93056
284.86        29.81306
285.32        29.76116
285.77        29.68305
286.22        29.49088
286.68        29.19646
287.13        28.80355
287.59         28.4432
288.04        28.23386
288.50        28.22738
288.95        28.34351
289.41        28.50671
289.86        28.55142
290.32         28.4651
290.77        28.29124
291.22        28.10653
291.68        28.01712
292.13        28.04429
292.59        28.17235
293.04        28.37161
293.50         28.6251
293.95         28.9131
294.40        29.25808
294.86        29.66363
295.31        30.12089
295.77        30.63381
296.22        31.17983
296.68        31.76365
297.13        32.37099
297.58        32.99325
298.04        33.62106
298.49        34.22586
298.95        34.79202
299.40         35.3105
299.85        35.78522
300.31        36.25872
300.76        36.75486
301.21        37.28697
301.67        37.85682
302.12        38.38642
302.58        38.80952
303.03        39.09792
303.48        39.28388
303.94        39.48398
304.39        39.81997
304.84        40.32012
305.30        40.93754
305.75        41.50724
306.20        41.82881
306.66        41.88145
307.11        41.70856
307.57        41.47881
308.02        41.38085
308.47        41.47916
308.93         41.7088
309.38        41.94205
309.83        42.01889
310.29        41.91485
310.74        41.67979
311.19        41.40289
311.65          41.215
312.10        41.13442
312.55        41.11917
313.00        41.13078
313.46        41.11663
313.91        41.04602
314.36        40.93755
314.82         40.7759
315.27        40.53141
315.72         40.2089
316.18        39.82793
316.63        39.41922
317.08        39.05637
317.53        38.76147
317.99        38.51926
318.44        38.32042
318.89        38.12606
319.35        37.92613
319.80         37.7379
320.25        37.56139
320.70        37.40244
321.16        37.24969
321.61         37.0899
322.06        36.92494
322.51        36.76758
322.97        36.60986
323.42        36.46742
323.87        36.28108
324.32        35.96441
324.78         35.5066
325.23        34.94245
325.68        34.38903
326.13        34.04557
326.59        33.94437
327.04        34.05731
327.49        34.21992
327.94        34.16569
328.39        33.82372
328.85        33.25543
329.30        32.63018
329.75        32.22795
330.20        32.13493
330.66        32.25392
331.11        32.45293
331.56        32.46398
332.01        32.21154
332.46        31.77509
332.92        31.26673
333.37        30.91404
333.82        30.77769
334.27         30.7862
334.72        30.85516
335.17        30.85009
335.63          30.718
336.08         30.5259
336.53        30.29612
336.98        30.07409
337.43         29.8843
337.88        29.70829
338.34        29.56071
338.79        29.47613
339.24        29.45741
339.69        29.50219
340.14        29.57117
340.59        29.59644
341.05        29.55833
341.50        29.47089
341.95        29.36465
342.40        29.30237
342.85        29.29341
343.30        29.31108
343.75        29.31203
344.20        29.22819
344.66        29.05259
345.11         28.8172
345.56        28.56228
346.01        28.34559
346.46        28.19105
346.91        28.08237
347.36        28.03057
347.81        28.04833
348.26         28.1274
348.72         28.2625
349.17        28.39761
349.62        28.44446
350.07        28.37836
350.52        28.20632
350.97        28.00151
351.42        27.88684
351.87         27.8879
352.32        27.97808
352.77        28.05041
353.22        27.93909
353.67        27.62359
354.13         27.1765
354.58        26.72709
355.03        26.53117
355.48        26.63818
355.93        26.96173
356.38         27.3292
356.83         27.4726
357.28        27.32706
357.73        26.97887
358.18        26.55564
358.63        26.25714
359.08        26.13618
359.53         26.1226
359.98        26.14415
360.43        26.09206
360.88        25.93593
361.33        25.71998
361.78        25.46982
362.23        25.25352
362.68        25.09827
363.13        24.91823
363.58        24.69823
364.03        24.76693
364.48        24.55716
364.93        24.51056
365.38        24.45105
365.83        24.37529
366.28        24.27286
366.73        24.15739
367.18        24.01483
367.63        23.81035
368.08        23.54992
368.53        23.24662
368.98        22.96416
369.43        22.80322
369.88        22.78267
370.33        22.87392
370.78        22.99444
371.23        23.00886
371.68        22.87686
372.13        22.62626
372.58        22.33066
373.03        22.11413
373.48        22.01194
373.93        21.99582
374.38        21.98724
374.83        21.86168
375.28        21.60039
375.72        21.24109
376.17        20.91426
376.62        20.77849
377.07        20.85688
377.52        21.07644
377.97        21.31652
378.42        21.39229
378.87        21.25931
379.32        20.98685
379.77        20.64441
380.22        20.33535
380.67        20.09729
381.11        19.89791
381.56        19.74696
382.01        19.66217
382.46        19.63896
382.91        19.67902
383.36        19.72954
383.81        19.70161
384.26        19.57699
384.71        19.37554
385.15        19.14855
385.60         19.0122
386.05        18.98294
386.50        19.03633
386.95        19.11641
387.40        19.13579
387.85        19.07709
388.29        18.95511
388.74        18.85136
389.19        18.83815
389.64         18.9183
390.09        19.04832
390.54        19.15829
390.98        19.13686
391.43        18.97577
391.88        18.72805
392.33        18.44033
392.78        18.20732
393.23        18.06189
393.67        17.89521
394.12        17.74004
394.57        17.84998
395.02        17.89807
395.47        17.84819
395.91        17.64162
396.36        17.53511
396.81        17.54668
397.26        17.53753
397.71         17.4904
398.15        17.44869
398.60         17.4284
399.05        17.34859
399.50        17.25336
399.95         17.3158
400.39        17.48434
400.84        17.49036
401.29        17.32193
401.74        17.13408
402.18          16.979
402.63        16.89499
403.08        16.88173
403.53        16.84329
403.97        16.78059
404.42        16.78386
404.87        16.83201
405.32        16.85659
405.76        16.84348
406.21        16.76837
406.66         16.6617
407.11        16.65151
407.55        16.70096
408.00        16.62318
408.45        16.42157
408.90        16.16238
409.34        15.93437
409.79        15.94493
410.24        16.13688
410.68        16.20727
411.13        16.12781
411.58        16.07446
412.03        16.07717
412.47        16.10296
412.92        16.14541
413.37        16.21262
413.81        16.26061
414.26        16.23765
414.71        16.13268
415.15        15.96586
415.60        15.77954
416.05        15.65641
416.49        15.62509
416.94        15.66036
417.39        15.72866
417.83        15.77707
418.28        15.78154
418.73        15.74931
419.17        15.69837
419.62        15.66062
420.07        15.65017
420.51        15.66393
420.96         15.6681
421.41        15.63153
421.85        15.54899
422.30        15.36609
422.74        15.17217
423.19        15.28819
423.64        15.65327
424.08         15.8394
424.53        15.75931
424.98        15.72603
425.42        15.74496
425.87        15.52226
426.31         15.1609
426.76        15.14994
427.21        15.41735
427.65         15.3986
428.10        15.12453
428.54        15.02728
428.99        15.11172
429.44        15.29153
429.88        15.44057
430.33        15.17826
430.77        14.66913
431.22        14.56784
431.66         14.8713
432.11        15.11483
432.56        15.22004
433.00        15.31756
433.45        15.25069
433.89         14.8991
434.34         14.5558
434.78        13.75167
435.23        14.26287
435.67        14.72901
436.12         14.9638
436.57        15.11807
437.01        15.04881
437.46        14.99666
437.90        15.03498
438.35        15.08912
438.79        14.72443
439.24         14.6103
439.68        14.63935
440.13        14.74495
440.57        14.86078
441.02        15.01493
441.46        15.14278
441.91        14.93028
442.35        14.54029
442.80        14.66023
443.24        15.16702
443.69        15.19026
444.13        14.74479
444.58        14.55771
445.02        14.63083
445.47        14.58238
445.91        14.42133
446.36        14.36317
446.80        14.41031
447.24        14.49452
447.69        14.58284
448.13        14.66412
448.58        14.70483
449.02        14.64308
449.47        14.52277
449.91        14.47923
450.36        14.53057
450.80        14.60476
451.25        14.67507
451.69        14.72488
452.13        14.73649
452.58        14.70213
453.02        14.63289
453.47        14.55389
453.91        14.47365
454.36        14.41345
454.80        14.34996
455.24         14.2312
455.69        14.09374
456.13        13.97041
456.58        13.90998
457.02        14.03413
457.46        14.26158
457.91        14.32172
458.35        14.26337
458.79        14.25657
459.24        14.31958
459.68        14.32578
460.13        14.28892
460.57        14.20892
461.01        14.15827
461.46        14.14726
461.90        14.10914
462.34        14.09387
462.79        14.31728
463.23        14.39111
463.68        14.37903
464.12         14.3513
464.56        14.32424
465.01        14.33988
465.45        14.34436
465.89        14.25451
466.34        14.12144
466.78        14.01357
467.22        13.93472
467.67        14.18331
468.11        14.12436
468.55        14.11778
468.99        13.99766
469.44        13.93999
469.88        13.94873
470.32        13.91601
470.77        13.86952
471.21        13.89761
471.65        14.00799
472.10        14.17477
472.54        14.33652
472.98        14.42001
473.42        14.41387
473.87         14.3015
474.31        14.15257
474.75        14.20729
475.20        14.43404
475.64        14.53383
476.08        14.47604
476.52        14.49566
476.97         14.6003
477.41        14.51257
477.85        14.39775
478.29        14.49127
478.74        14.43754
479.18        14.39035
479.62         14.6876
480.06        14.74989
480.50        14.72265
480.95        14.62203
481.39        14.47727
481.83        14.64225
482.27        14.69198
482.72        14.72845
483.16        15.04328
483.60        15.15926
484.04        15.16803
484.48        15.18933
484.93         15.3903
485.37        15.29101
485.81        15.53528
486.25        16.14885
486.69         15.8775
487.14        15.38744
487.58        16.37112
488.02        16.17172
488.46        15.99795
488.90        16.45462
489.34        16.01482
489.79        15.90798
490.23        16.26198
490.67        16.47729
491.11        16.67687
491.55        16.74166
491.99        16.72681
492.43        16.82185
492.88        17.03154
493.32        17.20716
493.76        17.32939
494.20        17.48463
494.64        17.68499
495.08        17.85467
495.52        17.98388
495.96        18.21393
496.41        18.52486
496.85        18.43436
497.29         18.1034
497.73        18.26751
498.17        18.85784
498.61        19.23214
499.05        19.27478
499.49        19.28746
499.93         19.3219
500.37        19.32576
500.82        19.33512
501.26         19.4548
501.70        19.70819
502.14         19.6608
502.58        19.97962
503.02        20.09098
503.46        20.10671
503.90        20.07298
504.34        20.01191
504.78        20.02267
505.22        20.11447
505.66        20.22403
506.10        20.33538
506.54        20.47882
506.98        20.64787
507.42        20.73398
507.86        20.88784
508.30         20.9612
508.74        21.00045
509.18        21.00326
509.62        20.99166
510.06        21.00064
510.50        21.03932
510.94        21.10265
511.38        21.17472
511.82        21.22868
512.26        21.25634
512.70        21.26475
513.14        21.26948
513.58        21.28637
514.02        21.31888
514.46        21.37729
514.90        21.44358
515.34        21.41357
515.78        21.40672
516.22        21.33611
516.66        21.27438
517.10        21.27404
517.54        21.34559
517.98        21.46787
518.42        21.59819
518.86        21.67137
519.30        21.66877
519.74        21.60913
520.18        21.52319
520.62        21.45936
521.06        21.43265
521.50        21.43011
521.93        21.43508
522.37         21.4127
522.81        21.35839
523.25        21.28249
523.69        21.20556
524.13        21.15744
524.57        21.14225
525.01        21.14792
525.45        21.14701
525.89         21.0972
526.32        20.98803
526.76        20.84307
527.20        20.68966
527.64        20.57444
528.08        20.50942
528.52         20.4771
528.96        20.46275
529.40        20.44289
529.83        20.40715
530.27         20.3662
530.71        20.31129
531.15        20.22823
531.59        20.11989
532.03        19.99182
532.46        19.86902
532.90        19.80501
533.34        19.80568
533.78        19.85553
534.22        19.92491
534.66        19.96711
535.09        19.96783
535.53        19.94412
535.97        19.90784
536.41        19.88195
536.85        19.87403
537.28        19.87566
537.72        19.88502
538.16         19.8975
538.60        19.91246
539.04        19.93925
539.47        19.96914
539.91        19.99859
540.35        20.02386
540.79        20.05247
541.22         20.0927
541.66        20.15895
542.10        20.25329
542.54        20.37037
542.97         20.5009
543.41         20.6429
543.85        20.78878
544.29         20.9386
544.72        21.08435
545.16        21.23079
545.60        21.37097
546.04        21.50296
546.47        21.63154
546.91        21.76009
547.35        21.88911
547.79        22.03058
548.22        22.17255
548.66        22.29125
549.10        22.40002
549.53         22.5828
549.97        22.83553
550.41        23.07197
550.84        23.28096
551.28        23.51355
551.72        23.74747
552.15        23.91974
552.59        24.03107
553.03        24.09301
553.46        24.14053
553.90        24.24718
554.34         24.4219
554.77        24.65137
555.21        24.89134
555.65        25.06942
556.08        25.14325
556.52        25.19518
556.96        25.24264
557.39         25.3489
557.83         25.5061
558.27        25.58914
558.70        25.61016
559.14        25.68502
559.57         25.8106
560.01        25.95725
560.45        26.09117
560.88        26.14521
561.32        26.16785
561.75        26.23745
562.19        26.36762
562.63        26.56316
563.06        26.75996
563.50        26.75878
563.93        26.60675
564.37         26.6102
564.80        26.77921
565.24        26.96404
565.68        27.12483
566.11         27.2639
566.55        27.37945
566.98        27.47124
567.42        27.55963
567.85         27.6563
568.29         27.7929
568.72        27.90959
569.16         28.0195
569.60        28.26819
570.03        28.66125
570.47        28.77612
570.90        28.92035
571.34        29.59255
571.77         29.5084
572.21        29.56056
572.64        29.87425
573.08         29.7031
573.51        29.90732
573.95        30.08767
574.38        30.34496
574.82        30.44549
575.25        30.35028
575.69        30.25715
576.12        30.40749
576.56        30.71262
576.99        30.66996
577.42        30.83413
577.86        30.61321
578.29        30.77409
578.73        30.74682
579.16        30.73569
579.60        30.55803
580.03        30.42363
580.47         30.3521
580.90        30.19808
581.33        30.14841
581.77        30.18087
582.20        29.78922
582.64        29.79302
583.07        29.63563
583.51        29.44522
583.94         29.2062
584.37        29.02418
584.81        28.94658
585.24        28.87683
585.68          28.839
586.11        28.65088
586.54        28.39743
586.98          28.391
587.41        28.52133
587.85        28.12826
588.28        28.08197
588.71        27.94526
589.15        28.17861
589.58        27.78627
590.01        28.07111
590.45        28.13831
590.88        27.63617
591.31        27.56279
591.75        27.74066
592.18        27.81965
592.61        27.75332
593.05        28.27066
593.48        28.31443
593.91        27.98796
594.35        28.16052
594.78        28.38248
595.21        28.48414
595.65        28.57506
596.08        28.51178
596.51        28.96085
596.94        28.91492
597.38        29.26318
597.81        29.76851
598.24        29.59562
598.68        29.98611
599.11        30.64827
599.54         30.8781
599.97        31.06541
600.41        31.72006
600.84        32.07774
601.27        32.35786
601.70        32.57015
602.14        32.69963
602.57         33.3411
603.00        34.04362
603.43        34.62236
603.87        35.10509
604.30         35.4223
604.73        35.66364
605.16        36.39872
605.60        36.62609
606.03        37.19091
606.46        37.66249
606.89        38.21087
607.32        38.38746
607.76        38.89067
608.19         39.1504
608.62        39.52153
609.05         39.9187
609.48        40.18423
609.92        40.30195
610.35        40.95601
610.78        41.45714
611.21        41.36048
611.64        42.08724
612.07        42.23141
612.50        42.33352
612.94        42.51828
613.37        42.83757
613.80        43.17305
614.23         43.6831
614.66        43.73559
615.09        43.96285
615.52        44.33508
615.96        44.98914
616.39        45.01204
616.82        45.16871
617.25        45.43134
617.68        45.32293
618.11         45.5202
618.54        45.82547
618.97        46.16317
619.40         46.4235
619.84        46.85677
620.27        46.93687
620.70        46.93266
621.13        46.71166
621.56        47.10267
621.99        47.14828
622.42        47.11583
622.85        47.16348
623.28        47.34579
623.71        47.46827
624.14        47.22122
624.57        47.41748
625.00        47.80444
625.43        47.49528
625.86        47.39399
626.29        47.20434
626.72        46.98378
627.15        46.77058
627.58        46.58535
628.01        46.48915
628.44        46.01987
628.87         45.8478
629.30        45.74634
629.73        45.21214
630.16        44.69671
630.59         44.5232
631.02         44.3001
631.45        44.10577
631.88        43.84589
632.31        43.51798
632.74        42.94146
633.17        42.57356
633.60        42.10727
634.03        41.68238
634.46        41.28102
634.89        40.88356
635.32        40.44215
635.75        39.94799
636.18        39.44906
636.61        38.96436
637.04        38.47582
637.47        38.01357
637.89        37.66899
638.32        37.40617
638.75        37.11507
639.18        36.76925
639.61        36.45687
640.04        36.06316
640.47        35.73977
640.90        35.45942
641.33        35.18417
641.76        34.91059
642.18        34.73783
642.61        34.53348
643.04        34.40151
643.47        34.31258
643.90        34.28337
644.33         34.3119
644.76        34.39405
645.18        34.50797
645.61        34.61288
646.04        34.70281
646.47        34.78667
646.90        34.89595
647.33        35.08898
647.75        35.38531
648.18        35.75293
648.61        36.15419
649.04        36.60957
649.47        37.08387
649.89        37.37836
650.32        37.57657
650.75        38.13071
651.18        38.97187
651.61        39.51657
652.03        39.73167
652.46        40.10303
652.89         40.7427
653.32        41.17664
653.74         41.6091
654.17        42.71508
654.60        42.80715
655.03        43.15464
655.46        43.94581
655.88        44.87158
656.31        46.51205
656.74        48.89783
657.16        48.67691
657.59        48.97565
658.02         47.4592
658.45         47.8102
658.87        47.73194
659.30        49.00487
659.73        48.39298
660.15        48.66779
660.58        48.97504
661.01        49.46478
661.44        50.02501
661.86        50.43945
662.29        50.68245
662.72        50.74543
663.14        50.74086
663.57        50.95652
664.00         51.3665
664.42        51.59411
664.85        51.63794
665.27        51.75859
665.70        51.95792
666.13        52.10789
666.55        52.20885
666.98        52.29494
667.41        52.39887
667.83        52.56409
668.26         52.7907
668.69        53.07143
669.11         53.3462
669.54        53.52714
669.96        53.60285
670.39        53.55185
670.82        53.47043
671.24        53.59197
671.67        53.90028
672.09        54.16439
672.52        54.33218
672.94         54.4062
673.37        54.40975
673.80        54.41266
674.22        54.45502
674.65        54.48764
675.07        54.54055
675.50        54.65619
675.92        54.82372
676.35        54.97652
676.77        55.10679
677.20        55.23656
677.62        55.37007
678.05         55.4951
678.47        55.61125
678.90        55.72409
679.32        55.83691
679.75        55.97096
680.17        56.12403
680.60        56.29149
681.02        56.44495
681.45        56.53119
681.87        56.55842
682.30        56.50161
682.72        56.40936
683.15        56.46428
683.57        56.67593
684.00         56.6461
684.42        56.73689
684.85        56.86275
685.27        57.11547
685.70        57.38053
686.12        57.59835
686.54        57.74906
686.97        57.80137
687.39        57.74322
687.82        57.64139
688.24        57.55826
688.66        57.77413
689.09        57.87715
689.51        57.94032
689.94        58.03131
690.36        58.14871
690.78        58.22683
691.21        58.27463
691.63        58.33394
692.06        58.41115
692.48        58.49788
692.90        58.58971
693.33        58.64355
693.75        58.66613
694.17        58.74794
694.60        58.88037
695.02        58.93925
695.44        58.96568
695.87        59.18908
696.29        59.55226
696.71        59.81129
697.14        59.89508
697.56        59.82302
697.98        59.67115
698.41         59.6639
698.83         59.8135
699.25        60.02625
699.68        60.23251
700.10        60.41096
700.52        60.52639
700.94        60.58941
701.37        60.60914
701.79        60.63469
702.21        60.66584
702.64        60.70323
703.06        60.74264
703.48        60.80028
703.90        60.88361
704.33        60.98333
704.75        61.10677
705.17        61.24308
705.59        61.38626
706.01         61.5136
706.44        61.61393
706.86           61.79
707.28        61.86804
707.70        61.96324
708.12        62.03623
708.55        62.13723
708.97        62.24283
709.39         62.2637
709.81        62.22758
710.23        62.26936
710.66        62.39941
711.08        62.56535
711.50        62.70543
711.92        62.76956
712.34        62.74953
712.76        62.66529
713.19        62.57124
713.61        62.60219
714.03        62.76514
714.45        63.01489
714.87        63.29595
715.29        63.52423
715.71        63.67244
716.13        63.76802
716.56        63.79606
716.98        63.80053
717.40        63.77666
717.82        63.72261
718.24        63.67962
718.66        63.71711
719.08        63.84572
719.50        64.04342
719.92        64.26325
720.34        64.42441
720.76        64.50096
721.19        64.50658
721.61        64.47093
722.03        64.41538
722.45         64.3571
722.87        64.29434
723.29        64.24866
723.71        64.24387
724.13         64.2877
724.55        64.39971
724.97        64.57093
725.39        64.67137
725.81        64.84499
726.23        64.96947
726.65        65.09949
727.07        65.17712
727.49        65.31355
727.91        65.41338
728.33        65.48116
728.75        65.47416
729.17        65.39367
729.59        65.26165
730.01        65.13297
730.43        65.09693
730.85        65.17026
731.27        65.31911
731.69        65.50665
732.10        65.67149
732.52        65.77634
732.94         65.8959
733.36        66.02011
733.78        65.99679
734.20        65.81419
734.62        66.03417
735.04        65.65903
735.46        65.87098
735.88        66.25159
736.30        66.29065
736.72        66.01748
737.13        65.89722
737.55        65.94893
737.97        66.14209
738.39         66.3827
738.81         66.1529
739.23        65.62502
739.65        65.86552
740.06        66.67643
740.48         66.9821
740.90        66.71152
741.32        66.38213
741.74        66.27529
742.16        66.19047
742.57        66.22918
742.99        66.38774
743.41         66.6058
743.83        66.76731
744.25        66.83764
744.67        66.83852
745.08        66.82179
745.50        66.84136
745.92        66.92596
746.34        67.04419
746.75        67.15005
747.17        67.19064
747.59        67.16276
748.01        67.04063
748.42        66.88441
748.84        66.92796
749.26        67.13933
749.68        67.14143
750.09        66.95636
750.51        67.03886
750.93        67.31244
751.35        67.27941
751.76         66.9899
752.18        66.87976
752.60        66.97848
753.01        67.06288
753.43        67.12872
753.85         67.2123
754.27        67.29107
754.68        67.52706
755.10        67.90936
755.52        67.57975
755.93        67.80718
756.35        67.71862
756.77        67.73817
757.18        67.84515
757.60        68.08424
758.02        68.34815
758.43        68.50651
758.85        68.73145
759.26        68.95423
759.68        68.18083
760.10        67.95808
760.51        67.44832
760.93        67.38338
761.34        67.93459
761.76        68.52764
762.18        68.71375
762.59        68.40112
763.01        68.38516
763.42        68.73751
763.84        68.82407
764.26        68.68741
764.67        68.63187
765.09        68.71262
765.50        68.86009
765.92        69.00688
766.33        68.91904
766.75        68.57933
767.16        68.26603
767.58         68.0768
768.00         68.2422
768.41        68.72957
768.83        69.04742
769.24        69.13223
769.66         69.3848
770.07        69.69082
770.49        69.57369
770.90        69.11734
771.32        68.88037
771.73        68.93936
772.15        68.91361
772.56        68.82207
772.97        68.98239
773.39        69.29684
773.80        69.35822
774.22        69.17158
774.63        69.22009
775.05        69.45271
775.46        69.51549
775.88        69.36836
776.29        69.25503
776.70        69.21966
777.12        69.24729
777.53        69.36848
777.95        69.56257
778.36        69.78854
778.77        69.95709
779.19        70.04483
779.60        70.08393
780.02        70.07732
780.43        70.08123
780.84        70.09193
781.26        70.03085
781.67        69.99899
782.09        70.13594
782.50        70.25267
782.91        70.78174
783.33        69.93027
783.74         69.8638
784.15         70.0631
784.57        70.12981
784.98         70.0631
785.39        70.23534
785.81        70.57641
786.22        70.63165
786.63        70.44308
787.04        70.44833
787.46        70.67768
787.87        70.86172
788.28        70.94068
788.70        71.06207
789.11         70.9987
789.52         70.8579
789.93        70.67125
790.35         70.7283
790.76        71.00471
791.17        71.09595
791.58        70.99154
792.00        70.97669
792.41        71.08171
792.82        71.12959
793.23        71.12429
793.65        71.20037
794.06        71.39649
794.47        71.60501
794.88        71.74428
795.29        72.18991
795.71        71.90178
796.12         71.9883
796.53        72.08459
796.94        71.59875
797.35        70.72361
797.76        70.64584
798.18        71.33188
798.59        71.61936
799.00        71.45258
799.41        71.48538
799.82        71.73354
800.23        71.90278
800.64        71.97528
801.06         71.9986
801.47        72.00052
801.88        71.95914
802.29        71.87821
802.70        71.75407
803.11        71.63962
803.52         71.5516
803.93        71.50166
804.34        71.63932
804.75         71.9645
805.17        71.69135
805.58        72.14217
805.99        72.08052
806.40        71.96053
806.81        72.29298
807.22        72.87238
807.63        72.69344
808.04        71.89389
808.45        71.61497
808.86        71.96352
809.27        72.32372
809.68        72.53691
810.09        72.60934
810.50        72.48343
810.91        72.15714
811.32        71.80023
811.73        71.66962
812.14        71.82559
812.55         72.2744
812.96        72.82522
813.37        72.95428
813.78         72.6599
814.19        72.47074
814.60        72.46908
815.01        72.41382
815.42        72.34017
815.83        72.42906
816.24        72.66031
816.65        72.87473
817.05         73.0323
817.46        73.13624
817.87        73.20687
818.28        73.22276
818.69        73.18904
819.10        73.10835
819.51        72.98639
819.92        72.86942
820.33        72.78991
820.74        72.68098
821.14        72.58475
821.55        72.77145
821.96         73.1489
822.37         73.2851
822.78        73.19897
823.19        73.30126
823.60        73.60612
824.00         73.8836
824.41         73.9894
824.82        73.91163
825.23        73.63694
825.64         73.1762
826.04        72.71977
826.45        72.54563
826.86        72.73132
827.27        73.20712
827.68        73.76264
828.08        74.07667
828.49        73.98443
828.90        73.59282
829.31        73.11559
829.72        72.94226
830.12        73.19298
830.53        73.68778
830.94        74.25002
831.35        74.56486
831.75        74.55537
832.16         74.2719
832.57        73.87389
832.97        73.59858
833.38        73.52435
833.79         73.5862
834.20        73.70955
834.60        73.78094
835.01        73.78304
835.42        73.75614
835.82        73.76408
836.23        73.82349
836.64        73.96945
837.04        74.19516
837.45        74.41257
837.86        74.58851
838.26        74.71474
838.67        74.78164
839.08        74.82402
839.48        74.88416
839.89        74.96938
840.29        75.06146
840.70         75.1392
841.11        75.17142
841.51        75.17457
841.92        75.13935
842.33        75.08872
842.73        75.05079
843.14        74.99258
843.54        74.93288
843.95        74.90942
844.35        75.00546
844.76        75.20946
845.17        75.48554
845.57        75.74159
845.98        75.78605
846.38        75.60218
846.79        75.22935
847.19        74.77045
847.60        74.34712
848.00        74.04298
848.41        73.79932
848.81        73.66973
849.22        73.65632
849.62        73.78181
850.03        74.02642
850.43        74.31707
850.84        74.44505
851.24        74.41835
851.65        74.21776
852.05        74.02802
852.46        74.08331
852.86        74.41782
853.27        74.92573
853.67        75.37064
854.07        75.62241
854.48        75.60905
854.88        75.44227
855.29         75.0635
855.69        74.58748
856.10         73.9987
856.50        73.37122
856.90        72.82578
857.31        72.57983
857.71        72.71278
858.12        73.11907
858.52        73.64535
858.92        73.89443
859.33        73.74675
859.73         73.3361
860.13        72.79497
860.54         72.4083
860.94        72.31345
861.34        72.37955
861.75        72.51729
862.15        72.65038
862.55        72.71157
862.96        72.77304
863.36        72.77723
863.76        72.60307
864.17        72.24499
864.57        71.73853
864.97        71.28313
865.38        71.18935
865.78        71.55643
866.18        72.27407
866.58        73.04898
866.99        73.36284
867.39        73.09776
867.79         72.3788
868.19        71.50673
868.60        70.89094
869.00        70.63293
869.40        70.65726
869.80         70.8141
870.21        70.83699
870.61        70.72426
871.01        70.52563
871.41        70.38185
871.81        70.47871
872.22        70.82298
872.62        71.36583
873.02        71.97711
873.42        72.40746
873.82        72.56261
874.22        72.51966
874.63        72.39867
875.03        72.35472
875.43        72.43683
875.83        72.57181
876.23        72.72939
876.63        72.86546
877.03         72.9451
877.44        72.98388
877.84        72.92974
878.24        72.65933
878.64        72.18731
879.04        71.58993
879.44        71.01432
879.84        70.65887
880.24        70.55837
880.64        70.65112
881.04        70.86996
881.44        71.08874
881.84        71.24963
882.24        71.38168
882.65        71.43812
883.05        71.44775
883.45        71.38947
883.85        71.27249
884.25        71.16062
884.65        71.16173
885.05        71.29203
885.45        71.50536
885.85        71.77068
886.25        72.02632
886.65        72.23146
887.05         72.4044
887.45        72.46891
887.85        72.31123
888.25        71.92925
888.65         71.3572
889.04        70.75912
889.44        70.45525
889.84        70.50444
890.24         70.8302
890.64        71.24454
891.04        71.43695
891.44        71.33472
891.84        71.04078
892.24        70.70409
892.64        70.56022
893.04        70.66932
893.44        70.94028
893.83          71.304
894.23        71.59093
894.63        71.76744
895.03        71.87396
895.43        71.91893
895.83        71.91035
896.23        71.86616
896.63        71.78741
897.02        71.69013
897.42        71.64233
897.82        71.64557
898.22        71.69388
898.62        71.78497
899.01        71.91943
899.41        72.06212
899.81         72.2098
900.21        72.32989
900.61         72.3735
901.00        72.31873
901.40        72.19937
901.80        72.02575
902.20        71.82794
902.59        71.64192
902.99         71.4652
903.39        71.34668
903.79         71.3442
904.18        71.46584
904.58        71.69996
904.98        72.00018
905.38        72.30913
905.77        72.58608
906.17        72.82052
906.57        73.00922
906.96        73.17461
907.36        73.28812
907.76        73.37206
908.15        73.35606
908.55        73.05707
908.95        72.50945
909.34        71.76693
909.74        71.10947
910.14        70.90549
910.53        71.21943
910.93        71.90878
911.33        72.69648
911.72        73.09808
912.12        72.97248
912.52        72.51986
912.91         71.9117
913.31        71.41756
913.70        71.11672
914.10        70.89572
914.49        70.84255
914.89         71.0592
915.29         71.5442
915.68        72.26261
916.08        72.95653
916.47        73.20579
916.87        72.94727
917.26        72.27446
917.66        71.48379
918.05        71.02399
918.45        71.00414
918.84        71.32545
919.24        71.75907
919.64        71.99789
920.03        71.97777
920.42        71.82067
920.82        71.66058
921.21        71.68978
921.61        71.93755
922.00        72.29756
922.40        72.74524
922.79        73.32059
923.19        73.93297
923.58        74.61861
923.98        75.09003
924.37        74.96935
924.77        74.21637
925.16        72.92536
925.55        71.58357
925.95        71.04355
926.34        71.50972
926.74        72.71703
927.13        74.12772
927.52        74.76569
927.92        74.42889
928.31        73.42711
928.70        72.22658
929.10        71.53552
929.49        71.54814
929.89        71.99135
930.28        72.69428
930.67        73.24789
931.07        73.47466
931.46        73.54524
931.85        73.45275
932.24        73.20327
932.64        72.83989
933.03        72.34251
933.42        71.85345
933.82        71.62306
934.21        71.70731
934.60         72.0586
934.99        72.51353
935.39        72.75852
935.78        72.72805
936.17        72.47678
936.56        72.14712
936.96         71.9753
937.35        72.08585
937.74        72.39291
938.13        72.72795
938.53        72.85658
938.92        72.73639
939.31        72.40273
939.70        72.09345
940.09        72.20807
940.49        72.78386
940.88        73.71608
941.27        74.57706
941.66        74.73035
942.05        74.07553
942.44        72.82779
942.84        71.48315
943.23        70.79973
943.62        71.01511
944.01        71.90866
944.40        73.08208
944.79        73.81053
945.18        73.84177
945.57        73.38797
945.97        72.69195
946.36        72.19044
946.75        71.97349
947.14        71.89911
947.53        71.85502
947.92        71.67786
948.31        71.33254
948.70        70.92825
949.09        70.55772
949.48        70.32738
949.87        70.27006
950.26        70.34026
950.65        70.49928
951.04        70.69866
951.43        70.90157
951.82         71.0965
952.21         71.2627
952.60        71.36703
952.99        71.39859
953.38        71.37522
953.77        71.27548
954.16        71.07025
954.55        70.77795
954.94        70.41579
955.33        70.10706
955.72        70.05486
956.11        70.29235
956.50        70.75591
956.89        71.27031
957.28        71.51227
957.66        71.41451
958.05        71.06668
958.44        70.59965
958.83        70.22865
959.22        70.02638
959.61        69.89091
960.00        69.87482
960.39        70.06592
960.78         70.4349
961.16        70.99911
961.55        71.43166
961.94         71.2692
962.33        70.44631
962.72        69.16467
963.11        67.85098
963.49        67.12863
963.88        67.14697
964.27        67.74352
964.66        68.68102
965.04        69.52226
965.43        70.00334
965.82        70.27662
966.21        70.43996
966.60        70.67561
966.98        71.03568
967.37        71.36347
967.76        71.61859
968.15        71.73274
968.53        71.69296
968.92        71.58387
969.31        71.35728
969.69        70.89065
970.08        70.21062
970.47        69.39048
970.86        68.79274
971.24         69.0459
971.63        70.15265
972.02        71.82978
972.40        73.59876
972.79        74.68382
973.17         75.0112
973.56        74.71239
973.95        74.03313
974.33        73.38924
974.72        72.94707
975.11        72.58772
975.49        72.24297
975.88        71.83793
976.26        71.36514
976.65        70.90363
977.04        70.49873
977.42        70.15799
977.81        69.85112
978.19        69.54818
978.58        69.39641
978.96        69.58277
979.35        70.09796
979.74        70.90614
980.12        71.78827
980.51        72.17578
980.89        72.06565
981.28        71.50337
981.66        70.86323
982.05         70.8652
982.43         71.6606
982.82        72.95643
983.20        74.33856
983.59        75.01277
983.97        74.87757
984.35        74.10767
984.74         72.9894
985.12         72.0359
985.51        71.46999
985.89        71.22059
986.28        71.19148
986.66        71.30487
987.04        71.48199
987.43        71.72262
987.81         72.0955
988.20         72.5974
988.58        73.22277
988.96        73.90583
989.35        74.35842
989.73         74.2683
990.12        73.52639
990.50        72.13954
990.88        70.51688
991.27         69.6556
991.65         69.9283
992.03        71.08939
992.42        72.31948
992.80        72.83274
993.18        72.35865
993.56        71.04179
993.95        69.39703
994.33        68.59167
994.71        69.18079
995.10        70.55651
995.48        71.93773
995.86        72.40809
996.24         71.8873
996.63        70.59107
997.01        69.03486
997.39        68.30344
997.77        68.82985
998.15        70.18426
998.54        71.65668
998.92        72.32146
999.30        71.95734
999.68        70.89723
1000.06        69.45477
1000.45        68.17912
1000.83        67.43752
1001.21         67.0289
1001.59        66.97518
1001.97        67.30187
1002.35        67.98376
1002.73        69.12759
1003.12        70.44613
1003.50        71.09615
1003.88        70.85709
1004.26         69.8837
1004.64        68.81735
1005.02        68.50756
1005.40        69.10342
1005.78        70.48013
1006.16        72.00748
1006.54        72.54215
1006.92        71.79731
1007.30        70.05862
1007.69        68.43125
1008.07        68.62561
1008.45        70.98566
1008.83        74.80958
1009.21        78.61556
1009.59        80.32988
1009.97        79.42736
1010.35        76.25871
1010.73        71.77956
1011.11         68.6545
1011.49        68.32423
1011.86        70.24139
1012.24         72.9813
1012.62        74.72031
1013.00        75.02649
1013.38        74.54928
1013.76         73.8662
1014.14         73.8709
1014.52        74.83263
1014.90        76.31302
1015.28        77.97352
1015.66        79.22258
1016.04        79.76521
1016.41        79.96785
1016.79        79.62389
1017.17        78.76711
1017.55        77.54295
1017.93        75.99045
1018.31        74.71515
1018.69        74.67568
1019.06        76.12904
1019.44        78.94769
1019.82        82.29997
1020.20        84.29604
1020.58        84.18069
1020.95        82.36779
1021.33        80.00269
1021.71        78.54281
1022.09        78.23173
1022.46        78.62215
1022.84        79.00471
1023.22        77.97607
1023.60          75.047
1023.97        70.28794
1024.35        64.86948
1024.73        61.23673
