SpectraSmart Spectrum 2.9.0.0
--------- Device Information -----------
Spectrum Name :  反射率_0
Saving Time :  2024/04/27 22:14:38
Spectro-Module Model Name : SE2030-DUVN
Spectro-Module Serial Number : OS361AC55029948
Wavelength Start : 200
Wavelength End : 1025
Wavelength Unit : Wavelength(nm)
Spectrum Unit : Reflectance(%)
-----------Spectrum Setting ------------
Integration Time : 20ms
Average : 10
Boxcar : 0
Background removal :  enabled
linearity correction :  enabled
SC :  disabled
Intensity correction :  disabled
DWT denoise :  enabled
savitzky-golay :  disabled
FFT :  disabled
Running average :  disabled
Kalman :  disabled
High pass :  disabled
---------------BEGIN--------------------
Wavelength(nm)             Reflectance(%)
200.29               0
200.75       -22.59885
201.21       -13.38951
201.67       -1.976862
202.13        7.555212
202.58        15.97064
203.04        24.60378
203.50        33.63563
203.96        41.59896
204.42         47.5146
204.88        51.71693
205.34        54.52524
205.80        56.71869
206.26        58.60465
206.72        59.67328
207.18        59.40685
207.64        56.65459
208.10        52.76571
208.55        51.18922
209.01        48.67352
209.47         42.1571
209.93        28.01403
210.39       -8.066998
210.85       -114.1199
211.31       -229.4182
211.77       -66.45538
212.23        33.26505
212.69          65.944
213.14        72.36224
213.60        64.64713
214.06        43.00925
214.52        3.325511
214.98       -27.97213
215.44       -18.93243
215.90        6.383463
216.36        28.11969
216.81        40.09329
217.27        44.85192
217.73         46.7093
218.19        46.12293
218.65        42.69338
219.11        36.71728
219.57        27.85852
220.02        17.49842
220.48        11.74915
220.94        12.80416
221.40        18.63153
221.86        27.34659
222.32        36.91595
222.77        46.14746
223.23        54.59398
223.69        60.86911
224.15        63.52929
224.61        62.85725
225.06        59.33831
225.52        54.51158
225.98        51.28547
226.44          50.625
226.90        51.34715
227.36        52.20746
227.81        52.07738
228.27        50.85849
228.73        48.82816
229.19        46.32604
229.65        44.13147
230.10        42.62872
230.56        41.96705
231.02        41.52521
231.48        40.56539
231.93        38.96922
232.39        37.04057
232.85        35.68831
233.31        36.17925
233.77        38.46067
234.22        42.03786
234.68        45.31035
235.14        46.26624
235.60        44.55217
236.05         40.3796
236.51         35.4816
236.97         33.8544
237.43         37.0003
237.88        43.93229
238.34        51.14809
238.80        54.66427
239.26        53.31454
239.71        46.33369
240.17        33.78167
240.63        25.76174
241.08        31.90858
241.54        45.39715
242.00        56.53192
242.46        61.02888
242.91        59.73029
243.37        52.08946
243.83        34.08381
244.28        10.98519
244.74        10.31502
245.20        30.90965
245.66        49.17224
246.11        55.91329
246.57        53.71869
247.03        44.79416
247.48         27.6175
247.94        9.337508
248.40        2.638194
248.85        4.525062
249.31        13.11091
249.77        26.62983
250.22        41.16124
250.68        54.96259
251.14        65.12649
251.59        69.26206
252.05        67.98946
252.51        61.14351
252.96        49.19411
253.42        40.47471
253.88        40.45301
254.33        45.73104
254.79        50.68356
255.25        51.16028
255.70         48.1152
256.16         44.2965
256.62        41.59035
257.07         41.8575
257.53        44.59736
257.99        47.92114
258.44        50.52822
258.90        51.70093
259.35        51.38571
259.81        50.45629
260.27        49.24127
260.72        48.11518
261.18        47.43145
261.63        46.82469
262.09        46.28075
262.55        45.46481
263.00        44.33768
263.46         43.1689
263.91        42.10627
264.37        41.62914
264.83        41.66726
265.28        41.97753
265.74         42.3145
266.19        42.21282
266.65        41.67905
267.11        40.83861
267.56        39.85111
268.02        39.05608
268.47        38.50712
268.93        38.11663
269.38         37.8125
269.84        37.51143
270.30        37.16259
270.75        36.79088
271.21        36.36554
271.66        35.78735
272.12        35.07457
272.57          34.229
273.03        33.35468
273.48        32.54245
273.94         31.8764
274.39        31.29901
274.85        30.83107
275.31        30.42203
275.76        30.02977
276.22        29.68478
276.67        29.32351
277.13        28.94395
277.58        28.49684
278.04          28.027
278.49        27.50739
278.95        27.00389
279.40        26.49251
279.86        26.03625
280.31        25.60472
280.77        25.25949
281.22        24.97595
281.68        24.77803
282.13        24.65166
282.59        24.61928
283.04         24.6471
283.50        24.71652
283.95        24.77137
284.41        24.76407
284.86        24.66402
285.32        24.50882
285.77        24.29058
286.22        24.03095
286.68        23.76588
287.13        23.47544
287.59        23.23122
288.04        23.06834
288.50        23.02033
288.95        23.04465
289.41        23.11951
289.86        23.16551
290.32        23.17848
290.77        23.16952
291.22         23.1535
291.68         23.1504
292.13        23.16195
292.59        23.19231
293.04        23.25752
293.50        23.40772
293.95        23.64168
294.40        23.96208
294.86        24.32806
295.31        24.66436
295.77        24.96376
296.22        25.23074
296.68        25.53116
297.13        25.94702
297.58        26.49067
298.04        27.12041
298.49        27.74439
298.95        28.24081
299.40          28.583
299.85        28.80741
300.31        29.01303
300.76        29.31982
301.21        29.75988
301.67        30.28861
302.12        30.79383
302.58        31.14601
303.03        31.30783
303.48         31.3416
303.94        31.35923
304.39        31.48057
304.84        31.74884
305.30        32.12537
305.75        32.50864
306.20        32.78294
306.66        32.93042
307.11        32.95791
307.57        32.96073
308.02        33.02387
308.47        33.17531
308.93        33.37439
309.38        33.51839
309.83        33.47814
310.29        33.24722
310.74         32.8725
311.19        32.46025
311.65        32.17345
312.10        32.04099
312.55        32.01833
313.00        32.05679
313.46        32.07927
313.91        32.05032
314.36        31.99751
314.82         31.8972
315.27        31.70706
315.72        31.43052
316.18        31.08125
316.63        30.71888
317.08        30.46483
317.53        30.34264
317.99        30.31704
318.44        30.32015
318.89        30.22125
319.35        29.98959
319.80        29.66992
320.25        29.32277
320.70        29.05045
321.16        28.87522
321.61        28.76688
322.06        28.68667
322.51        28.57763
322.97        28.41479
323.42        28.22813
323.87        28.01468
324.32        27.77523
324.78        27.51387
325.23        27.23168
325.68        26.95116
326.13        26.71887
326.59        26.53275
327.04        26.40179
327.49        26.28045
327.94        26.09755
328.39        25.83578
328.85        25.51334
329.30        25.17544
329.75        24.89572
330.20        24.70208
330.66        24.56354
331.11        24.47109
331.56        24.36296
332.01        24.21947
332.46        24.05897
332.92        23.88892
333.37        23.74354
333.82        23.62804
334.27        23.53049
334.72        23.45135
335.17        23.39572
335.63        23.35329
336.08        23.33347
336.53        23.31089
336.98        23.25366
337.43        23.15613
337.88        23.03108
338.34        22.89437
338.79        22.77495
339.24        22.68648
339.69        22.62261
340.14        22.58702
340.59          22.586
341.05         22.6124
341.50         22.6614
341.95        22.70364
342.40        22.70184
342.85         22.6431
343.30        22.53255
343.75        22.38262
344.20        22.21494
344.66        22.05054
345.11        21.89748
345.56        21.75787
346.01        21.63104
346.46          21.519
346.91         21.4134
347.36        21.35811
347.81        21.41463
348.26        21.58226
348.72        21.84513
349.17        22.08314
349.62        22.10654
350.07        21.88246
350.52        21.45598
350.97        21.01474
351.42        20.86277
351.87        21.05442
352.32        21.49242
352.77        21.94111
353.22        22.03712
353.67        21.70891
354.13         21.0916
354.58        20.39129
355.03        19.98768
355.48         19.9802
355.93        20.25509
356.38        20.62496
356.83        20.79777
357.28        20.70093
357.73        20.43545
358.18        20.13776
358.63         20.0143
359.08        20.10756
359.53        20.32479
359.98        20.56133
360.43        20.66606
360.88        20.59462
361.33        20.40059
361.78        20.12086
362.23        19.84772
362.68        19.62466
363.13        19.36454
363.58        19.06741
364.03        19.10798
364.48        18.88487
364.93         18.8738
365.38        18.87809
365.83         18.8784
366.28        18.85486
366.73        18.81917
367.18        18.75517
367.63        18.62542
368.08        18.43363
368.53        18.19183
368.98        17.95401
369.43        17.80888
369.88        17.77528
370.33        17.82679
370.78        17.90708
371.23        17.92298
371.68        17.84164
372.13        17.68114
372.58        17.47671
373.03        17.28663
373.48         17.1364
373.93        17.02594
374.38        16.92257
374.83        16.77343
375.28        16.57723
375.72        16.34386
376.17        16.17883
376.62        16.20443
377.07        16.42369
377.52         16.7703
377.97        17.10645
378.42        17.22118
378.87        17.07103
379.32        16.73505
379.77        16.31488
380.22        15.96516
380.67        15.73719
381.11        15.58748
381.56        15.50933
382.01        15.48844
382.46        15.50888
382.91        15.58185
383.36        15.65882
383.81        15.65765
384.26        15.56192
384.71        15.38446
385.15        15.17655
385.60        15.05653
386.05        15.03963
386.50        15.10029
386.95        15.18029
387.40        15.18594
387.85        15.10484
388.29        14.96793
388.74        14.85313
389.19        14.83513
389.64         14.9204
390.09        15.06099
390.54        15.21208
390.98        15.30223
391.43        15.31149
391.88         15.2677
392.33        15.15673
392.78        14.98281
393.23        14.77052
393.67         14.4642
394.12        14.15201
394.57        14.11881
395.02        14.12471
395.47        14.11969
395.91        14.02946
396.36        14.00633
396.81        14.04646
397.26        14.05498
397.71        14.02431
398.15        13.99741
398.60        13.99101
399.05        13.93401
399.50        13.86338
399.95        13.92459
400.39        14.07713
400.84        14.10267
401.29        13.99044
401.74        13.86225
402.18        13.75684
402.63        13.70592
403.08        13.70134
403.53          13.653
403.97        13.56296
404.42        13.51173
404.87        13.49673
405.32        13.48489
405.76        13.47076
406.21        13.42774
406.66        13.37478
407.11        13.40547
407.55        13.48591
408.00        13.46837
408.45        13.34638
408.90        13.15832
409.34        12.97442
409.79        12.96745
410.24        13.10561
410.68         13.1683
411.13        13.13732
411.58        13.14669
412.03        13.20769
412.47         13.2687
412.92        13.31491
413.37        13.36221
413.81        13.37953
414.26        13.33127
414.71        13.21313
415.15        13.03964
415.60        12.85525
416.05        12.74337
416.49        12.73088
416.94         12.7933
417.39        12.89065
417.83          12.959
418.28        12.97242
418.73        12.94175
419.17        12.88906
419.62        12.85351
420.07        12.85115
420.51        12.87652
420.96         12.8966
421.41        12.87906
421.85        12.81691
422.30        12.66531
422.74        12.50589
423.19        12.61493
423.64        12.94438
424.08        13.14101
424.53        13.10998
424.98        13.07903
425.42        13.04768
425.87        12.78287
426.31        12.40775
426.76        12.38383
427.21        12.66314
427.65        12.76521
428.10        12.66371
428.54         12.6465
428.99        12.70457
429.44        12.78968
429.88        12.83003
430.33        12.56592
430.77        12.14797
431.22        12.09735
431.66        12.39832
432.11         12.6411
432.56         12.7512
433.00         12.8472
433.45         12.8014
433.89        12.51458
434.34        12.23658
434.78        11.57027
435.23        12.01211
435.67        12.42465
436.12        12.64862
436.57         12.8035
437.01        12.76962
437.46        12.75136
437.90        12.80914
438.35        12.88149
438.79        12.57384
439.24        12.42255
439.68        12.33515
440.13        12.27064
440.57        12.22149
441.02        12.28691
441.46        12.42775
441.91        12.35424
442.35        12.14751
442.80        12.31644
443.24        12.74654
443.69        12.72406
444.13        12.28263
444.58        12.06131
445.02         12.0718
445.47        11.99389
445.91        11.83564
446.36        11.77698
446.80        11.81991
447.24        11.90959
447.69        12.02411
448.13        12.16259
448.58         12.2917
449.02         12.3507
449.47        12.34869
449.91        12.36078
450.36        12.39528
450.80        12.40512
451.25        12.39188
451.69        12.38138
452.13        12.37128
452.58        12.34488
453.02         12.3056
453.47        12.26378
453.91        12.22058
454.36        12.19869
454.80        12.17076
455.24        12.07932
455.69        11.95371
456.13        11.82393
456.58        11.74211
457.02        11.82916
457.46        12.01966
457.91        12.07825
458.35        12.03851
458.79         12.0307
459.24        12.06829
459.68        12.05197
460.13        11.99414
460.57        11.89462
461.01         11.8169
461.46        11.76731
461.90        11.70427
462.34        11.69149
462.79        11.91027
463.23        12.03352
463.68        12.08476
464.12        12.07879
464.56        12.02157
465.01        11.96361
465.45        11.89239
465.89        11.78816
466.34        11.70308
466.78        11.67978
467.22        11.69325
467.67        11.94681
468.11        11.89333
468.55        11.84974
468.99         11.7084
469.44        11.66728
469.88        11.73891
470.32        11.81279
470.77        11.87771
471.21        11.95387
471.65        12.03376
472.10        12.11555
472.54        12.17159
472.98        12.17559
473.42        12.13205
473.87        12.01926
474.31         11.8935
474.75        11.95438
475.20        12.17142
475.64         12.2919
476.08        12.28449
476.52        12.34083
476.97        12.46452
477.41        12.41823
477.85        12.33472
478.29        12.40412
478.74        12.32453
479.18        12.23707
479.62        12.44435
480.06        12.48013
480.50        12.47123
480.95        12.41485
481.39         12.3335
481.83        12.52934
482.27        12.63667
482.72        12.74065
483.16        13.05782
483.60        13.15158
484.04        13.10834
484.48        12.95391
484.93        12.91366
485.37        12.90494
485.81        13.37028
486.25        13.81015
486.69        13.38064
487.14        12.80036
487.58        13.99284
488.02        13.91511
488.46        13.96314
488.90        14.06319
489.34         13.6019
489.79         13.4421
490.23        13.86098
490.67         14.1875
491.11        14.46029
491.55        14.49108
491.99        14.34858
492.43        14.38874
492.88        14.62785
493.32        14.80013
493.76        14.88601
494.20         15.0328
494.64        15.25076
495.08        15.44736
495.52        15.60698
495.96        15.84056
496.41        16.13458
496.85        16.06746
497.29        15.77628
497.73        15.89338
498.17        16.35975
498.61        16.62094
499.05        16.60138
499.49        16.59705
499.93        16.65858
500.37        16.73202
500.82        16.82221
501.26        16.97438
501.70        17.19753
502.14        17.12471
502.58        17.36119
503.02        17.44583
503.46        17.48564
503.90        17.50845
504.34        17.51363
504.78        17.55547
505.22         17.6338
505.66        17.70516
506.10        17.77357
506.54        17.89315
506.98        18.06507
507.42        18.18363
507.86        18.36825
508.30        18.46912
508.74        18.52097
509.18        18.52968
509.62        18.51772
510.06        18.52091
510.50        18.54956
510.94        18.59428
511.38        18.64893
511.82        18.70315
512.26        18.75109
512.70        18.79844
513.14         18.8389
513.58        18.85255
514.02        18.83861
514.46        18.81791
514.90        18.80805
515.34        18.77191
515.78        18.82454
516.22        18.87005
516.66        18.93708
517.10        19.01597
517.54        19.10003
517.98        19.18738
518.42        19.25917
518.86        19.28949
519.30        19.27301
519.74        19.21508
520.18        19.14008
520.62        19.08726
521.06        19.06772
521.50         19.0754
521.93        19.08984
522.37        19.06751
522.81        19.00363
523.25        18.91006
523.69        18.81769
524.13        18.77431
524.57        18.78597
525.01        18.83285
525.45        18.87623
525.89        18.85546
526.32        18.75601
526.76        18.60986
527.20        18.44736
527.64        18.31972
528.08        18.24341
528.52        18.19879
528.96        18.18414
529.40        18.19636
529.83        18.22557
530.27        18.27393
530.71        18.30694
531.15        18.26974
531.59        18.15554
532.03        17.97973
532.46        17.79157
532.90        17.68481
533.34        17.67626
533.78        17.73943
534.22        17.82437
534.66        17.85306
535.09        17.80595
535.53        17.71249
535.97        17.60673
536.41        17.54334
536.85        17.53931
537.28        17.57887
537.72         17.6404
538.16        17.68832
538.60        17.71288
539.04        17.72747
539.47        17.74674
539.91        17.80294
540.35        17.89486
540.79        18.01364
541.22        18.12901
541.66        18.19477
542.10        18.20449
542.54        18.17957
542.97        18.15376
543.41        18.18935
543.85        18.29717
544.29        18.45661
544.72         18.6429
545.16        18.83177
545.60        19.00434
546.04        19.16901
546.47        19.32025
546.91        19.44399
547.35        19.54035
547.79        19.62127
548.22        19.70009
548.66        19.79666
549.10        19.92897
549.53        20.16036
549.97        20.45899
550.41        20.70017
550.84        20.86317
551.28        21.01047
551.72        21.14858
552.15        21.26357
552.59        21.36726
553.03        21.45448
553.46        21.54039
553.90         21.6667
554.34        21.83404
554.77        22.03962
555.21        22.24622
555.65        22.39223
556.08        22.44267
556.52        22.46855
556.96        22.49225
557.39        22.58142
557.83        22.73069
558.27         22.8269
558.70        22.86967
559.14        22.94335
559.57         23.0417
560.01        23.14394
560.45        23.23372
560.88        23.27329
561.32        23.30889
561.75        23.40072
562.19        23.54711
562.63        23.73418
563.06        23.89932
563.50        23.86872
563.93        23.69513
564.37        23.67284
564.80        23.81523
565.24        23.97993
565.68         24.1335
566.11        24.27634
566.55         24.4013
566.98        24.52525
567.42        24.65103
567.85        24.71445
568.29        24.76252
568.72        24.86182
569.16        25.01164
569.60         25.1932
570.03        25.42059
570.47         25.4459
570.90        25.57196
571.34        25.97769
571.77        26.05143
572.21        26.03684
572.64        26.31002
573.08        26.29154
573.51        26.71444
573.95         26.7865
574.38        26.66578
574.82        26.75539
575.25        26.87322
575.69        26.79484
576.12        26.65619
576.56        27.16552
576.99        27.38207
577.42        27.12918
577.86        27.26226
578.29        27.43346
578.73        26.96678
579.16        26.93165
579.60        26.97589
580.03        26.95164
580.47        26.83195
580.90         26.7327
581.33        26.90026
581.77        26.81481
582.20        26.54064
582.64        26.15298
583.07        26.13317
583.51        26.01352
583.94        26.00911
584.37        26.03171
584.81        25.99738
585.24         25.7624
585.68        25.50432
586.11        25.06785
586.54        25.15114
586.98         25.2632
587.41        25.45866
587.85        24.93195
588.28        24.97197
588.71        24.79662
589.15        25.12766
589.58        24.88087
590.01        25.17159
590.45        25.24809
590.88        24.78086
591.31        24.72497
591.75        24.88744
592.18         24.8742
592.61        24.72577
593.05        24.87761
593.48        25.26155
593.91        24.96152
594.35        25.06557
594.78        25.26323
595.21        25.42109
595.65        25.51749
596.08        25.41706
596.51        25.80708
596.94        25.80618
597.38        26.12531
597.81        26.54013
598.24        26.54093
598.68         26.9587
599.11        27.41664
599.54        27.53067
599.97        27.59124
600.41        28.27915
600.84        28.62264
601.27        28.87046
601.70        29.06691
602.14        29.26499
602.57        29.91678
603.00        30.59149
603.43        31.01489
603.87        31.30098
604.30        31.44396
604.73        31.92565
605.16        32.74984
605.60        33.08456
606.03        33.65743
606.46        34.13253
606.89        34.39541
607.32        34.78497
607.76        35.30682
608.19        35.50571
608.62        35.88122
609.05        36.30507
609.48        36.68111
609.92        36.96311
610.35        37.43152
610.78        37.89877
611.21        37.79507
611.64        38.54943
612.07        38.78541
612.50        38.96556
612.94        39.22362
613.37        39.60624
613.80        39.95963
614.23        40.30504
614.66         40.6413
615.09        40.92727
615.52          41.163
615.96        41.44224
616.39        41.40843
616.82        41.78785
617.25        42.47881
617.68        42.87109
618.11        42.98067
618.54        42.71477
618.97        43.09732
619.40        43.61041
619.84        44.13782
620.27        44.03837
620.70        44.06635
621.13        44.05622
621.56        44.51719
621.99        44.39502
622.42        44.46375
622.85        44.40245
623.28        44.80837
623.71        44.86029
624.14         44.4262
624.57        44.80902
625.00        45.09373
625.43        44.67266
625.86        44.66188
626.29        44.80314
626.72        44.41695
627.15        44.41138
627.58        44.22607
628.01        44.20028
628.44        43.70487
628.87        43.36338
629.30        43.42547
629.73         42.9402
630.16        42.26726
630.59        42.21575
631.02        41.95805
631.45        41.75978
631.88        41.49532
632.31        41.16958
632.74        40.60506
633.17        40.22858
633.60         39.7587
634.03        39.32698
634.46        38.91552
634.89        38.50301
635.32         38.0409
635.75        37.52013
636.18        36.98505
636.61        36.46267
637.04        35.94868
637.47         35.4738
637.89        35.12445
638.32        34.84716
638.75        34.50201
639.18        34.07608
639.61        33.64519
640.04        33.23637
640.47        32.87252
640.90        32.56862
641.33         32.3052
641.76        32.07392
642.18        31.94105
642.61        31.77506
643.04        31.67669
643.47        31.60785
643.90        31.56664
644.33        31.55001
644.76        31.55928
645.18        31.58833
645.61        31.62527
646.04        31.67135
646.47        31.72304
646.90        31.80648
647.33        31.97304
647.75        32.24014
648.18        32.55857
648.61        32.97103
649.04        33.33304
649.47        33.66634
649.89        33.91768
650.32        34.17224
650.75         34.7484
651.18        35.57231
651.61        36.16044
652.03        36.43175
652.46         36.7784
652.89        37.34447
653.32        37.61521
653.74        37.80051
654.17        39.21674
654.60         39.7005
655.03        39.88353
655.46        41.16349
655.88        41.74341
656.31        42.48858
656.74        42.92876
657.16        43.15549
657.59        43.55098
658.02        43.57634
658.45        44.75753
658.87        44.67424
659.30        45.53751
659.73        45.45012
660.15        45.86822
660.58        46.21652
661.01        46.74264
661.44        47.34382
661.86        47.77049
662.29        48.02417
662.72        48.18655
663.14        48.34682
663.57        48.65524
664.00        49.08405
664.42        49.36832
664.85        49.50931
665.27        49.70605
665.70        49.95285
666.13         50.1357
666.55        50.25578
666.98        50.34857
667.41        50.45694
667.83        50.63774
668.26         50.8939
668.69        51.21471
669.11        51.53183
669.54        51.74115
669.96        51.83017
670.39        51.78882
670.82        51.71354
671.24        51.84246
671.67        52.16111
672.09        52.42255
672.52        52.60369
672.94        52.76538
673.37        52.93076
673.80        53.14309
674.22        53.38161
674.65         53.5013
675.07        53.50934
675.50        53.47894
675.92        53.46917
676.35        53.52619
676.77        53.67666
677.20        53.91671
677.62        54.20456
678.05        54.44838
678.47        54.61377
678.90        54.73838
679.32        54.87005
679.75        55.02883
680.17        55.21263
680.60        55.66274
681.02        55.93517
681.45        56.02287
681.87        55.88336
682.30        55.79861
682.72        55.82913
683.15        56.06991
683.57        56.47044
684.00         56.5071
684.42        56.17909
684.85        56.65018
685.27         56.6587
685.70        56.92568
686.12        57.03126
686.54        57.20509
686.97        57.44353
687.39        57.29101
687.82        57.54144
688.24        57.49251
688.66        57.66283
689.09        57.76422
689.51        57.89572
689.94        58.07345
690.36        58.27024
690.78        58.38212
691.21        58.42437
691.63        58.47243
692.06        58.65548
692.48        58.67387
692.90        58.60125
693.33         58.5993
693.75        58.69304
694.17        58.82266
694.60        58.94682
695.02        59.07384
695.44        59.20153
695.87        59.24822
696.29        59.28003
696.71        59.63816
697.14        60.19565
697.56        60.32903
697.98        60.06631
698.41        60.07062
698.83        60.28215
699.25        60.41823
699.68        60.44616
700.10        60.56725
700.52        60.77623
700.94         61.0226
701.37        61.24954
701.79        61.39375
702.21        61.42183
702.64        61.37338
703.06        61.29786
703.48        61.28928
703.90        61.37758
704.33        61.53149
704.75        61.71761
705.17        61.85872
705.59        61.93108
706.01        61.93599
706.44        61.91014
706.86        62.01483
707.28        62.08796
707.70        62.27082
708.12        62.46939
708.55        62.53621
708.97        62.48719
709.39        62.52568
709.81        62.66074
710.23        62.74782
710.66        62.78477
711.08        62.87883
711.50        63.00759
711.92         63.1115
712.34         63.1866
712.76        63.24636
713.19        63.30001
713.61        63.40512
714.03        63.54845
714.45         63.7136
714.87        63.86852
715.29        63.96621
715.71        63.99993
716.13        63.98857
716.56        63.94915
716.98        63.98146
717.40        64.08575
717.82        64.23613
718.24        64.41341
718.66        64.60165
719.08        64.77647
719.50        64.90578
719.92        64.99142
720.34         65.0666
720.76        65.13317
721.19        65.16373
721.61        65.16406
722.03        65.12572
722.45         65.0548
722.87        64.96233
723.29        64.88497
723.71        64.87637
724.13        64.95205
724.55        65.10286
724.97          65.293
725.39        65.46032
725.81        65.58248
726.23        65.66515
726.65        65.73711
727.07        65.84973
727.49        66.00886
727.91        66.19303
728.33         66.3513
728.75        66.39763
729.17        66.31868
729.59        66.16448
730.01        65.99457
730.43         65.8839
730.85        65.87812
731.27        65.98696
731.69         66.1611
732.10        66.40216
732.52        66.50607
732.94         66.6348
733.36        66.71423
733.78        66.88683
734.20        66.62379
734.62        66.89806
735.04        66.51168
735.46        66.67233
735.88        66.98622
736.30        66.82853
736.72        66.32868
737.13        66.49809
737.55        67.19608
737.97        67.31925
738.39        66.87029
738.81         66.5961
739.23        66.60271
739.65        66.76227
740.06        66.96597
740.48        67.04885
740.90        66.96184
741.32        66.93633
741.74        66.92583
742.16        66.99991
742.57        67.14504
742.99        67.38799
743.41        67.66444
743.83        67.77814
744.25        67.73959
744.67         67.7402
745.08        67.83237
745.50        67.90508
745.92        67.98237
746.34        68.15283
746.75        68.33234
747.17        68.34914
747.59        68.18271
748.01        67.83564
748.42        67.47124
748.84        67.42536
749.26        67.67895
749.68        68.00827
750.09        68.27113
750.51        68.19629
750.93        67.89398
751.35        67.98112
751.76         68.4039
752.18        68.50584
752.60        68.25013
753.01        68.09616
753.43        68.13041
753.85        68.12161
754.27        68.03601
754.68        68.77819
755.10        68.76502
755.52        68.97813
755.93        68.97768
756.35        69.00928
756.77        69.06313
757.18        69.04616
757.60        69.00103
758.02        68.89007
758.43        68.78264
758.85        68.93346
759.26        69.25682
759.68        69.28687
760.10        69.25108
760.51        68.55499
760.93        69.51629
761.34        68.80322
761.76        69.35633
762.18        69.31611
762.59        69.40509
763.01         69.5078
763.42        69.63593
763.84        69.65623
764.26         69.6009
764.67        69.50273
765.09        69.39269
765.50        69.43167
765.92        69.68842
766.33        69.09174
766.75        69.42795
767.16        69.31344
767.58        69.26694
768.00        69.38794
768.41        69.66766
768.83        69.70834
769.24        69.55534
769.66        69.77026
770.07        70.23699
770.49        70.36143
770.90        70.16634
771.32        70.14288
771.73        70.32574
772.15        70.38757
772.56        70.34068
772.97        70.41789
773.39        70.56607
773.80        70.52903
774.22        70.34678
774.63        70.45901
775.05        70.80876
775.46        71.02473
775.88        71.04653
776.29        71.13203
776.70        71.26388
777.12        71.31889
777.53         71.3051
777.95        71.22501
778.36        71.14182
778.77         71.1071
779.19        71.13705
779.60        71.33157
780.02        71.57688
780.43        71.51399
780.84        71.21844
781.26        71.15167
781.67        71.41378
782.09         71.7794
782.50        71.96283
782.91        72.41382
783.33        71.37066
783.74        71.22812
784.15        71.47866
784.57        71.72617
784.98        71.86787
785.39        71.79482
785.81        71.59898
786.22        71.73994
786.63         72.1533
787.04        72.32967
787.46        72.25879
787.87        72.21573
788.28        72.23276
788.70        72.24344
789.11        72.24885
789.52        72.22442
789.93        72.18536
790.35        72.30915
790.76        72.54712
791.17        72.46197
791.58        72.14536
792.00        72.15501
792.41        72.49576
792.82        72.73009
793.23        72.77782
793.65        72.79672
794.06        72.89743
794.47        73.06889
794.88        73.15376
795.29        73.90411
795.71        73.31484
796.12        73.19371
796.53        73.02765
796.94        73.00555
797.35        73.11034
797.76        73.11605
798.18           73.05
798.59        73.11436
799.00        73.32463
799.41        73.35667
799.82        73.51527
800.23        73.53693
800.64        73.51675
801.06        73.42194
801.47        73.32347
801.88        73.25365
802.29        73.22385
802.70        73.23605
803.11        73.29636
803.52        73.32727
803.93        73.30025
804.34        73.41145
804.75        73.67519
805.17        73.34589
805.58        73.35056
805.99        73.58678
806.40         74.1778
806.81        74.30441
807.22        73.98167
807.63        73.85901
808.04        73.98313
808.45         74.0153
808.86        73.95791
809.27         74.0164
809.68        74.14077
810.09        74.17113
810.50        74.09496
810.91         73.8829
811.32        73.61935
811.73        73.66537
812.14        73.96803
812.55           73.96
812.96         73.6771
813.37        73.74397
813.78        74.13172
814.19        74.29395
814.60        74.21424
815.01        74.22111
815.42        74.32348
815.83        74.35197
816.24        74.33067
816.65        74.38346
817.05        74.52747
817.46        74.69305
817.87        74.86069
818.28         74.9469
818.69        74.93421
819.10        74.84933
819.51        74.73714
819.92        74.67464
820.33        74.68964
820.74        74.76026
821.14          74.842
821.55         74.9016
821.96        74.90555
822.37        74.86545
822.78        74.80689
823.19        74.77324
823.60        74.77816
824.00        74.83214
824.41        74.84991
824.82        74.78535
825.23        74.63063
825.64          74.413
826.04        74.23114
826.45        74.20335
826.86        74.36869
827.27        74.68987
827.68        75.06322
828.08        75.34674
828.49        75.42197
828.90         75.3578
829.31        75.24218
829.72         75.2307
830.12        75.38487
830.53         75.6074
830.94        75.81784
831.35        75.85105
831.75        75.68925
832.16        75.34267
832.57        74.94522
832.97         74.6862
833.38        74.62267
833.79        74.71466
834.20        74.87829
834.60          74.979
835.01        74.99557
835.42        74.95956
835.82        74.95122
836.23        75.02506
836.64        75.21916
837.04        75.50977
837.45        75.77814
837.86        75.94033
838.26        75.98222
838.67        75.92656
839.08         75.8314
839.48        75.77258
839.89        75.78137
840.29          75.833
840.70        75.93855
841.11        76.12158
841.51         76.3847
841.92        76.67184
842.33        76.92853
842.73         77.0546
843.14        76.97742
843.54        76.76823
843.95        76.47296
844.35        76.19164
844.76        75.96251
845.17        75.77342
845.57         75.6724
845.98        75.69262
846.38           75.85
846.79        76.09875
847.19        76.37176
847.60        76.49731
848.00        76.45325
848.41         76.2497
848.81        75.96636
849.22        75.66761
849.62        75.43391
850.03        75.23341
850.43        75.10921
850.84        75.03931
851.24        75.06979
851.65        75.15273
852.05        75.34969
852.46        75.62741
852.86        75.93829
853.27         76.2684
853.67        76.47356
854.07        76.55209
854.48        76.46265
854.88        76.26025
855.29        75.90343
855.69        75.54773
856.10        75.16583
856.50        74.82822
856.90        74.54739
857.31        74.36179
857.71        74.31974
858.12        74.36089
858.52        74.46924
858.92        74.48177
859.33        74.34077
859.73        74.11645
860.13        73.83534
860.54        73.58344
860.94         73.4386
861.34        73.34889
861.75        73.28393
862.15        73.25705
862.55        73.23386
862.96        73.23465
863.36        73.23746
863.76        73.18793
864.17        73.06914
864.57        72.89934
864.97        72.73772
865.38        72.66444
865.78        72.73952
866.18        72.91792
866.58        73.09012
866.99        73.07848
867.39         72.8723
867.79        72.49874
868.19         72.0982
868.60        71.83679
869.00        71.74573
869.40        71.81793
869.80        71.95504
870.21        71.98322
870.61        71.92837
871.01        71.78238
871.41        71.66544
871.81        71.74776
872.22        72.03159
872.62        72.49591
873.02        72.99953
873.42        73.26946
873.82        73.22682
874.22        72.96443
874.63        72.67298
875.03        72.60389
875.43        72.81403
875.83        73.20242
876.23        73.64138
876.63        73.92095
877.03         73.9634
877.44        73.82775
877.84        73.56352
878.24         73.2217
878.64        72.85864
879.04        72.48653
879.44        72.16485
879.84        71.97062
880.24        71.91449
880.64        71.98141
881.04        72.14896
881.44        72.36279
881.84        72.58674
882.24        72.81226
882.65        72.97131
883.05        73.06853
883.45        73.05587
883.85        72.93921
884.25        72.76588
884.65        72.60971
885.05        72.50002
885.45        72.44002
885.85        72.41437
886.25        72.39288
886.65        72.37359
887.05        72.36469
887.45         72.4061
887.85        72.55833
888.25        72.81071
888.65         73.1214
889.04        73.38908
889.44        73.49324
889.84        73.38763
890.24        73.12458
890.64        72.78098
891.04          72.485
891.44        72.29146
891.84        72.17928
892.24         72.1543
892.64        72.21622
893.04        72.35458
893.44        72.57374
893.83         72.8558
894.23        73.09752
894.63        73.29282
895.03        73.43863
895.43        73.54966
895.83        73.66084
896.23        73.77834
896.63        73.88847
897.02        73.95764
897.42        73.98112
897.82        73.94465
898.22        73.86223
898.62        73.76945
899.01         73.7327
899.41        73.74787
899.81        73.81321
900.21        73.88361
900.61        73.88334
901.00        73.78769
901.40         73.6385
901.80         73.4865
902.20        73.42203
902.59        73.47591
902.99        73.60632
903.39        73.76543
903.79         73.8624
904.18        73.86889
904.58        73.82095
904.98        73.76489
905.38        73.77731
905.77        73.86062
906.17         73.9894
906.57        74.11227
906.96        74.16682
907.36        74.11169
907.76        74.00095
908.15        73.86434
908.55        73.67498
908.95        73.48341
909.34        73.27345
909.74        73.16116
910.14        73.26581
910.53        73.60151
910.93        74.10986
911.33          74.637
911.72        74.91786
912.12          74.869
912.52        74.58673
912.91        74.21198
913.31        73.98263
913.70        73.95224
914.10        74.05091
914.49        74.23401
914.89        74.35198
915.29        74.37804
915.68        74.35488
916.08        74.33468
916.47        74.38812
916.87        74.54203
917.26        74.73611
917.66        74.92629
918.05        75.01676
918.45        74.97651
918.84        74.86315
919.24        74.69212
919.64        74.57246
920.03        74.55559
920.42        74.61359
920.82        74.71649
921.21        74.80614
921.61        74.84602
922.00        74.84763
922.40        74.85834
922.79        75.03953
923.19        75.35808
923.58        75.78824
923.98        76.09206
924.37         75.9706
924.77        75.37207
925.16        74.39039
925.55         73.3252
925.95        72.69617
926.34         72.6584
926.74        73.05756
927.13        73.66391
927.52        73.99516
927.92        73.94434
928.31        73.64573
928.70        73.28719
929.10         73.1432
929.49        73.28571
929.89        73.57674
930.28        73.95796
930.67        74.22304
931.07        74.28724
931.46        74.24353
931.85        74.11707
932.24        73.97456
932.64        73.84839
933.03        73.72087
933.42        73.61196
933.82        73.55464
934.21        73.56145
934.60        73.63868
934.99        73.76938
935.39        73.89375
935.78        74.02174
936.17        74.14186
936.56        74.26389
936.96        74.39547
937.35        74.57944
937.74        74.77757
938.13         74.9405
938.53        75.00698
938.92        74.97268
939.31        74.83698
939.70        74.68523
940.09        74.66368
940.49        74.77428
940.88         75.0085
941.27        75.21017
941.66         75.1457
942.05         74.7812
942.44        74.20511
942.84        73.61116
943.23        73.25565
943.62        73.24462
944.01        73.50729
944.40        73.90977
944.79        74.20608
945.18        74.30158
945.57        74.24812
945.97        74.11098
946.36         74.0693
946.75        74.12483
947.14        74.21539
947.53        74.25068
947.92        74.09116
948.31         73.7219
948.70        73.23281
949.09        72.73588
949.48        72.38342
949.87        72.23151
950.26        72.24675
950.65        72.40945
951.04         72.6866
951.43        73.04021
951.82        73.44883
952.21         73.8588
952.60        74.17854
952.99        74.35976
953.38        74.40669
953.77        74.29726
954.16        74.01542
954.55        73.58382
954.94        73.02174
955.33        72.44292
955.72         72.0331
956.11        71.84483
956.50        71.85358
956.89        71.95647
957.28        71.94267
957.66        71.79014
958.05        71.56671
958.44        71.37032
958.83        71.35361
959.22        71.53938
959.61         71.8032
960.00        72.14715
960.39        72.59766
960.78        73.10069
961.16         73.6719
961.55        73.98355
961.94        73.59501
962.33        72.47552
962.72        70.85842
963.11        69.21729
963.49        68.22308
963.88        68.04189
964.27        68.50931
964.66        69.39835
965.04        70.28295
965.43        70.87677
965.82        71.29726
966.21        71.59035
966.60        71.86442
966.98        72.15401
967.37        72.33356
967.76        72.34841
968.15        72.12312
968.53        71.68758
968.92        71.14979
969.31        70.61217
969.69         70.1706
970.08        69.86993
970.47        69.70802
970.86        69.83219
971.24        70.48106
971.63        71.55168
972.02        72.89723
972.40        74.20483
972.79        74.93562
973.17        75.08033
973.56        74.68713
973.95        74.01412
974.33        73.49835
974.72        73.29427
975.11        73.31163
975.49        73.35353
975.88        73.11206
976.26        72.52901
976.65         71.7099
977.04        70.91494
977.42        70.53886
977.81          70.644
978.19        71.10011
978.58         71.7551
978.96        72.26907
979.35        72.47346
979.74        72.47736
980.12        72.38876
980.51        72.15515
980.89        71.92786
981.28        71.64484
981.66        71.41873
982.05        71.49354
982.43        71.89393
982.82        72.48755
983.20        73.20915
983.59         73.7747
983.97        74.18534
984.35        74.45779
984.74        74.48771
985.12        74.11107
985.51        73.36186
985.89        72.37564
986.28        71.47916
986.66        71.21382
987.04        71.61359
987.43        72.46294
987.81        73.50275
988.20        74.15965
988.58         74.2883
988.96        74.07817
989.35        73.49144
989.73        72.56551
990.12        71.30892
990.50        69.57403
990.88        67.88791
991.27        67.46394
991.65         68.6105
992.03        70.96713
992.42        73.21677
992.80        73.99156
993.18        72.95413
993.56        70.29037
993.95           66.95
994.33        65.33315
994.71        66.51085
995.10        69.39471
995.48        72.39892
995.86        73.81751
996.24        73.50694
996.63        71.85783
997.01        69.76051
997.39        69.06962
997.77        70.45171
998.15         73.2081
998.54        75.91026
998.92        76.64346
999.30        75.08618
999.68        71.90498
1000.06        68.26083
1000.45         66.3022
1000.83        66.80106
1001.21        68.88531
1001.59        71.69831
1001.97        74.04283
1002.35          75.536
1002.73        76.68307
1003.12        77.09276
1003.50        75.90356
1003.88        73.28065
1004.26        69.59106
1004.64        66.36633
1005.02        65.53574
1005.40        67.24372
1005.78        71.01962
1006.16        75.40269
1006.54        77.62529
1006.92        76.83517
1007.30        73.78994
1007.69        70.01158
1008.07        68.04052
1008.45        68.66183
1008.83        70.95935
1009.21         73.7336
1009.59        75.30659
1009.97        75.18295
1010.35        73.82966
1010.73        71.67776
1011.11        69.85316
1011.49        69.09201
1011.86        69.16796
1012.24        69.64519
1012.62         70.1788
1013.00        70.62624
1013.38        71.18031
1013.76         71.8443
1014.14        72.55643
1014.52        73.27381
1014.90        73.87901
1015.28        74.35037
1015.66        74.70301
1016.04        74.91756
1016.41        75.13477
1016.79        75.02522
1017.17        74.46017
1017.55        73.50418
1017.93        72.29727
1018.31        71.32888
1018.69        71.34352
1019.06        72.54919
1019.44        74.78809
1019.82        77.47034
1020.20        79.27195
1020.58        79.55537
1020.95         78.5151
1021.33        76.81972
1021.71        75.29282
1022.09        74.11198
1022.46        73.08293
1022.84        71.81828
1023.22        69.48011
1023.60        65.84389
1023.97        60.85439
1024.35        55.82785
1024.73        53.28566
