SpectraSmart Spectrum 2.9.0.0
--------- Device Information -----------
Spectrum Name :  反射率_0
Saving Time :  2024/04/27 22:16:20
Spectro-Module Model Name : SE2030-DUVN
Spectro-Module Serial Number : OS361AC55029948
Wavelength Start : 200
Wavelength End : 1025
Wavelength Unit : Wavelength(nm)
Spectrum Unit : Reflectance(%)
-----------Spectrum Setting ------------
Integration Time : 20ms
Average : 10
Boxcar : 0
Background removal :  enabled
linearity correction :  enabled
SC :  disabled
Intensity correction :  disabled
DWT denoise :  enabled
savitzky-golay :  disabled
FFT :  disabled
Running average :  disabled
Kalman :  disabled
High pass :  disabled
---------------BEGIN--------------------
Wavelength(nm)             Reflectance(%)
200.29               0
200.75        30.11032
201.21        15.55296
201.67        9.484601
202.13        11.94886
202.58        19.69265
203.04        30.98746
203.50        44.41787
203.96        56.21331
204.42        64.27851
204.88        69.52152
205.34        72.26837
205.80        73.00056
206.26        71.79076
206.72        67.24455
207.18        57.63451
207.64        46.00806
208.10        39.82365
208.55        40.61503
209.01        40.95708
209.47        35.78221
209.93        21.52398
210.39       -15.69248
210.85       -127.0948
211.31       -257.1211
211.77       -91.66647
212.23         14.3822
212.69        51.16994
213.14          61.916
213.60        60.75202
214.06        50.84567
214.52        31.77058
214.98        20.78485
215.44         32.4076
215.90        49.73969
216.36          62.782
216.81        69.54827
217.27        72.01425
217.73        72.63124
218.19         71.1862
218.65        66.59167
219.11        58.93117
219.57        48.18103
220.02        36.67878
220.48        32.13432
220.94        36.57982
221.40        46.42088
221.86        57.72124
222.32        66.68768
222.77        72.58549
223.23         76.4933
223.69        78.09982
224.15        76.84711
224.61         73.1852
225.06        67.35128
225.52        61.48293
225.98        59.56097
226.44        61.97073
226.90         66.2835
227.36        70.54966
227.81        73.43199
228.27        75.18561
228.73        76.40377
229.19         77.0372
229.65        76.82433
230.10        75.72437
230.56        74.04481
231.02        72.33437
231.48        71.53583
231.93        71.64249
232.39        72.42603
232.85         73.3812
233.31        73.87915
233.77        73.76494
234.22        73.33276
234.68        72.52039
235.14        71.18998
235.60        69.34605
236.05        66.87833
236.51        64.24924
236.97        62.76278
237.43         62.9791
237.88        64.78553
238.34        66.88816
238.80        68.00536
239.26        67.71407
239.71        65.90839
240.17        62.28283
240.63        59.23461
241.08        59.71138
241.54         62.1748
242.00        64.43851
242.46        65.25654
242.91        64.62322
243.37         62.0725
243.83        56.20459
244.28        48.04866
244.74        46.01257
245.20        51.23197
245.66        55.57307
246.11        54.31757
246.57        47.12976
247.03        33.24419
247.48        11.84821
247.94       -4.036911
248.40       0.3537425
248.85        17.22853
249.31        36.48072
249.77        50.23845
250.22        57.90013
250.68        62.26595
251.14        64.21429
251.59        64.33044
252.05         63.0378
252.51        59.16171
252.96        53.21736
253.42        50.70425
253.88        53.60397
254.33        59.30331
254.79        62.98667
255.25         61.0867
255.70        55.22474
256.16        48.42655
256.62        43.60596
257.07        43.80055
257.53        47.95908
257.99        53.17772
258.44        57.35249
258.90        59.15921
259.35         58.6288
259.81        57.10527
260.27        55.11993
260.72        53.26486
261.18        52.02885
261.63        50.98611
262.09        50.20009
262.55         49.4029
263.00        48.51788
263.46        47.76878
263.91        47.21207
264.37        47.21638
264.83        47.65918
265.28        48.30717
265.74        48.92493
266.19        49.04166
266.65        48.68218
267.11        47.95185
267.56        47.03851
268.02        46.33669
268.47        45.90339
268.93        45.65369
269.38        45.45429
269.84        45.12834
270.30        44.62107
270.75        43.99866
271.21        43.34277
271.66        42.71659
272.12        42.16732
272.57        41.63177
273.03        41.10567
273.48        40.49969
273.94        39.86404
274.39        39.19788
274.85         38.5967
275.31        38.09985
275.76        37.68394
276.22        37.34655
276.67        37.01212
277.13        36.68829
277.58        36.30667
278.04        35.93052
278.49        35.46909
278.95        34.91824
279.40         34.2357
279.86        33.50507
280.31        32.78169
280.77        32.27724
281.22         31.9698
281.68        31.84791
282.13        31.75216
282.59        31.52009
283.04        31.09769
283.50        30.55533
283.95        29.99532
284.41        29.62701
284.86         29.4591
285.32        29.43121
285.77        29.38786
286.22        29.14883
286.68        28.70201
287.13        28.09539
287.59        27.46671
288.04        26.94051
288.50        26.59146
288.95         26.3485
289.41        26.19112
289.86        26.04132
290.32        25.89198
290.77        25.75266
291.22        25.63388
291.68        25.54071
292.13        25.46282
292.59        25.40297
293.04        25.35075
293.50         25.3236
293.95        25.31668
294.40        25.34142
294.86        25.40364
295.31        25.49999
295.77        25.64219
296.22         25.8251
296.68        26.06494
297.13        26.36136
297.58         26.7151
298.04        27.11379
298.49         27.5392
298.95        27.97658
299.40        28.41635
299.85        28.86108
300.31        29.32441
300.76        29.78955
301.21        30.26282
301.67        30.74862
302.12        31.22355
302.58        31.69297
303.03        32.13932
303.48        32.56324
303.94        33.00375
304.39        33.47452
304.84        33.98717
305.30        34.53733
305.75         35.0435
306.20        35.42208
306.66        35.67342
307.11        35.79657
307.57        35.89874
308.02        36.08126
308.47        36.37661
308.93        36.74357
309.38         37.0717
309.83        37.22256
310.29        37.18176
310.74        36.98833
311.19        36.73876
311.65        36.58132
312.10        36.53703
312.55        36.56407
313.00        36.61164
313.46        36.60151
313.91        36.50613
314.36        36.36455
314.82        36.17828
315.27        35.94198
315.72        35.67141
316.18        35.37478
316.63        35.09689
317.08        34.93412
317.53        34.89741
317.99        34.95001
318.44        35.02599
318.89        34.99854
319.35        34.83582
319.80        34.58168
320.25        34.27864
320.70        34.00373
321.16        33.77951
321.61        33.58649
322.06        33.43097
322.51        33.32757
322.97        33.26539
323.42        33.25754
323.87        33.24199
324.32        33.12106
324.78        32.87034
325.23        32.51624
325.68         32.1376
326.13        31.87784
326.59         31.7612
327.04        31.77325
327.49         31.8099
327.94        31.70662
328.39        31.42165
328.85        30.99674
329.30        30.54854
329.75        30.26081
330.20        30.19172
330.66        30.27748
331.11        30.42664
331.56        30.44069
332.01        30.26313
332.46        29.94171
332.92        29.57256
333.37        29.35484
333.82        29.33309
334.27        29.44964
334.72        29.59085
335.17        29.57349
335.63        29.34382
336.08        28.98048
336.53        28.58246
336.98        28.32327
337.43        28.25823
337.88        28.33858
338.34        28.48482
338.79        28.57269
339.24        28.55842
339.69        28.47301
340.14        28.36827
340.59        28.32759
341.05        28.36979
341.50        28.46967
341.95        28.55314
342.40        28.51809
342.85        28.34794
343.30        28.07782
343.75        27.80372
344.20        27.67628
344.66        27.73121
345.11        27.91799
345.56        28.12992
346.01         28.1944
346.46        28.07059
346.91        27.81176
347.36        27.52215
347.81        27.35944
348.26        27.36181
348.72        27.48249
349.17        27.62832
349.62        27.65347
350.07        27.52224
350.52        27.27624
350.97        27.02019
351.42          26.918
351.87        26.99921
352.32        27.20594
352.77        27.40634
353.22        27.40272
353.67        27.15876
354.13        26.75674
354.58        26.30791
355.03           26.04
355.48        26.01069
355.93        26.15192
356.38        26.34636
356.83         26.4121
357.28        26.29983
357.73        26.06449
358.18        25.78866
358.63        25.59975
359.08        25.52345
359.53         25.5074
359.98        25.48134
360.43        25.34008
360.88        25.06645
361.33         24.7119
361.78        24.32501
362.23        24.01457
362.68        23.81857
363.13        23.63538
363.58        23.45296
364.03        23.60447
364.48        23.50158
364.93        23.59114
365.38        23.63623
365.83        23.54543
366.28        23.29551
366.73        22.91991
367.18        22.49709
367.63        22.14435
368.08        21.90029
368.53        21.73819
368.98        21.61447
369.43        21.45232
369.88        21.23302
370.33         20.9882
370.78        20.74934
371.23        20.56458
371.68        20.44219
372.13        20.35159
372.58        20.27582
373.03        20.19062
373.48        20.08739
373.93        19.98742
374.38        19.86563
374.83        19.68042
375.28        19.43581
375.72        19.13119
376.17        18.87442
376.62        18.79684
377.07        18.90677
377.52        19.14328
377.97        19.37623
378.42        19.40078
378.87        19.17909
379.32        18.79621
379.77        18.34716
380.22        17.97501
380.67        17.72752
381.11        17.55726
381.56        17.47625
382.01        17.50143
382.46        17.61661
382.91        17.82112
383.36        18.01703
383.81        18.04728
384.26         17.8863
384.71        17.57296
385.15        17.22346
385.60        17.06073
386.05        17.11899
386.50        17.33214
386.95        17.58294
387.40        17.68538
387.85        17.60189
388.29        17.39601
388.74        17.17505
389.19         17.0465
389.64        17.03246
390.09         17.0774
390.54        17.14867
390.98        17.19668
391.43        17.20646
391.88        17.19984
392.33        17.14884
392.78        17.03705
393.23        16.88238
393.67        16.62392
394.12        16.34725
394.57         16.3649
395.02        16.39766
395.47        16.38599
395.91        16.26793
396.36        16.26288
396.81        16.37403
397.26        16.48038
397.71        16.53216
398.15        16.52054
398.60        16.46034
399.05        16.29055
399.50        16.10722
399.95        16.15322
400.39        16.39621
400.84        16.56477
401.29        16.59126
401.74         16.5253
402.18        16.39156
402.63        16.25728
403.08        16.17145
403.53        16.12436
403.97        16.13792
404.42        16.26622
404.87        16.45551
405.32        16.58966
405.76        16.63934
406.21        16.59954
406.66        16.51009
407.11        16.51075
407.55        16.57337
408.00        16.50797
408.45        16.32592
408.90        16.10776
409.34        15.94223
409.79        16.03274
410.24         16.3127
410.68        16.45916
411.13        16.43785
411.58        16.43243
412.03        16.47681
412.47        16.54175
412.92         16.6225
413.37        16.72513
413.81        16.80912
414.26        16.83005
414.71        16.77874
415.15        16.67485
415.60        16.55466
416.05        16.48902
416.49        16.50128
416.94        16.56735
417.39        16.65919
417.83         16.7334
418.28        16.76984
418.73        16.77573
419.17        16.76344
419.62         16.7551
420.07        16.76535
420.51        16.79605
420.96        16.82667
421.41        16.84697
421.85        16.85081
422.30        16.76413
422.74        16.66118
423.19        16.86549
423.64        17.30539
424.08        17.51608
424.53        17.41183
424.98        17.35649
425.42        17.36606
425.87        17.11608
426.31        16.72333
426.76        16.72867
427.21        17.05611
427.65        17.08238
428.10        16.84317
428.54        16.82106
428.99        17.01819
429.44        17.33157
429.88        17.60306
430.33        17.37224
430.77         16.8222
431.22        16.71574
431.66        17.06243
432.11        17.35013
432.56        17.49701
433.00        17.64775
433.45        17.62588
433.89         17.2947
434.34        16.98421
434.78        16.13999
435.23        16.82536
435.67        17.41735
436.12        17.68845
436.57        17.82308
437.01        17.68347
437.46        17.60473
437.90        17.68252
438.35        17.81688
438.79        17.46184
439.24        17.35404
439.68        17.35722
440.13        17.41096
440.57        17.46885
441.02        17.61479
441.46        17.78517
441.91        17.59226
442.35        17.20008
442.80        17.39171
443.24        18.01677
443.69        18.04986
444.13        17.51967
444.58         17.3062
445.02        17.41835
445.47        17.39862
445.91        17.24487
446.36        17.19404
446.80        17.24754
447.24        17.32831
447.69        17.42435
448.13        17.56143
448.58        17.70461
449.02        17.76374
449.47        17.74895
449.91        17.75792
450.36        17.80073
450.80        17.81134
451.25        17.80226
451.69        17.82215
452.13        17.86884
452.58        17.91465
453.02        17.93915
453.47        17.91973
453.91        17.85043
454.36        17.76761
454.80        17.67243
455.24        17.54713
455.69        17.44251
456.13        17.38201
456.58        17.37829
457.02        17.51375
457.46         17.6787
457.91        17.56905
458.35        17.31605
458.79         17.2254
459.24        17.33484
459.68         17.4584
460.13        17.55718
460.57        17.54616
461.01        17.49153
461.46        17.43212
461.90        17.31643
462.34        17.25698
462.79        17.53316
463.23          17.649
463.68        17.66556
464.12         17.6425
464.56        17.59461
465.01        17.58718
465.45        17.56412
465.89        17.43215
466.34        17.25898
466.78         17.1269
467.22        17.04209
467.67        17.37484
468.11        17.34601
468.55        17.38945
468.99         17.2976
469.44         17.2831
469.88        17.34687
470.32        17.35436
470.77         17.3217
471.21        17.33249
471.65        17.39622
472.10        17.49402
472.54        17.58467
472.98        17.63081
473.42        17.62984
473.87        17.54546
474.31        17.43567
474.75         17.5518
475.20        17.84199
475.64        17.94732
476.08        17.84561
476.52        17.84985
476.97        17.97573
477.41        17.87675
477.85        17.74444
478.29        17.85102
478.74        17.75614
479.18        17.65633
479.62        17.98896
480.06        18.07727
480.50        18.10359
480.95        18.07401
481.39        17.98533
481.83        18.22191
482.27        18.23725
482.72        18.16259
483.16        18.40511
483.60        18.45713
484.04        18.46608
484.48        18.55429
484.93        18.81952
485.37        18.67855
485.81        18.93385
486.25        19.21119
486.69         18.7823
487.14        18.52908
487.58        19.47769
488.02        19.77128
488.46        19.39248
488.90         19.5811
489.34         19.1219
489.79        18.96108
490.23        19.50794
490.67        19.83806
491.11        20.07282
491.55        20.05626
491.99        19.88886
492.43        19.93232
492.88        20.20581
493.32        20.44687
493.76        20.60312
494.20        20.77508
494.64        20.96788
495.08        21.08968
495.52        21.15037
495.96        21.35867
496.41        21.68887
496.85        21.57425
497.29        21.18483
497.73        21.35657
498.17        22.00058
498.61        22.37524
499.05        22.35908
499.49        22.31963
499.93        22.32134
500.37        22.29845
500.82        22.28807
501.26         22.4057
501.70        22.67665
502.14        22.60591
502.58        22.96206
503.02        23.08666
503.46        23.10833
503.90        23.07674
504.34        23.02128
504.78        23.06002
505.22        23.19547
505.66        23.36905
506.10        23.55285
506.54        23.70514
506.98        23.80175
507.42        23.98079
507.86        23.99472
508.30        24.05176
508.74        24.08406
509.18        24.09243
509.62        24.09383
510.06        24.12324
510.50        24.18901
510.94        24.28115
511.38        24.37665
511.82         24.4355
512.26        24.44799
512.70        24.42768
513.14        24.39627
513.58        24.37957
514.02        24.38657
514.46         24.4265
514.90        24.49195
515.34        24.48406
515.78        24.53831
516.22        24.54658
516.66        24.56063
517.10        24.59098
517.54        24.63969
517.98        24.69776
518.42         24.7479
518.86        24.76813
519.30          24.753
519.74        24.70997
520.18        24.65595
520.62         24.6163
521.06        24.59971
521.50        24.60288
521.93        24.61535
522.37        24.61026
522.81        24.58541
523.25        24.54511
523.69        24.50821
524.13        24.50414
524.57        24.53459
525.01        24.58652
525.45        24.62771
525.89        24.60782
526.32        24.51587
526.76        24.38026
527.20        24.23227
527.64        24.12595
528.08        24.07532
528.52        24.05806
528.96        24.06375
529.40        24.07549
529.83        24.08059
530.27        24.08872
530.71         24.0722
531.15        23.98734
531.59        23.83449
532.03        23.63049
532.46        23.42807
532.90         23.3269
533.34        23.34229
533.78        23.44186
534.22        23.57374
534.66        23.65653
535.09        23.66586
535.53        23.63365
535.97        23.57507
536.41        23.51871
536.85        23.47852
537.28        23.44402
537.72        23.42924
538.16        23.45553
538.60        23.52406
539.04        23.63465
539.47        23.75199
539.91        23.83387
540.35        23.86563
540.79        23.86507
541.22          23.856
541.66        23.87992
542.10        23.94778
542.54        24.04751
542.97        24.16165
543.41        24.27752
543.85        24.38505
544.29        24.49105
544.72         24.5958
545.16        24.71616
545.60        24.84694
546.04        24.98151
546.47        25.11534
546.91        25.23862
547.35        25.34695
547.79        25.45593
548.22        25.56116
548.66        25.64812
549.10        25.73521
549.53        25.91646
549.97        26.17342
550.41        26.38494
550.84        26.53711
551.28        26.69788
551.72        26.86924
552.15        27.01832
552.59        27.14622
553.03         27.2717
553.46        27.40894
553.90        27.53599
554.34        27.63679
554.77        27.98113
555.21        28.07377
555.65        28.23138
556.08         28.2743
556.52        28.32713
556.96        28.39923
557.39        28.40517
557.83        28.57712
558.27         28.5878
558.70        28.53726
559.14        28.57023
559.57        28.69032
560.01        28.85381
560.45        29.01131
560.88        29.07792
561.32        29.10059
561.75        29.16549
562.19        29.28979
562.63         29.4833
563.06        29.67573
563.50        29.64304
563.93        29.43486
564.37        29.39136
564.80        29.52511
565.24        29.66793
565.68        29.79975
566.11        29.95296
566.55        30.12328
566.98        30.31831
567.42        30.51455
567.85        30.59174
568.29        30.59678
568.72        30.63281
569.16        30.73045
569.60        30.87817
570.03        31.09311
570.47        31.17676
570.90        31.32723
571.34        31.73941
571.77        31.87312
572.21        31.81322
572.64        32.03806
573.08        32.11815
573.51        32.21508
573.95        32.42099
574.38        32.43719
574.82        32.68583
575.25         32.4809
575.69         32.6129
576.12        32.58203
576.56        33.09408
576.99        32.95493
577.42        32.80406
577.86        33.04758
578.29        33.11518
578.73        32.64519
579.16        32.61324
579.60        32.75967
580.03        32.74186
580.47        32.48935
580.90        32.43383
581.33        32.35894
581.77        32.48597
582.20         31.9352
582.64        31.99859
583.07        31.80596
583.51        31.80983
583.94        31.88562
584.37        31.86894
584.81        31.75473
585.24         31.5693
585.68        31.41273
586.11        31.42256
586.54        31.07963
586.98         31.2269
587.41        31.58127
587.85        30.94949
588.28        30.86094
588.71        31.04026
589.15        30.98541
589.58        30.86762
590.01        31.07081
590.45        31.20554
590.88         30.6591
591.31        30.65821
591.75        30.97491
592.18        30.99407
592.61        30.71676
593.05        31.19083
593.48        31.36198
593.91        30.95777
594.35        31.10034
594.78        31.28347
595.21        31.36482
595.65        31.53888
596.08        31.59389
596.51         31.9501
596.94        31.92551
597.38        32.17292
597.81        32.50752
598.24        32.70839
598.68        33.09702
599.11        33.33857
599.54         33.6193
599.97        33.72715
600.41        34.27153
600.84        34.58039
601.27        34.81648
601.70        35.11754
602.14        35.29273
602.57         35.9083
603.00         36.4505
603.43        36.84708
603.87        37.19964
604.30        37.33009
604.73        37.85186
605.16        38.27634
605.60        38.94683
606.03        39.31458
606.46         39.5115
606.89        39.60628
607.32        40.21679
607.76        40.96359
608.19        40.85029
608.62        41.09038
609.05        41.42136
609.48        41.80197
609.92           42.14
610.35        42.63486
610.78        42.93689
611.21         42.8673
611.64        43.57967
612.07        43.76419
612.50        43.80624
612.94         44.0001
613.37        44.42014
613.80        44.48298
614.23        44.90302
614.66        45.17312
615.09        45.45234
615.52        45.71552
615.96        46.01374
616.39        45.90134
616.82        46.17853
617.25        46.61535
617.68        46.64825
618.11        46.82557
618.54        46.97443
618.97        47.29633
619.40        47.68299
619.84        48.12679
620.27        48.07607
620.70        48.02246
621.13        47.85998
621.56        48.12634
621.99         48.2394
622.42        48.25505
622.85        48.41375
623.28        48.51585
623.71        48.73867
624.14        48.14223
624.57         48.3959
625.00          48.654
625.43        48.28197
625.86        48.18867
626.29        48.35826
626.72        48.18977
627.15        48.07494
627.58        47.90801
628.01        47.82056
628.44        47.49148
628.87        46.79647
629.30        47.01024
629.73        46.80307
630.16        46.20744
630.59        46.07205
631.02        45.72631
631.45        45.52604
631.88        45.24264
632.31         44.8813
632.74        44.60633
633.17        44.23809
633.60        43.91455
634.03        43.58043
634.46        43.24242
634.89        42.88737
635.32        42.49331
635.75        42.06238
636.18        41.62377
636.61        41.19807
637.04        40.76818
637.47         40.3651
637.89         40.0921
638.32        39.89574
638.75        39.62801
639.18        39.27335
639.61        38.90492
640.04        38.55252
640.47        38.24955
640.90        38.01118
641.33         37.8087
641.76        37.62666
642.18        37.53591
642.61        37.38078
643.04        37.28373
643.47        37.20461
643.90        37.14936
644.33        37.11824
644.76        37.11049
645.18        37.12599
645.61        37.15933
646.04        37.21098
646.47         37.2804
646.90        37.38078
647.33        37.52879
647.75         37.7347
648.18         38.0092
648.61        38.32061
649.04        38.63668
649.47        38.95823
649.89        39.21463
650.32        39.46738
650.75        40.01707
651.18         40.7603
651.61         41.1935
652.03        41.30911
652.46         41.4868
652.89        41.89331
653.32        42.37874
653.74        43.08203
654.17        43.97505
654.60        44.09641
655.03        44.22483
655.46        45.53845
655.88        46.16042
656.31         46.9136
656.74        47.41167
657.16        47.09885
657.59        47.29297
658.02        47.65674
658.45        48.07777
658.87        48.65459
659.30         48.8443
659.73        49.38616
660.15        49.20343
660.58        49.77021
661.01        50.13722
661.44         50.6395
661.86         50.9486
662.29         51.0785
662.72        51.22788
663.14         51.4454
663.57         51.7446
664.00        52.08244
664.42        52.29852
664.85        52.39295
665.27        52.48482
665.70        52.60792
666.13         52.7543
666.55        52.93824
666.98         53.1664
667.41        53.41724
667.83        53.64202
668.26        53.81944
668.69        53.97548
669.11        54.12706
669.54        54.28592
669.96         54.4623
670.39        54.67383
670.82        54.84878
671.24        55.07746
671.67        55.32332
672.09         55.5292
672.52        55.68552
672.94        55.79926
673.37         55.8781
673.80        55.88231
674.22        55.85934
674.65        55.92958
675.07        56.03616
675.50        56.21395
675.92        56.40464
676.35        56.54993
676.77        56.63882
677.20        56.69328
677.62         56.7422
678.05        56.81438
678.47        56.91912
678.90        57.04935
679.32        57.19891
679.75        57.36573
680.17        57.54234
680.60         57.7545
681.02        57.95966
681.45        58.04915
681.87        58.04856
682.30        57.99862
682.72        57.97158
683.15        58.15898
683.57        58.50951
684.00        58.62782
684.42        58.54094
684.85        58.63113
685.27        58.91528
685.70        59.13472
686.12        59.21936
686.54         59.3322
686.97        59.53149
687.39        59.10186
687.82        59.57164
688.24        59.49691
688.66        59.61725
689.09        59.72927
689.51        59.92082
689.94        60.06714
690.36        60.13536
690.78         60.2114
691.21        60.31666
691.63         60.3303
692.06        60.23107
692.48        60.62162
692.90        60.45937
693.33        60.57952
693.75        60.67162
694.17        60.79522
694.60        60.92025
695.02        60.97574
695.44        60.99483
695.87         61.1095
696.29         61.2994
696.71        61.45484
697.14        61.51826
697.56        61.44458
697.98        61.29607
698.41        61.30416
698.83         61.4734
699.25        61.70466
699.68        61.93252
700.10        62.14628
700.52        62.31004
700.94         62.4277
701.37        62.49393
701.79         62.5383
702.21        62.55518
702.64        62.55019
703.06         62.5372
703.48        62.56084
703.90        62.63483
704.33        62.74434
704.75        62.87777
705.17        62.98463
705.59        63.05138
706.01        63.08114
706.44        63.09442
706.86         63.1778
707.28        63.27582
707.70        63.39595
708.12        63.50381
708.55        63.61072
708.97        63.68048
709.39        63.62519
709.81         63.4878
710.23        63.44543
710.66         63.5237
711.08        63.65598
711.50        63.78385
711.92        63.86743
712.34        63.89242
712.76        63.86845
713.19        63.83452
713.61        63.89892
714.03        64.05876
714.45        64.27988
714.87        64.49927
715.29        64.62077
715.71        64.62271
716.13        64.54443
716.56        64.43313
716.98        64.37539
717.40        64.37122
717.82         64.5156
718.24        64.81669
718.66        64.66204
719.08        65.02298
719.50        65.10758
719.92         65.2038
720.34        65.27357
720.76        65.32054
721.19        65.32964
721.61        65.30231
722.03        65.24362
722.45        65.16121
722.87         65.0621
723.29        64.98421
723.71        64.98369
724.13        65.07219
724.55        65.23565
724.97        65.42798
725.39        65.56996
725.81        65.63787
726.23        65.64877
726.65        65.63628
727.07        65.65855
727.49        65.72778
727.91        65.82085
728.33        65.91027
728.75        65.94466
729.17        65.91721
729.59        65.86787
730.01        65.80617
730.43        65.72589
730.85        65.68555
731.27        65.61857
731.69        65.88602
732.10        66.01337
732.52        66.08374
732.94        66.21778
733.36        66.39858
733.78        66.46099
734.20        66.38306
734.62        66.54945
735.04        66.19346
735.46        66.34407
735.88         66.7158
736.30        66.45181
736.72        66.27133
737.13        66.18624
737.55        66.37872
737.97        66.43279
738.39        66.35542
738.81        66.34364
739.23        66.42539
739.65        66.64823
740.06        66.89061
740.48        66.98087
740.90        66.86717
741.32        66.70515
741.74         66.4982
742.16        66.47035
742.57         66.6395
742.99        66.98767
743.41         67.3736
743.83         67.4958
744.25        67.34631
744.67          67.117
745.08         66.9466
745.50        66.96972
745.92        67.19444
746.34        67.42357
746.75        67.56108
747.17        67.62286
747.59         67.5866
748.01        67.34404
748.42        67.01148
748.84        66.96339
749.26        67.19018
749.68        67.30467
750.09        67.29559
750.51        67.41643
750.93        67.59269
751.35        67.66869
751.76        67.71426
752.18        67.30066
752.60        67.56676
753.01        67.58607
753.43         67.6402
753.85        67.63154
754.27        67.52438
754.68        68.12339
755.10        67.93598
755.52          68.111
755.93         68.2049
756.35        68.26067
756.77        68.26541
757.18        68.30947
757.60        68.44846
758.02        68.45351
758.43        68.30915
758.85        68.73366
759.26        68.85796
759.68        68.59422
760.10        68.58121
760.51        67.94172
760.93        68.65119
761.34        68.75726
761.76        68.83156
762.18         68.7434
762.59        68.63072
763.01        68.77058
763.42        69.14797
763.84        69.25963
764.26        69.11407
764.67        69.02591
765.09        69.05264
765.50        69.05772
765.92        69.04259
766.33        68.93244
766.75        68.71691
767.16        68.62713
767.58         68.6586
768.00        68.80048
768.41        69.03918
768.83        69.21002
769.24        69.27274
769.66        69.43312
770.07        69.65202
770.49        69.60002
770.90        69.27289
771.32        69.65372
771.73        69.44628
772.15        69.48622
772.56        69.39445
772.97         69.3962
773.39        69.45039
773.80        69.35915
774.22        69.18283
774.63         69.3308
775.05        69.72729
775.46        69.96628
775.88        69.97897
776.29        70.03663
776.70        70.13983
777.12         70.1951
777.53        70.21469
777.95        70.18491
778.36        70.16592
778.77        70.18624
779.19        70.24736
779.60        70.50948
780.02        70.82055
780.43        70.62574
780.84        70.08839
781.26        69.94821
781.67         70.2551
782.09        70.63679
782.50        70.94281
782.91        70.71542
783.33        70.55412
783.74        70.43094
784.15         70.5322
784.57         70.5396
784.98        70.48387
785.39        70.56484
785.81        70.77318
786.22        71.03673
786.63        71.28322
787.04        71.45106
787.46        71.52784
787.87        71.51424
788.28        71.44689
788.70        71.38169
789.11        71.32319
789.52        71.26642
789.93        71.22852
790.35        71.23827
790.76        71.30695
791.17        71.36875
791.58         71.4172
792.00        71.46083
792.41         71.5162
792.82        71.58488
793.23        71.60567
793.65         71.5946
794.06        71.67651
794.47        71.71209
794.88        71.51997
795.29         72.7326
795.71        71.86141
796.12        71.87946
796.53        71.82255
796.94        71.89599
797.35        72.06481
797.76        72.16454
798.18        72.22269
798.59        72.31975
799.00        72.45949
799.41        72.54974
799.82        72.56857
800.23        72.54716
800.64        72.48911
801.06        72.36709
801.47        72.25636
801.88        72.20262
802.29        72.22606
802.70        72.32202
803.11        72.45604
803.52        72.56289
803.93        72.61845
804.34        72.62762
804.75        72.62888
805.17        72.66749
805.58        72.77871
805.99        72.95208
806.40        73.10992
806.81        73.05655
807.22         72.8017
807.63        72.53627
808.04        72.34489
808.45        72.24618
808.86        72.27549
809.27        72.47278
809.68        72.75548
810.09        72.93423
810.50        72.96198
810.91        72.88684
811.32        72.76675
811.73        72.75895
812.14        72.90553
812.55        73.03439
812.96        73.06691
813.37        73.44879
813.78        73.32076
814.19        73.23833
814.60        73.01182
815.01        72.84669
815.42        72.76997
815.83        72.69721
816.24        72.66624
816.65         72.7625
817.05         72.9896
817.46        73.27251
817.87         73.5567
818.28        73.71058
818.69        73.70422
819.10         73.5755
819.51        73.36967
819.92        73.17697
820.33        73.04773
820.74          72.966
821.14         72.9436
821.55        73.03158
821.96        73.20647
822.37        73.45541
822.78         73.7294
823.19        73.92798
823.60        74.01473
824.00        74.03694
824.41         73.9523
824.82        73.79501
825.23        73.59006
825.64        73.33366
826.04        73.14204
826.45        73.16767
826.86        73.44079
827.27         73.9142
827.68        74.41734
828.08        74.68764
828.49        74.58755
828.90        74.23659
829.31        73.78661
829.72        73.50456
830.12        73.49689
830.53        73.63301
830.94        73.85907
831.35        74.04901
831.75        74.16871
832.16        74.21781
832.57        74.19778
832.97        74.06713
833.38        73.83639
833.79        73.53844
834.20        73.25352
834.60        73.10072
835.01        73.11892
835.42        73.26453
835.82        73.53094
836.23        73.81686
836.64        74.09805
837.04        74.40223
837.45        74.62508
837.86         74.7011
838.26        74.63631
838.67        74.44144
839.08        74.20952
839.48         74.0873
839.89         74.1153
840.29        74.24275
840.70        74.44914
841.11        74.69609
841.51        74.97108
841.92        75.25631
842.33         75.4687
842.73        75.46568
843.14        75.18094
843.54        74.67844
843.95        74.14352
844.35        73.90191
844.76        74.01971
845.17        74.42439
845.57        74.90907
845.98        75.08026
846.38         74.8662
846.79        74.35457
847.19        73.78703
847.60        73.51274
848.00        73.64587
848.41        74.03244
848.81        74.50547
849.22        74.71963
849.62        74.61966
850.03        74.29997
850.43        73.91298
850.84        73.60751
851.24         73.4974
851.65        73.47283
852.05        73.59284
852.46        73.84533
852.86        74.17657
853.27        74.57607
853.67        74.87611
854.07        75.02618
854.48        74.97399
854.88        74.78326
855.29        74.39643
855.69        73.94263
856.10        73.40511
856.50        72.86983
856.90        72.41141
857.31        72.16443
857.71        72.19697
858.12        72.42033
858.52        72.76711
858.92        72.98756
859.33        72.98827
859.73        72.85252
860.13        72.60117
860.54        72.31721
860.94        72.08356
861.34         71.8472
861.75        71.60873
862.15        71.43283
862.55        71.30407
862.96          71.247
863.36        71.22643
863.76        71.15726
864.17        71.01828
864.57        70.83952
864.97        70.70286
865.38        70.72513
865.78        70.96844
866.18        71.36843
866.58        71.78128
866.99        71.96478
867.39         71.8849
867.79        71.59009
868.19        71.23264
868.60        71.00829
869.00        70.95576
869.40        71.03687
869.80        71.19115
870.21        71.30845
870.61        71.41438
871.01        71.49632
871.41        71.53686
871.81        71.50343
872.22        71.37328
872.62        71.16486
873.02        70.97107
873.42        70.96246
873.82        71.17643
874.22        71.57043
874.63        71.99923
875.03        72.22212
875.43        72.20681
875.83        72.00799
876.23        71.78266
876.63        71.80051
877.03        72.10918
877.44        72.59341
877.84        73.06322
878.24        73.17686
878.64        72.86127
879.04        72.26558
879.44        71.56716
879.84        70.99588
880.24        70.62415
880.64        70.39493
881.04        70.29588
881.44         70.3088
881.84        70.40593
882.24        70.57888
882.65        70.77215
883.05        70.98318
883.45        71.14575
883.85        71.26561
884.25        71.29063
884.65        71.15426
885.05        70.87544
885.45        70.49081
885.85         70.1572
886.25        70.14314
886.65        70.50362
887.05        71.14173
887.45        71.87285
887.85        72.41642
888.25        72.68166
888.65        72.72512
889.04        72.60653
889.44        72.47935
889.84        72.37869
890.24        72.26736
890.64        72.11623
891.04        71.88763
891.44        71.59258
891.84        71.28212
892.24        71.02254
892.64        70.89742
893.04        70.92353
893.44        71.06754
893.83        71.30128
894.23        71.51095
894.63        71.68239
895.03         71.8296
895.43        71.94025
895.83        71.99921
896.23        72.01362
896.63        71.98767
897.02        71.95406
897.42        72.00677
897.82        72.14718
898.22        72.35543
898.62        72.59093
899.01        72.79371
899.41        72.91261
899.81        72.96201
900.21         72.9537
900.61        72.91022
901.00        72.83714
901.40        72.76215
901.80        72.65868
902.20        72.49603
902.59        72.29383
902.99        72.05382
903.39        71.88159
903.79        71.92978
904.18        72.20322
904.58        72.64021
904.98        73.08201
905.38         73.3043
905.77        73.25098
906.17        72.99347
906.57        72.63787
906.96        72.39448
907.36        72.31372
907.76         72.3675
908.15        72.49683
908.55        72.52476
908.95        72.44255
909.34         72.2832
909.74         72.1811
910.14        72.27892
910.53        72.60162
910.93        73.06794
911.33        73.52909
911.72        73.74379
912.12        73.63474
912.52         73.3001
912.91        72.87071
913.31        72.55848
913.70        72.41151
914.10        72.36692
914.49        72.38973
914.89        72.35698
915.29        72.25263
915.68        72.11205
916.08        71.98549
916.47        71.93691
916.87        71.98927
917.26        72.09097
917.66        72.18919
918.05        72.17059
918.45        72.00858
918.84        71.77287
919.24        71.50793
919.64         71.3697
920.03        71.41929
920.42        71.60792
920.82        71.88528
921.21         72.1648
921.61        72.39336
922.00        72.58189
922.40        72.75613
922.79        73.03502
923.19        73.38267
923.58        73.79391
923.98        74.06337
924.37         73.9474
924.77        73.41227
925.16        72.53199
925.55        71.62238
925.95        71.22077
926.34        71.46679
926.74         72.1987
927.13        73.09682
927.52        73.54215
927.92        73.40623
928.31        72.85535
928.70         72.2066
929.10        71.94073
929.49        72.17471
929.89        72.72266
930.28        73.38505
930.67        73.70364
931.07        73.53191
931.46        73.04974
931.85         72.4503
932.24         72.0563
932.64        71.95744
933.03        72.04859
933.42        72.21838
933.82        72.29185
934.21        72.22058
934.60        72.08028
934.99        71.93507
935.39        71.85435
935.78        71.90007
936.17        72.03095
936.56        72.22479
936.96        72.44011
937.35        72.69175
937.74        72.93826
938.13        73.16607
938.53        73.36726
938.92        73.53628
939.31        73.65744
939.70        73.69723
940.09        73.60059
940.49           73.35
940.88         73.0266
941.27        72.68543
941.66        72.40885
942.05        72.22866
942.44        72.13269
942.84        72.14677
943.23        72.24696
943.62        72.43346
944.01        72.69091
944.40        72.94601
944.79        73.06776
945.18        73.02045
945.57        72.84312
945.97        72.56396
946.36        72.30799
946.75        72.08248
947.14         71.8561
947.53        71.68082
947.92        71.64381
948.31        71.75085
948.70        71.98896
949.09        72.22393
949.48        72.23233
949.87        71.98994
950.26        71.58401
950.65         71.1828
951.04        71.06174
951.43        71.28445
951.82        71.73933
952.21        72.32014
952.60        72.84078
952.99        73.18986
953.38        73.39463
953.77         73.3905
954.16        73.08215
954.55        72.48992
954.94        71.66507
955.33        70.75001
955.72        69.99681
956.11        69.49022
956.50        69.17441
956.89        69.04328
957.28        69.04339
957.66        69.16424
958.05        69.44263
958.44        69.72395
958.83        69.74951
959.22        69.48235
959.61        68.93983
960.00        68.45639
960.39        68.58882
960.78        69.41553
961.16         70.7956
961.55          72.152
961.94        72.57697
962.33        71.86063
962.72        70.35495
963.11        68.65864
963.49        67.64814
963.88        67.54568
964.27         68.0836
964.66        68.99234
965.04        69.79768
965.43        70.19717
965.82        70.37412
966.21        70.35837
966.60        70.19109
966.98        69.92163
967.37        69.46868
967.76        68.92017
968.15        68.46877
968.53        68.22608
968.92         68.2101
969.31        68.37833
969.69        68.61409
970.08        68.87082
970.47        69.16659
970.86        69.59606
971.24        70.32475
971.63        71.25301
972.02        72.26978
972.40        73.16837
972.79        73.55235
973.17        73.46102
973.56        72.93987
973.95        72.24084
974.33        71.77412
974.72        71.67869
975.11        71.85403
975.49        72.11404
975.88        72.16778
976.26        71.93414
976.65        71.49368
977.04        70.97763
977.42        70.58278
977.81        70.33525
978.19        70.16064
978.58        70.11494
978.96        70.22628
979.35        70.45383
979.74         70.8346
980.12        71.28217
980.51        71.42126
980.89        71.29279
981.28        70.88123
981.66        70.44513
982.05        70.49784
982.43        71.12303
982.82        72.09988
983.20         73.0948
983.59        73.42757
983.97        73.04073
984.35        72.08184
984.74        70.84748
985.12         69.8682
985.51        69.36366
985.89         69.2533
986.28        69.40646
986.66        69.70299
987.04        70.03006
987.43        70.36251
987.81        70.75043
988.20        71.16622
988.58        71.60971
988.96        72.06226
989.35        72.20037
989.73        71.64391
990.12        70.27077
990.50        68.03814
990.88        65.60719
991.27        64.53566
991.65        65.32903
992.03        67.56474
992.42        69.80899
992.80        70.52402
993.18        69.32855
993.56         66.4909
993.95        63.05177
994.33        61.56651
994.71        63.11405
995.10        66.39249
995.48        69.78553
995.86        71.61146
996.24        71.74969
996.63        70.68524
997.01        69.05465
997.39        68.15295
997.77        68.55405
998.15        69.77402
998.54        71.11821
998.92        71.70898
999.30        71.32995
999.68        70.30334
1000.06        69.04317
1000.45        68.22227
1000.83        68.15879
1001.21        68.56891
1001.59        69.12109
1001.97        69.33064
1002.35        69.07906
1002.73        68.57164
1003.12        67.95698
1003.50          67.394
1003.88        67.07169
1004.26        66.84087
1004.64        66.83256
1005.02        67.24037
1005.40        68.03825
1005.78        69.23978
1006.16        70.33268
1006.54         70.3884
1006.92        69.19664
1007.30        66.96944
1007.69         64.6582
1008.07        63.75977
1008.45        64.68007
1008.83        66.94282
1009.21        69.40507
1009.59         70.3792
1009.97        69.43755
1010.35        66.89288
1010.73        63.59549
1011.11        61.80101
1011.49        62.58554
1011.86        65.29322
1012.24        68.55624
1012.62        70.77657
1013.00        71.59497
1013.38        71.62216
1013.76        71.17342
1014.14        70.72691
1014.52        70.51495
1014.90        70.22449
1015.28        70.18165
1015.66        71.06831
1016.04        72.87112
1016.41        75.43062
1016.79        77.52113
1017.17         77.6885
1017.55         75.7326
1017.93        72.19051
1018.31        68.12448
1018.69        65.16939
1019.06        63.88298
1019.44        63.99086
1019.82        65.03178
1020.20        65.97803
1020.58        66.32655
1020.95        66.21906
1021.33        66.14359
1021.71        66.73834
1022.09        68.01299
1022.46        69.65543
1022.84        70.85252
1023.22        70.02258
1023.60        66.66864
1023.97        60.82003
1024.35        53.95396
1024.73        49.34917
