SpectraSmart Spectrum 2.9.0.0
--------- Device Information -----------
Spectrum Name :  反射率_0
Saving Time :  2024/04/27 22:50:23
Spectro-Module Model Name : SE2030-DUVN
Spectro-Module Serial Number : OS361AC55029948
Wavelength Start : 200
Wavelength End : 1025
Wavelength Unit : Wavelength(nm)
Spectrum Unit : Reflectance(%)
-----------Spectrum Setting ------------
Integration Time : 20ms
Average : 10
Boxcar : 0
Background removal :  enabled
linearity correction :  enabled
SC :  disabled
Intensity correction :  disabled
DWT denoise :  enabled
savitzky-golay :  disabled
FFT :  disabled
Running average :  disabled
Kalman :  disabled
High pass :  disabled
---------------BEGIN--------------------
Wavelength(nm)             Reflectance(%)
200.29               0
200.75       -36.60296
201.21        -15.8978
201.67        5.868864
202.13        18.23154
202.58         24.1632
203.04        27.83289
203.50        32.51484
203.96        40.81137
204.42        51.38327
204.88        62.04617
205.34        70.39347
205.80        75.01486
206.26        76.23433
206.72        73.65351
207.18         67.6491
207.64         64.1797
208.10        67.07134
208.55         73.0041
209.01        75.53199
209.47        71.63617
209.93        58.69976
210.39        23.57346
210.85       -85.97904
211.31       -233.5101
211.77       -86.22489
212.23        19.51415
212.69        57.49117
213.14        67.43041
213.60        63.18711
214.06        47.29143
214.52        17.40577
214.98        -4.71254
215.44        4.849431
215.90        25.66013
216.36        42.48969
216.81         51.0374
217.27         53.4962
217.73        53.25952
218.19        50.96159
218.65        46.76193
219.11         41.0721
219.57        33.56616
220.02        25.05282
220.48        19.98564
220.94        19.97128
221.40        23.63181
221.86        29.81557
222.32          37.238
222.77        44.72633
223.23         51.5232
223.69        56.22017
224.15        57.20901
224.61        54.72355
225.06        49.45235
225.52        42.88856
225.98        38.18851
226.44         36.6184
226.90        36.77048
227.36        37.74083
227.81        38.80316
228.27        39.73119
228.73        40.87315
229.19        41.56767
229.65        40.44724
230.10        37.35839
230.56        33.20314
231.02        29.38106
231.48        27.93491
231.93        28.95179
232.39        31.51867
232.85        34.73235
233.31        37.36521
233.77         39.0503
234.22        40.37136
234.68        40.95449
235.14        40.36455
235.60        38.65164
236.05        35.59093
236.51        32.54204
236.97        32.51597
237.43        36.46207
237.88        43.65256
238.34        51.02457
238.80        55.31815
239.26        55.78414
239.71        52.02487
240.17        44.12095
240.63        39.10612
241.08        43.47486
241.54         52.3923
242.00        59.52211
242.46        61.97396
242.91        60.12344
243.37         53.1083
243.83        37.29193
244.28        16.51972
244.74        14.51841
245.20        31.97231
245.66         47.8336
246.11        53.15096
246.57        49.92117
247.03        39.39836
247.48         21.4277
247.94        8.264665
248.40        13.21163
248.85        28.90221
249.31        45.79148
249.77        56.69279
250.22        61.60312
250.68         63.3575
251.14        63.85549
251.59        64.64619
252.05        66.22276
252.51        68.00269
252.96        68.89713
253.42        67.22493
253.88        62.63886
254.33        57.79452
254.79         54.1504
255.25        51.12108
255.70        48.49704
256.16        46.76764
256.62        46.42294
257.07        48.02954
257.53        51.03657
257.99        54.14384
258.44         56.3855
258.90        57.32728
259.35        56.88004
259.81        55.83895
260.27        54.39236
260.72        52.78598
261.18        51.47781
261.63        50.22185
262.09        49.16787
262.55        48.12781
263.00        47.02368
263.46        46.00674
263.91        45.13664
264.37        44.79224
264.83        44.86496
265.28         45.1622
265.74        45.38831
266.19        44.98814
266.65        43.99359
267.11        42.55525
267.56        41.00489
268.02        39.96177
268.47        39.51493
268.93        39.48026
269.38        39.56877
269.84        39.34911
270.30        38.70549
270.75        37.80104
271.21        36.77756
271.66        35.80153
272.12        34.96296
272.57        34.15281
273.03        33.44035
273.48        32.86486
273.94        32.45743
274.39        32.17737
274.85        31.92279
275.31        31.46036
275.76        30.75513
276.22        29.91521
276.67        29.07326
277.13        28.51418
277.58        28.22447
278.04         28.1374
278.49         28.0555
278.95        27.79654
279.40        27.28046
279.86        26.65543
280.31        25.98216
280.77        25.45786
281.22        25.08963
281.68        24.84705
282.13         24.6802
282.59        24.56472
283.04        24.46202
283.50        24.39402
283.95        24.31654
284.41        24.19087
284.86        24.00282
285.32        23.78698
285.77        23.57049
286.22        23.42716
286.68        23.38433
287.13        23.38715
287.59        23.43879
288.04        23.47347
288.50        23.49726
288.95        23.49373
289.41        23.47851
289.86        23.43123
290.32        23.37383
290.77        23.31259
291.22         23.2599
291.68        23.22872
292.13        23.22598
292.59          23.269
293.04         23.3949
293.50        23.68103
293.95         24.1221
294.40        24.69726
294.86        25.33079
295.31        25.89679
295.77        26.37068
296.22        26.76888
296.68         27.1588
297.13        27.62849
297.58        28.20214
298.04        28.84224
298.49        29.48916
298.95        30.07203
299.40        30.57349
299.85        31.02111
300.31         31.4815
300.76        32.01392
301.21        32.63554
301.67        33.32252
302.12        33.98204
302.58        34.52261
303.03        34.91022
303.48        35.18459
303.94        35.45301
304.39        35.82714
304.84         36.3412
305.30        36.95809
305.75        37.54557
306.20        37.94769
306.66        38.14763
307.11        38.16817
307.57        38.15062
308.02        38.24466
308.47        38.49513
308.93        38.84324
309.38        39.15326
309.83        39.25213
310.29        39.12073
310.74         38.8169
311.19        38.45975
311.65        38.23011
312.10        38.16066
312.55        38.19957
313.00        38.28875
313.46        38.33998
313.91         38.3156
314.36        38.24978
314.82        38.13577
315.27        37.95586
315.72        37.71969
316.18        37.43779
316.63        37.14785
317.08        36.93685
317.53        36.82341
317.99          36.783
318.44        36.77739
318.89        36.72422
319.35        36.59808
319.80        36.41982
320.25        36.21634
320.70        36.03754
321.16         35.8903
321.61        35.76682
322.06        35.63692
322.51        35.45757
322.97        35.21891
323.42        34.95483
323.87        34.69487
324.32        34.49435
324.78        34.36272
325.23        34.28319
325.68        34.23264
326.13        34.18082
326.59        34.09659
327.04        34.00884
327.49        33.87971
327.94        33.65929
328.39        33.34518
328.85        32.94723
329.30        32.54303
329.75        32.24974
330.20        32.10653
330.66        32.07424
331.11        32.11456
331.56        32.10389
332.01        32.00479
332.46        31.84808
332.92        31.65469
333.37        31.50043
333.82        31.39503
334.27        31.30593
334.72         31.2274
335.17        31.15609
335.63        31.07782
336.08        31.02332
336.53        30.94814
336.98        30.78659
337.43         30.5393
337.88        30.23404
338.34         29.9565
338.79        29.85388
339.24        29.95422
339.69        30.20433
340.14        30.51309
340.59        30.73101
341.05        30.80599
341.50        30.78198
341.95        30.67744
342.40        30.53576
342.85        30.38192
343.30        30.20063
343.75        30.02821
344.20        29.92483
344.66        29.90907
345.11        29.97744
345.56        30.07647
346.01        30.11052
346.46        30.05472
346.91        29.92059
347.36        29.78538
347.81        29.77042
348.26        29.89213
348.72        30.11497
349.17        30.31208
349.62        30.28349
350.07        29.99792
350.52        29.52339
350.97        29.04037
351.42        28.83505
351.87         28.9651
352.32        29.33316
352.77        29.75076
353.22        29.92917
353.67        29.79747
354.13        29.45744
354.58        29.02167
355.03        28.72343
355.48        28.62855
355.93        28.66657
356.38        28.73955
356.83         28.6986
357.28        28.50987
357.73        28.23423
358.18        27.95013
358.63        27.77204
359.08         27.7204
359.53        27.73943
359.98        27.76932
360.43        27.72191
360.88        27.57343
361.33        27.36115
361.78        27.08825
362.23         26.7945
362.68        26.50634
363.13        26.14734
363.58         25.7633
364.03        25.76973
364.48        25.62108
364.93        25.73113
365.38        25.82825
365.83        25.75285
366.28        25.46833
366.73         25.0366
367.18        24.56892
367.63         24.2333
368.08        24.07822
368.53        24.04829
368.98        24.07926
369.43        24.06615
369.88        23.97221
370.33        23.83285
370.78        23.65979
371.23        23.47055
371.68        23.27402
372.13        23.05254
372.58        22.82716
373.03        22.63849
373.48        22.49673
373.93        22.40592
374.38        22.32338
374.83        22.17425
375.28        21.94913
375.72        21.66043
376.17        21.40336
376.62        21.28733
377.07        21.32365
377.52        21.45739
377.97        21.59614
378.42        21.59746
378.87        21.43046
379.32        21.15432
379.77        20.82199
380.22        20.51131
380.67        20.25406
381.11        20.02651
381.56        19.85461
382.01        19.78125
382.46        19.80414
382.91         19.9114
383.36        20.02692
383.81        20.02762
384.26        19.88828
384.71        19.64153
385.15        19.35406
385.60        19.16777
386.05        19.10621
386.50        19.13305
386.95        19.19378
387.40        19.20298
387.85        19.14045
388.29        19.02485
388.74        18.91556
389.19        18.85084
389.64        18.83247
390.09        18.82765
390.54        18.80932
390.98        18.73676
391.43        18.61324
391.88        18.46581
392.33        18.29011
392.78        18.10679
393.23        17.93593
393.67        17.69557
394.12        17.45679
394.57        17.52277
395.02        17.58525
395.47         17.5923
395.91        17.46058
396.36        17.40226
396.81        17.42327
397.26        17.39919
397.71        17.33293
398.15        17.29605
398.60        17.30848
399.05        17.27674
399.50        17.22648
399.95        17.30659
400.39        17.46121
400.84        17.43115
401.29        17.21997
401.74        17.00707
402.18         16.8526
402.63        16.78821
403.08        16.80502
403.53        16.79251
403.97          16.747
404.42        16.76446
404.87         16.8283
405.32        16.87671
405.76        16.89642
406.21        16.85723
406.66        16.78846
407.11        16.81919
407.55        16.91137
408.00        16.87676
408.45        16.70885
408.90         16.4589
409.34         16.2154
409.79        16.19427
410.24        16.35433
410.68        16.41535
411.13        16.35549
411.58        16.34802
412.03        16.40607
412.47        16.46336
412.92        16.50625
413.37         16.5551
413.81        16.58683
414.26        16.58191
414.71        16.53502
415.15        16.45268
415.60        16.36096
416.05        16.31432
416.49        16.32919
416.94        16.38896
417.39        16.46116
417.83        16.49508
418.28        16.47293
418.73        16.40357
419.17        16.32211
419.62        16.28801
420.07        16.32102
420.51        16.41019
420.96        16.50349
421.41          16.541
421.85        16.50726
422.30        16.34822
422.74        16.16429
423.19        16.30713
423.64        16.71692
424.08        16.93612
424.53        16.86668
424.98        16.83618
425.42        16.85148
425.87        16.60117
426.31        16.21312
426.76        16.23528
427.21        16.59593
427.65         16.6787
428.10         16.4835
428.54        16.43443
428.99        16.53168
429.44        16.69799
429.88        16.81971
430.33        16.52001
430.77        15.98813
431.22        15.92383
431.66        16.32154
432.11          16.668
432.56        16.87097
433.00        17.07829
433.45         17.1014
433.89          16.776
434.34        16.42149
434.78        15.51446
435.23        16.07595
435.67        16.59886
436.12        16.88126
436.57        17.08332
437.01        17.03341
437.46        16.98912
437.90        17.02937
438.35        17.07846
438.79        16.64352
439.24         16.4782
439.68        16.46372
440.13         16.5242
440.57        16.60405
441.02        16.76492
441.46        16.93812
441.91        16.76324
442.35        16.38922
442.80        16.54923
443.24        17.10107
443.69        17.07616
444.13        16.52729
444.58        16.32229
445.02        16.47344
445.47        16.53261
445.91        16.47832
446.36         16.5071
446.80        16.60835
447.24        16.71684
447.69        16.80916
448.13          16.894
448.58        16.94139
449.02        16.87193
449.47        16.73516
449.91        16.68551
450.36        16.74393
450.80        16.83165
451.25        16.91758
451.69        16.97845
452.13        16.99513
452.58        16.96134
453.02        16.89264
453.47        16.82338
453.91        16.76235
454.36        16.72617
454.80        16.68814
455.24        16.58817
455.69        16.46449
456.13        16.35545
456.58        16.29845
457.02        16.40726
457.46        16.58532
457.91        16.53053
458.35        16.34142
458.79        16.27168
459.24        16.35018
459.68        16.41521
460.13        16.44385
460.57         16.3757
461.01        16.28074
461.46        16.19026
461.90        16.05896
462.34          15.995
462.79        16.25717
463.23        16.38665
463.68        16.43138
464.12        16.43323
464.56         16.3996
465.01        16.38945
465.45        16.35686
465.89        16.22639
466.34        16.06271
466.78        15.94116
467.22        15.85214
467.67        16.11431
468.11        16.00216
468.55        15.92912
468.99        15.73922
469.44        15.67883
469.88        15.75801
470.32        15.84022
470.77        15.90094
471.21        15.95111
471.65        15.98196
472.10        15.99425
472.54        15.98457
472.98        15.97221
473.42        15.96743
473.87        15.92019
474.31        15.85653
474.75        15.96579
475.20        16.19264
475.64        16.22746
476.08        16.07503
476.52        16.05077
476.97         16.1741
477.41         16.1186
477.85        16.04022
478.29        16.15933
478.74        16.06935
479.18        15.95918
479.62        16.22525
480.06        16.25928
480.50         16.2288
480.95        16.13359
481.39        15.99149
481.83        16.17588
482.27        16.20893
482.72        16.20638
483.16        16.48985
483.60        16.54258
484.04        16.46329
484.48        16.39464
484.93        16.53619
485.37        16.38648
485.81        16.58122
486.25        17.42658
486.69        16.71665
487.14         16.3604
487.58        17.54886
488.02         17.3028
488.46        17.21995
488.90        17.43725
489.34        17.00685
489.79        16.80496
490.23         17.1447
490.67        17.45792
491.11        17.81021
491.55        17.83704
491.99        17.62391
492.43        17.65367
492.88        17.94695
493.32        18.17928
493.76        18.30219
494.20        18.44436
494.64        18.61242
495.08        18.71531
495.52        18.76773
495.96        18.95898
496.41        19.27451
496.85        19.20631
497.29        18.89385
497.73        19.06184
498.17        19.62769
498.61        19.93287
499.05        19.88799
499.49        19.85013
499.93        19.88224
500.37         19.9185
500.82        19.96634
501.26         20.0867
501.70        20.29338
502.14        20.15516
502.58         20.3925
503.02        20.47137
503.46        20.51733
503.90        20.55902
504.34        20.58181
504.78        20.62669
505.22         20.6869
505.66        20.71638
506.10        20.73146
506.54        20.81463
506.98        20.97347
507.42        21.08174
507.86        21.27057
508.30        21.35408
508.74        21.36971
509.18        21.32791
509.62        21.26638
510.06        21.24424
510.50        21.27663
510.94        21.34824
511.38        21.43317
511.82        21.48925
512.26        21.50534
512.70        21.49853
513.14        21.48678
513.58        21.48874
514.02        21.51072
514.46        21.55844
514.90        21.62789
515.34        21.63767
515.78        21.70723
516.22        21.73855
516.66         21.7691
517.10        21.79529
517.54        21.81767
517.98        21.83394
518.42        21.84047
518.86        21.83635
519.30        21.82179
519.74        21.79792
520.18        21.77227
520.62        21.75479
521.06        21.74931
521.50        21.75736
521.93        21.77022
522.37        21.76465
522.81        21.73893
523.25        21.69271
523.69        21.64739
524.13        21.63771
524.57        21.66497
525.01         21.7156
525.45        21.74704
525.89        21.69229
526.32        21.53939
526.76        21.32327
527.20        21.09399
527.64        20.93438
528.08        20.86617
528.52          20.861
528.96        20.89172
529.40        20.91381
529.83        20.90885
530.27        20.89404
530.71        20.85802
531.15         20.7829
531.59        20.67168
532.03        20.52724
532.46         20.3849
532.90        20.31664
533.34        20.33124
533.78         20.4091
534.22        20.50293
534.66        20.53885
535.09         20.4978
535.53        20.40478
535.97        20.29479
536.41        20.22696
536.85        20.21771
537.28        20.25116
537.72        20.29888
538.16        20.31256
538.60        20.28469
539.04         20.2402
539.47        20.20536
539.91        20.23007
540.35        20.31728
540.79        20.45061
541.22        20.60087
541.66        20.72382
542.10        20.80518
542.54        20.85988
542.97        20.89795
543.41        20.94792
543.85        21.01542
544.29        21.09274
544.72        21.17857
545.16        21.28756
545.60        21.41342
546.04        21.55573
546.47        21.70406
546.91        21.83457
547.35        21.94141
547.79        22.04104
548.22          22.139
548.66         22.2407
549.10         22.3627
549.53        22.57671
549.97        22.85659
550.41        23.08084
550.84        23.23156
551.28        23.37489
551.72        23.50883
552.15        23.60273
552.59        23.66802
553.03        23.70647
553.46        23.74813
553.90        23.85762
554.34         24.0388
554.77        24.28179
555.21        24.53279
555.65        24.70362
556.08        24.74959
556.52        24.75385
556.96        24.75053
557.39        24.82857
557.83        24.98498
558.27        25.09061
558.70        25.13532
559.14        25.19741
559.57         25.2675
560.01        25.32798
560.45        25.37383
560.88        25.38249
561.32        25.40795
561.75        25.51031
562.19        25.67379
562.63        25.86116
563.06        25.99991
563.50        25.90797
563.93        25.66152
564.37        25.60662
564.80        25.76322
565.24        25.96961
565.68         26.1723
566.11        26.33819
566.55        26.45183
566.98        26.55017
567.42        26.65932
567.85        26.67158
568.29        26.78603
568.72         26.8955
569.16        27.02599
569.60        27.21177
570.03        27.47614
570.47        27.44256
570.90        27.42637
571.34        28.05699
571.77        27.95256
572.21        27.95242
572.64        28.26144
573.08        28.24596
573.51         28.6736
573.95         28.8246
574.38         28.8648
574.82        28.73502
575.25         28.8304
575.69        28.82418
576.12        28.68715
576.56        29.20153
576.99        29.19291
577.42        29.28384
577.86         29.1786
578.29        29.30873
578.73        29.03414
579.16        29.01988
579.60        29.00207
580.03        28.93403
580.47        28.82302
580.90        28.64223
581.33         28.6217
581.77         28.6976
582.20        28.31713
582.64        27.95291
583.07        28.11975
583.51         28.0778
583.94        28.08939
584.37        28.03053
584.81        27.87251
585.24        27.65615
585.68        27.52709
586.11        27.04987
586.54        27.07085
586.98        27.16254
587.41        27.38796
587.85        26.97953
588.28        26.86999
588.71        26.72294
589.15        26.92937
589.58        26.83781
590.01        26.98642
590.45        27.06812
590.88        26.53954
591.31        26.49458
591.75         26.7472
592.18        26.73213
592.61        26.43238
593.05        27.14213
593.48        27.07878
593.91        26.98529
594.35        27.00009
594.78        27.25125
595.21        27.41515
595.65        27.40018
596.08         27.1356
596.51         27.5373
596.94        27.64896
597.38        27.99925
597.81        28.32143
598.24        28.17532
598.68        28.76349
599.11        28.98153
599.54        29.19117
599.97        29.50243
600.41         30.1957
600.84        30.61587
601.27         30.8228
601.70         31.0722
602.14        31.13102
602.57         31.7575
603.00        32.44342
603.43        32.89178
603.87        33.18522
604.30        33.34575
604.73        33.92755
605.16        34.43454
605.60        35.00614
606.03          35.556
606.46        36.05805
606.89        36.20488
607.32        36.67368
607.76        37.29036
608.19        37.38377
608.62        37.75257
609.05        38.20591
609.48        38.53051
609.92        38.64256
610.35        39.39862
610.78        39.71123
611.21        39.51395
611.64        40.32945
612.07        40.56322
612.50        40.75156
612.94        41.03765
613.37        41.49365
613.80        41.58753
614.23        42.03745
614.66         42.3386
615.09        42.65559
615.52        42.95783
615.96        43.29358
616.39        43.24161
616.82        43.55409
617.25        44.03062
617.68        44.12799
618.11        44.31657
618.54        44.44444
618.97         44.7675
619.40        45.19192
619.84        45.69548
620.27        45.75813
620.70        45.83191
621.13        45.76132
621.56        46.29266
621.99        46.24715
622.42        46.38663
622.85          46.038
623.28        46.38849
623.71        46.21198
624.14        46.32023
624.57        46.58224
625.00        46.45515
625.43        46.35806
625.86        46.21701
626.29        46.19918
626.72        45.85863
627.15        45.78304
627.58        45.63659
628.01        45.61907
628.44        45.19732
628.87        45.01896
629.30        45.05567
629.73        44.28347
630.16          44.008
630.59         43.6505
631.02        43.35144
631.45        43.13411
631.88        42.82156
632.31        42.46554
632.74        41.88517
633.17        41.52519
633.60        41.05564
634.03        40.60723
634.46        40.17123
634.89        39.73807
635.32        39.27784
635.75        38.78458
636.18        38.29617
636.61        37.82195
637.04        37.32867
637.47        36.84275
637.89        36.46399
638.32        36.15594
638.75         35.8049
639.18        35.40447
639.61        35.01986
640.04         34.6646
640.47        34.34002
640.90        34.05287
641.33        33.78975
641.76        33.54033
642.18        33.37141
642.61        33.14935
643.04        32.98194
643.47        32.84413
643.90        32.75797
644.33        32.72669
644.76        32.74699
645.18        32.80091
645.61         32.8551
646.04        32.90179
646.47        32.94419
646.90        33.01671
647.33        33.17151
647.75        33.42805
648.18        33.79012
648.61        34.19447
649.04        34.56467
649.47        34.89741
649.89        35.11856
650.32        35.33453
650.75        35.97522
651.18         36.9285
651.61        37.52076
652.03        37.71416
652.46        38.03492
652.89        38.62376
653.32        39.09081
653.74        39.59791
654.17        40.62572
654.60        41.01673
655.03        41.18891
655.46          41.769
655.88        42.86062
656.31        43.84745
656.74        44.56768
657.16        44.84179
657.59         45.1209
658.02        44.83581
658.45        46.02846
658.87        46.39187
659.30        46.91953
659.73         46.8115
660.15        46.95635
660.58        47.62067
661.01        48.27018
661.44        48.89082
661.86        49.11568
662.29        49.03299
662.72        49.13074
663.14         49.4884
663.57        49.88462
664.00        50.26511
664.42        50.58241
664.85        50.82939
665.27        51.08061
665.70        51.33483
666.13        51.54076
666.55        51.70518
666.98        51.84848
667.41        52.00541
667.83        52.21952
668.26        52.49035
668.69        52.81482
669.11        53.14607
669.54        53.39648
669.96        53.55281
670.39        53.63851
670.82        53.71313
671.24        53.84706
671.67         54.0651
672.09        54.38368
672.52        54.74308
672.94        54.93701
673.37        54.98391
673.80        55.07714
674.22        55.24424
674.65        55.34989
675.07        55.41511
675.50        55.50775
675.92        55.63465
676.35        55.75685
676.77         55.8776
677.20        56.01201
677.62         56.1588
678.05        56.29663
678.47        56.42284
678.90        56.54868
679.32        56.68185
679.75        56.84856
680.17         57.0464
680.60        57.26786
681.02         57.4808
681.45        57.61781
681.87        57.67815
682.30        57.67152
682.72        57.65199
683.15        57.71507
683.57        57.88376
684.00        58.06508
684.42        58.24398
684.85         58.4588
685.27        58.68806
685.70        58.88902
686.12         59.0301
686.54        59.17409
686.97        59.32046
687.39        59.33148
687.82        59.17823
688.24        59.40796
688.66         59.2821
689.09        59.20588
689.51        59.31178
689.94        59.39533
690.36        59.55806
690.78        59.78315
691.21        60.02705
691.63        60.18952
692.06        60.24233
692.48        60.18793
692.90        60.10843
693.33        60.10759
693.75         60.2091
694.17        60.46724
694.60        60.82238
695.02        60.78471
695.44        60.93018
695.87        60.91903
696.29        60.98093
696.71        61.09511
697.14        61.38805
697.56        61.41286
697.98        61.25399
698.41        61.27716
698.83        61.47179
699.25        61.66451
699.68         61.8265
700.10        61.98611
700.52        62.10347
700.94        62.47012
701.37        62.48757
701.79        62.54998
702.21        62.47556
702.64        62.31858
703.06        62.14578
703.48        62.08977
703.90        62.19036
704.33        62.39824
704.75        62.66462
705.17        62.88327
705.59        63.01506
706.01        63.06361
706.44        63.05273
706.86        63.13281
707.28        63.14292
707.70        63.22286
708.12        63.30569
708.55        63.31701
708.97        63.26745
709.39        63.27849
709.81        63.36591
710.23        63.45811
710.66         63.5508
711.08        63.70804
711.50        63.87434
711.92        63.95789
712.34        63.94836
712.76        63.87014
713.19        63.77481
713.61        63.79444
714.03        63.93601
714.45        64.16011
714.87        64.40171
715.29        64.56178
715.71        64.61461
716.13        64.59141
716.56        64.51495
716.98        64.49406
717.40         64.5356
717.82        64.61834
718.24        64.72405
718.66        64.82555
719.08        64.91039
719.50        64.98351
719.92        65.05349
720.34        65.13123
720.76        65.21556
721.19        65.29183
721.61        65.34814
722.03        65.33817
722.45        65.25961
722.87        65.13294
723.29        65.00717
723.71         64.9575
724.13        65.00502
724.55         65.1395
724.97        65.34176
725.39        65.49767
725.81        65.56821
726.23        65.71253
726.65        65.98645
727.07        65.71745
727.49        66.12839
727.91        66.22269
728.33        66.32642
728.75        66.35271
729.17        66.30088
729.59         66.1835
730.01        66.03591
730.43        65.94846
730.85        65.93988
731.27        65.98444
731.69        66.06084
732.10        66.14043
732.52        66.19557
732.94        66.27113
733.36        66.35541
733.78        66.39092
734.20        66.24351
734.62        66.50861
735.04        66.11992
735.46        66.38143
735.88        66.69341
736.30        66.63776
736.72        66.23295
737.13        66.12069
737.55        66.31558
737.97        66.54591
738.39        66.71787
738.81        66.62201
739.23        66.33805
739.65        66.41932
740.06        66.77927
740.48        66.89536
740.90        66.72186
741.32        66.63402
741.74        66.59615
742.16         66.6545
742.57        66.80115
742.99        67.03427
743.41        67.28094
743.83        67.41106
744.25        67.39797
744.67        67.26354
745.08        67.11357
745.50        67.09042
745.92        67.24233
746.34         67.5203
746.75         67.8017
747.17        67.90394
747.59        67.78912
748.01        67.46761
748.42         67.0861
748.84        66.98057
749.26         67.1467
749.68           67.29
750.09        67.33931
750.51        67.32914
750.93        67.28871
751.35        67.36752
751.76        67.55062
752.18        67.63187
752.60        67.60847
753.01        67.61835
753.43        67.66941
753.85        67.74389
754.27        67.84544
754.68        67.97955
755.10         68.1236
755.52         68.2375
755.93        68.30953
756.35        68.35059
756.77        68.36597
757.18        68.37196
757.60        68.38126
758.02        68.36694
758.43        68.34223
758.85        68.33336
759.26        68.30353
759.68        68.28423
760.10        68.37345
760.51        67.66158
760.93        68.40056
761.34        67.93668
761.76        68.55144
762.18        68.62969
762.59        68.51001
763.01        68.40633
763.42        68.35974
763.84        68.34655
764.26        68.40672
764.67         68.5479
765.09        68.76163
765.50        68.98186
765.92        69.15517
766.33        69.11726
766.75        68.83538
767.16         68.5705
767.58        68.38141
768.00        68.27159
768.41        68.29756
768.83        68.55259
769.24        68.90972
769.66        69.02154
770.07        68.87811
770.49        68.81446
770.90        68.87809
771.32        68.93382
771.73        68.99268
772.15         69.0381
772.56        69.08075
772.97        69.23257
773.39        69.42417
773.80        69.40604
774.22        69.21195
774.63        69.28496
775.05        69.57545
775.46         69.7265
775.88        69.68462
776.29        69.69711
776.70        69.77133
777.12        69.82343
777.53        69.87054
777.95        69.91428
778.36        69.94997
778.77        69.94941
779.19        69.91842
779.60        69.88504
780.02        69.85403
780.43        69.88358
780.84         69.9679
781.26        70.00801
781.67         70.0937
782.09        70.39008
782.50        70.64911
782.91        71.18783
783.33        70.23364
783.74        70.04092
784.15        70.09939
784.57        70.16035
784.98        70.16199
785.39        69.88791
785.81        69.51219
786.22        69.78416
786.63        70.55711
787.04        70.93465
787.46        70.86693
787.87         70.8179
788.28        70.85753
788.70         70.8926
789.11        70.93166
789.52        70.98583
789.93        71.04412
790.35        71.13683
790.76        71.24574
791.17        71.20688
791.58        71.06642
792.00         71.0059
792.41        71.03693
792.82        71.11401
793.23        71.19844
793.65        71.00235
794.06        70.67431
794.47        70.93113
794.88        71.63228
795.29        71.74129
795.71        71.65759
796.12        71.46259
796.53        71.36387
796.94        71.31657
797.35        71.34669
797.76        71.41997
798.18        71.52376
798.59        71.65922
799.00        71.81388
799.41         71.9632
799.82        72.06439
800.23        72.07106
800.64        71.97358
801.06        71.76655
801.47        71.53693
801.88        71.35474
802.29        71.25643
802.70        71.23409
803.11        71.27605
803.52        71.35435
803.93        71.45314
804.34        71.56911
804.75        71.70678
805.17        71.86644
805.58        72.06712
805.99        72.26009
806.40        72.38954
806.81        72.41896
807.22        72.31008
807.63        71.97913
808.04         71.5631
808.45         71.4118
808.86        71.59361
809.27        71.97507
809.68        72.40367
810.09        72.64201
810.50         72.6125
810.91        72.37709
811.32        72.07754
811.73         71.9652
812.14        72.10808
812.55         72.3942
812.96        72.70046
813.37        72.90408
813.78        72.90703
814.19        72.59896
814.60        72.13451
815.01        71.90292
815.42        71.96915
815.83        72.16351
816.24        72.41975
816.65        72.67221
817.05        72.86663
817.46        72.97911
817.87        73.04436
818.28        73.06675
818.69        73.05235
819.10        72.99178
819.51        72.89009
819.92        72.76746
820.33        72.64297
820.74        72.52901
821.14        72.43627
821.55        72.40559
821.96        72.42283
822.37        72.48135
822.78        72.56884
823.19        72.65721
823.60        72.73351
824.00        72.82486
824.41        72.87143
824.82        72.86978
825.23        72.82275
825.64        72.73479
826.04        72.68278
826.45        72.75748
826.86        72.98284
827.27        73.32515
827.68         73.6869
828.08        73.93398
828.49        73.95667
828.90         73.8326
829.31         73.6399
829.72        73.51767
830.12        73.53167
830.53        73.59271
830.94        73.67661
831.35        73.70785
831.75        73.68222
832.16        73.58709
832.57        73.45728
832.97        73.31059
833.38        73.16189
833.79        73.02196
834.20        72.91363
834.60        72.86704
835.01        72.89525
835.42        72.97369
835.82         73.1134
836.23        73.25021
836.64        73.38551
837.04        73.54967
837.45        73.65369
837.86        73.65322
838.26          73.563
838.67        73.39405
839.08        73.24931
839.48        73.28306
839.89         73.5229
840.29        73.90141
840.70        74.34339
841.11        74.73178
841.51        75.03283
841.92        75.24024
842.33        75.32286
842.73         75.2296
843.14        74.92602
843.54        74.46575
843.95        73.98367
844.35        73.72057
844.76        73.72559
845.17        73.94799
845.57         74.2683
845.98        74.43221
846.38        74.39319
846.79        74.19978
847.19        73.95461
847.60        73.77814
848.00        73.73743
848.41        73.74969
848.81        73.81656
849.22         73.8727
849.62        73.92953
850.03        73.98554
850.43        74.03996
850.84        74.00159
851.24        73.90573
851.65        73.70464
852.05        73.52647
852.46        73.49628
852.86        73.63572
853.27        73.91282
853.67        74.13046
854.07        74.19078
854.48        74.02943
854.88        73.72374
855.29        73.27533
855.69        72.90885
856.10        72.61847
856.50        72.44225
856.90        72.32476
857.31        72.20174
857.71        72.09885
858.12        71.98798
858.52        71.93053
858.92        71.88991
859.33        71.84733
859.73        71.84161
860.13        71.82836
860.54        71.76638
860.94        71.68027
861.34        71.53398
861.75        71.37243
862.15        71.32915
862.55        71.39906
862.96        71.58662
863.36         71.7481
863.76        71.62993
864.17        71.19574
864.57         70.5389
864.97         69.9444
865.38        69.85004
865.78        70.38152
866.18        71.37553
866.58        72.46462
866.99        72.99707
867.39        72.80698
867.79        72.06934
868.19        71.10992
868.60        70.37664
869.00        69.99419
869.40        69.86255
869.80        69.89647
870.21        69.95266
870.61        70.03472
871.01        70.14191
871.41        70.27213
871.81        70.40085
872.22        70.49846
872.62         70.5828
873.02        70.63147
873.42        70.61883
873.82        70.55225
874.22        70.45117
874.63        70.40605
875.03        70.52257
875.43        70.81481
875.83        71.23103
876.23         71.6724
876.63        71.97063
877.03        72.06348
877.44        71.98328
877.84        71.76867
878.24        71.46908
878.64        71.12789
879.04         70.7481
879.44        70.39395
879.84        70.14063
880.24        70.00633
880.64        70.00497
881.04        70.07618
881.44        70.10442
881.84        70.05717
882.24        69.93283
882.65        69.82813
883.05        70.01129
883.45        70.46479
883.85        71.10291
884.25         71.6697
884.65        71.79586
885.05        71.42586
885.45        70.67075
885.85        69.82827
886.25        69.41882
886.65        69.57983
887.05        70.15143
887.45        70.82933
887.85        71.13929
888.25        70.96684
888.65        70.47067
889.04        69.85798
889.44         69.5125
889.84        69.52872
890.24        69.77261
890.64        70.11784
891.04        70.37834
891.44         70.4874
891.84         70.5167
892.24        70.48449
892.64        70.40658
893.04        70.30542
893.44        70.16966
893.83         70.0648
894.23         70.0406
894.63        70.12931
895.03        70.30476
895.43        70.51656
895.83        70.67062
896.23        70.74124
896.63        70.76581
897.02        70.74322
897.42         70.7113
897.82        70.67587
898.22        70.62809
898.62        70.62226
899.01        70.76247
899.41        71.03621
899.81        71.41516
900.21        71.79358
900.61         71.9949
901.00        71.96537
901.40         71.7757
901.80        71.49921
902.20        71.27304
902.59        71.15053
902.99        71.07229
903.39        71.04513
903.79        71.06089
904.18        71.10886
904.58        71.22522
904.98        71.33912
905.38         71.3459
905.77        71.21912
906.17        70.96349
906.57         70.7168
906.96         70.7402
907.36        71.06223
907.76        71.64855
908.15        72.22769
908.55        72.27267
908.95        71.71816
909.34        70.69388
909.74        69.68137
910.14        69.37738
910.53        69.92477
910.93         71.0879
911.33        72.38097
911.72        72.97205
912.12        72.64935
912.52        71.74957
912.91        70.68783
913.31        70.06691
913.70        70.03006
914.10        70.35764
914.49        70.93804
914.89        71.51855
915.29        71.97126
915.68         72.3535
916.08         72.5904
916.47        72.54624
916.87        72.24666
917.26        71.72942
917.66         71.1342
918.05        70.66384
918.45         70.3902
918.84        70.29651
919.24        70.39634
919.64        70.77187
920.03        71.40283
920.42        72.23173
920.82        73.05165
921.21        73.53867
921.61        73.59676
922.00        73.28841
922.40        72.80321
922.79        72.57849
923.19        72.70004
923.58        73.10397
923.98        73.49801
924.37        73.48609
924.77        72.98116
925.16        72.09873
925.55        71.19012
925.95        70.84221
926.34        71.19729
926.74        72.05849
927.13        73.02826
927.52        73.38218
927.92         72.9863
928.31        72.05772
928.70        71.03069
929.10        70.56252
929.49        70.80927
929.89        71.53227
930.28        72.44193
930.67         72.9179
931.07        72.75243
931.46        72.17187
931.85        71.41078
932.24        70.85332
932.64         70.6256
933.03        70.61982
933.42        70.73049
933.82        70.79744
934.21        70.77518
934.60        70.72592
934.99        70.74507
935.39        70.95131
935.78        71.38463
936.17         71.9632
936.56         72.5244
936.96         72.7963
937.35        72.76232
937.74        72.49272
938.13        72.13671
938.53        71.91384
938.92        71.89423
939.31        72.00844
939.70        72.22931
940.09         72.4977
940.49        72.73884
940.88        72.99158
941.27        73.18965
941.66         73.2403
942.05        73.12812
942.44        72.87467
942.84        72.54833
943.23        72.21221
943.62        71.92995
944.01        71.69978
944.40        71.52121
944.79        71.38937
945.18        71.29617
945.57        71.22893
945.97        71.17915
946.36        71.20032
946.75        71.25639
947.14        71.35004
947.53        71.37735
947.92        71.16871
948.31        70.72123
948.70        70.11134
949.09        69.56439
949.48        69.42524
949.87         69.7552
950.26        70.43887
950.65        71.25729
951.04        71.85643
951.43        72.12778
951.82        72.15791
952.21        72.03616
952.60        71.94113
952.99        71.91998
953.38        71.86878
953.77        71.76785
954.16        71.60015
954.55        71.34763
954.94        71.06021
955.33        70.64798
955.72        69.94045
956.11        68.94521
956.50         67.7406
956.89        66.60101
957.28        65.99498
957.66        66.08624
958.05        66.74282
958.44        67.68452
958.83        68.44358
959.22        68.84163
959.61        68.92127
960.00        68.84795
960.39        68.90934
960.78        69.16197
961.16         69.5518
961.55        69.73736
961.94        69.26937
962.33        68.12172
962.72         66.5527
963.11        65.09491
963.49        64.49078
963.88        64.88943
964.27         66.0751
964.66        67.64001
965.04        68.83754
965.43        69.29354
965.82        69.23014
966.21        68.88957
966.60        68.67706
966.98        68.72688
967.37        68.86275
967.76        68.99628
968.15        68.97401
968.53        68.77051
968.92        68.49834
969.31        68.24944
969.69        68.10499
970.08        68.09142
970.47        68.19116
970.86        68.44405
971.24        68.93475
971.63        69.56873
972.02        70.28807
972.40        71.00625
972.79        71.47345
973.17         71.7365
973.56        71.78688
973.95        71.69801
974.33        71.56582
974.72         71.4286
975.11        71.24809
975.49        71.03472
975.88        70.84613
976.26        70.70057
976.65        70.59363
977.04        70.46098
977.42        70.15963
977.81        69.62695
978.19        68.90229
978.58        68.25479
978.96        68.07635
979.35        68.44023
979.74        69.26139
980.12        70.27036
980.51        70.80898
980.89        70.82219
981.28        70.37181
981.66         69.7899
982.05        69.72052
982.43        70.31174
982.82        71.31326
983.20        72.35818
983.59        72.72931
983.97        72.35538
984.35         71.3805
984.74         70.1801
985.12        69.40185
985.51        69.25789
985.89        69.61665
986.28        70.13478
986.66        70.38794
987.04        70.23964
987.43        69.77072
987.81        69.31304
988.20        69.34007
988.58        69.99182
988.96        71.10165
989.35        72.08264
989.73        72.14169
990.12        71.03606
990.50         68.8378
990.88        66.28985
991.27        65.14503
991.65        65.98534
992.03        68.26104
992.42        70.54811
992.80        71.34724
993.18        70.27844
993.56        67.66783
993.95        64.39261
994.33        62.63943
994.71        63.46416
995.10         65.7837
995.48        68.38838
995.86        69.98539
996.24        70.44669
996.63        70.16953
997.01          69.514
997.39        69.09756
997.77        69.22821
998.15        69.66783
998.54         70.1268
998.92        70.28818
999.30        70.08705
999.68        69.69461
1000.06        69.40708
1000.45        69.63934
1000.83        70.53081
1001.21        71.80851
1001.59        73.12803
1001.97        74.03406
1002.35        74.41962
1002.73        74.43569
1003.12        74.08689
1003.50        73.32969
1003.88        72.34898
1004.26        71.19013
1004.64        70.25057
1005.02        69.98436
1005.40        70.41944
1005.78        71.53369
1006.16         72.7914
1006.54        73.19365
1006.92        72.48619
1007.30        70.88068
1007.69        69.27597
1008.07        69.09009
1008.45        70.63203
1008.83        73.31635
1009.21        75.99672
1009.59        77.03872
1009.97        76.01083
1010.35        73.22505
1010.73        69.32667
1011.11        66.23939
1011.49        65.12566
1011.86        65.65195
1012.24        67.06363
1012.62         68.4356
1013.00        69.46307
1013.38        70.55577
1013.76        71.57807
1014.14        72.23979
1014.52        72.48562
1014.90        72.11937
1015.28        71.66302
1015.66         72.2349
1016.04        74.01885
1016.41        76.76671
1016.79        79.07861
1017.17        79.25271
1017.55        77.09969
1017.93        73.30215
1018.31        69.30137
1018.69        67.31647
1019.06        68.05009
1019.44        71.09982
1019.82        75.46247
1020.20        78.79609
1020.58        80.00951
1020.95        79.56949
1021.33        78.55631
1021.71        78.45357
1022.09        79.47552
1022.46        80.97906
1022.84        82.16743
1023.22        81.52011
1023.60        78.49871
1023.97        73.35652
1024.35        66.93584
1024.73        61.16504
