SpectraSmart Spectrum 2.9.0.0
--------- Device Information -----------
Spectrum Name :  反射率_0
Saving Time :  2024/04/27 22:51:19
Spectro-Module Model Name : SE2030-DUVN
Spectro-Module Serial Number : OS361AC55029948
Wavelength Start : 200
Wavelength End : 1025
Wavelength Unit : Wavelength(nm)
Spectrum Unit : Reflectance(%)
-----------Spectrum Setting ------------
Integration Time : 20ms
Average : 10
Boxcar : 0
Background removal :  enabled
linearity correction :  enabled
SC :  disabled
Intensity correction :  disabled
DWT denoise :  enabled
savitzky-golay :  disabled
FFT :  disabled
Running average :  disabled
Kalman :  disabled
High pass :  disabled
---------------BEGIN--------------------
Wavelength(nm)             Reflectance(%)
200.29               0
200.75        7.905703
201.21        34.11158
201.67        57.19906
202.13        65.66984
202.58        64.25227
203.04        58.81504
203.50        54.30347
203.96        56.98367
204.42        66.07823
204.88        77.17184
205.34         87.1209
205.80        94.25262
206.26        99.05086
206.72        102.6988
207.18        104.5613
207.64        101.6036
208.10        94.74822
208.55        88.53808
209.01        83.08083
209.47        75.97089
209.93        63.49043
210.39        34.50589
210.85        -50.6957
211.31       -155.9156
211.77       -35.23632
212.23        45.44709
212.69        74.08385
213.14        82.86743
213.60        82.29005
214.06        74.92033
214.52        58.07768
214.98        39.54774
215.44        35.27557
215.90        39.57551
216.36          45.533
216.81        50.19362
217.27         53.5065
217.73        56.94567
218.19        60.03952
218.65        61.30416
219.11        60.34122
219.57         57.2952
220.02        52.32084
220.48        48.00385
220.94        45.66823
221.40        45.03878
221.86        46.40197
222.32        49.83727
222.77        54.59818
223.23        59.85684
223.69        64.39825
224.15        66.97047
224.61        67.62762
225.06        66.70029
225.52        64.95781
225.98        63.50998
226.44        62.86232
226.90        62.63715
227.36        62.45213
227.81        61.86493
228.27        60.86777
228.73        59.53017
229.19        58.01754
229.65        56.76001
230.10        55.88742
230.56        55.49607
231.02        55.26468
231.48        54.85853
231.93        54.16439
232.39        53.45918
232.85        52.88029
233.31        52.67431
233.77         52.8875
234.22         53.4796
234.68        54.17692
235.14        54.74988
235.60         55.1517
236.05        55.34237
236.51        55.71815
236.97        56.92348
237.43        59.02089
237.88        61.88942
238.34        64.31947
238.80        65.40538
239.26        64.89906
239.71        62.34254
240.17         57.8693
240.63        55.83435
241.08        59.70144
241.54         66.1659
242.00        71.03246
242.46        72.44131
242.91        70.65618
243.37        64.48123
243.83        50.66952
244.28        32.53756
244.74        30.55652
245.20        46.03621
245.66        60.28271
246.11        65.16622
246.57        62.63957
247.03        53.79614
247.48        39.46624
247.94        32.38063
248.40        43.34858
248.85        63.40231
249.31        81.52209
249.77        89.74039
250.22        89.80896
250.68        86.29679
251.14        82.34595
251.59          80.348
252.05        80.51093
252.51        81.72733
252.96        83.14651
253.42        83.16859
253.88        80.73613
254.33        77.73063
254.79        75.04592
255.25        71.85112
255.70        68.20484
256.16        64.98753
256.62        63.09226
257.07        63.59079
257.53        66.02206
257.99        68.79514
258.44        70.66125
258.90        71.04115
259.35        69.82782
259.81        68.05937
260.27        66.00983
260.72        64.05013
261.18        62.66269
261.63        61.41263
262.09         60.4733
262.55        59.61325
263.00        58.70648
263.46        57.95355
263.91        57.24776
264.37        56.81219
264.83        56.54954
265.28        56.34215
265.74        56.15159
266.19        55.69879
266.65        55.04557
267.11        54.22057
267.56        53.31102
268.02        52.56954
268.47        51.99852
268.93        51.53513
269.38        51.10412
269.84         50.6255
270.30        50.05159
270.75        49.41305
271.21        48.67122
271.66        47.70568
272.12        46.55892
272.57        45.25343
273.03         43.9897
273.48        42.98311
273.94        42.34015
274.39        41.93761
274.85        41.69051
275.31        41.37513
275.76        40.90114
276.22         40.3513
276.67        39.72371
277.13        39.14165
277.58        38.56362
278.04        38.01383
278.49        37.38039
278.95        36.63917
279.40        35.75164
279.86        34.83996
280.31        33.97121
280.77        33.36939
281.22        33.01525
281.68        32.88191
282.13        32.82865
282.59        32.72686
283.04        32.50951
283.50        32.22976
283.95        31.91438
284.41        31.65943
284.86        31.46296
285.32        31.31688
285.77        31.15362
286.22        30.92689
286.68        30.64812
287.13        30.30902
287.59        29.99789
288.04        29.75964
288.50        29.64014
288.95        29.59213
289.41        29.58364
289.86        29.51282
290.32        29.38559
290.77        29.22009
291.22        29.08664
291.68        29.08155
292.13        29.21269
292.59        29.46618
293.04        29.77762
293.50        30.07673
293.95         30.3349
294.40         30.5867
294.86        30.88302
295.31        31.29268
295.77        31.83694
296.22        32.47175
296.68          33.156
297.13        33.79936
297.58        34.37761
298.04        34.91152
298.49        35.41507
298.95        35.93518
299.40         36.4777
299.85        37.02501
300.31        37.58887
300.76        38.14821
301.21        38.69646
301.67        39.23845
302.12        39.71708
302.58        40.09831
303.03         40.3605
303.48        40.53755
303.94        40.70254
304.39        40.91091
304.84        41.19548
305.30        41.53893
305.75         41.8747
306.20        42.14882
306.66        42.35649
307.11        42.48576
307.57         42.5823
308.02        42.64263
308.47        42.69094
308.93        42.72671
309.38         42.7234
309.83        42.67665
310.29        42.60051
310.74        42.49213
311.19        42.38098
311.65        42.30502
312.10        42.25261
312.55        42.21476
313.00        42.18571
313.46        42.15675
313.91        42.11461
314.36        42.07001
314.82        41.98654
315.27        41.80407
315.72        41.52304
316.18        41.17091
316.63        40.82393
317.08        40.62558
317.53        40.60224
317.99        40.70903
318.44        40.85209
318.89        40.85917
319.35        40.68882
319.80        40.39584
320.25        40.06676
320.70        39.84954
321.16        39.77334
321.61        39.79002
322.06        39.83402
322.51        39.80619
322.97        39.66901
323.42        39.47583
323.87        39.23268
324.32        38.95631
324.78        38.66191
325.23        38.35205
325.68        38.07175
326.13        37.90733
326.59        37.85788
327.04        37.92395
327.49        38.01559
327.94        37.98992
328.39        37.81026
328.85        37.50947
329.30        37.17088
329.75         36.9166
330.20        36.79415
330.66        36.75199
331.11        36.78393
331.56        36.82287
332.01        36.84204
332.46         36.8599
332.92        36.85207
333.37        36.81634
333.82        36.73642
334.27        36.60611
334.72        36.45418
335.17        36.33553
335.63        36.25923
336.08         36.2438
336.53         36.2416
336.98        36.18443
337.43        36.06145
337.88        35.89256
338.34        35.74618
338.79        35.74286
339.24        35.89853
339.69        36.16861
340.14         36.4485
340.59        36.57092
341.05        36.49681
341.50        36.28812
341.95        36.02597
342.40        35.85026
342.85        35.80215
343.30        35.83202
343.75         35.9118
344.20        35.99549
344.66         36.0636
345.11        36.13619
345.56        36.18052
346.01        36.13673
346.46        36.00427
346.91        35.79768
347.36         35.6018
347.81        35.55066
348.26        35.66665
348.72        35.90906
349.17        36.17553
349.62        36.30257
350.07        36.24557
350.52        36.04414
350.97        35.79326
351.42        35.64666
351.87        35.64121
352.32         35.7319
352.77        35.81551
353.22         35.7378
353.67        35.47039
354.13        35.07819
354.58        34.66092
355.03        34.42472
355.48        34.41666
355.93        34.58163
356.38         34.7755
356.83        34.77417
357.28        34.53238
357.73        34.12062
358.18        33.69256
358.63        33.48752
359.08        33.54609
359.53        33.77419
359.98        34.01506
360.43        34.02661
360.88        33.75302
361.33        33.28164
361.78        32.71826
362.23        32.26377
362.68        31.98612
363.13        31.76582
363.58        31.56229
364.03        31.62586
364.48         31.4223
364.93        31.38083
365.38        31.31472
365.83        31.17497
366.28        30.94735
366.73        30.64095
367.18        30.31452
367.63        30.05822
368.08        29.89399
368.53        29.79896
368.98        29.71087
369.43        29.52557
369.88        29.22293
370.33         28.8411
370.78        28.44878
371.23        28.15697
371.68        27.99103
372.13        27.90805
372.58        27.85678
373.03        27.75327
373.48        27.57306
373.93        27.35495
374.38        27.10679
374.83        26.83721
375.28        26.56274
375.72        26.26837
376.17        26.03071
376.62        25.92947
377.07        25.96619
377.52        26.10024
377.97        26.24188
378.42        26.24938
378.87        26.09055
379.32        25.81556
379.77        25.47991
380.22        25.16873
380.67        24.91311
381.11         24.6897
381.56        24.50741
382.01        24.38215
382.46        24.31128
382.91        24.29498
383.36        24.29136
383.81        24.22899
384.26          24.092
384.71        23.89689
385.15        23.67597
385.60        23.51719
386.05        23.43095
386.50        23.40009
386.95        23.39333
387.40        23.36293
387.85        23.29763
388.29        23.19588
388.74        23.11494
389.19          23.082
389.64        23.09531
390.09        23.13082
390.54        23.14822
390.98        23.08175
391.43        22.93896
391.88        22.75416
392.33        22.55548
392.78        22.41928
393.23         22.3687
393.67        22.27563
394.12        22.17423
394.57        22.37856
395.02        22.48125
395.47        22.43436
395.91        22.16856
396.36        22.01967
396.81        22.01531
397.26        21.98126
397.71        21.89886
398.15        21.82343
398.60        21.77696
399.05        21.66306
399.50        21.53302
399.95        21.59527
400.39        21.78441
400.84        21.76602
401.29        21.53872
401.74         21.3177
402.18        21.17124
402.63        21.13985
403.08        21.19972
403.53        21.19111
403.97         21.1067
404.42        21.07304
404.87        21.09151
405.32         21.1205
405.76        21.15209
406.21        21.14106
406.66        21.10266
407.11        21.16424
407.55        21.27019
408.00        21.19367
408.45        20.94944
408.90        20.64016
409.34        20.38318
409.79        20.43238
410.24        20.71258
410.68         20.8331
411.13        20.75568
411.58        20.71166
412.03        20.73135
412.47        20.75496
412.92        20.77722
413.37        20.81814
413.81         20.8454
414.26        20.82852
414.71         20.7593
415.15        20.65141
415.60        20.53831
416.05        20.49009
416.49        20.52641
416.94        20.62217
417.39        20.73526
417.83        20.80125
418.28        20.79665
418.73         20.7315
419.17        20.64143
419.62        20.58911
420.07        20.59649
420.51        20.64957
420.96        20.70015
421.41        20.69849
421.85        20.63124
422.30        20.42969
422.74        20.19192
423.19        20.31354
423.64        20.71244
424.08        20.83044
424.53        20.60551
424.98        20.52615
425.42        20.61781
425.87        20.47155
426.31        20.17347
426.76        20.29231
427.21        20.71638
427.65        20.70771
428.10        20.32862
428.54        20.20027
428.99        20.34028
429.44        20.60377
429.88         20.8304
430.33        20.53412
430.77        19.93113
431.22        19.88671
431.66        20.37343
432.11        20.76638
432.56        20.95611
433.00        21.01439
433.45        20.80573
433.89        20.54115
434.34        20.52228
434.78        19.55652
435.23        20.15816
435.67        20.74854
436.12        21.07602
436.57        21.12354
437.01        20.76289
437.46        20.56528
437.90        20.65565
438.35        20.86731
438.79        20.52938
439.24        20.45322
439.68         20.4627
440.13        20.50573
440.57         20.5362
441.02        20.66321
441.46        20.82165
441.91         20.5595
442.35        20.07498
442.80        20.29057
443.24        21.03013
443.69        21.09167
444.13        20.50806
444.58        20.30732
445.02        20.49589
445.47        20.53167
445.91        20.38678
446.36        20.30231
446.80        20.27807
447.24        20.23957
447.69        20.20908
448.13        20.26904
448.58        20.39426
449.02         20.4669
449.47         20.4823
449.91        20.52353
450.36        20.59192
450.80        20.61888
451.25        20.61851
451.69         20.6466
452.13        20.69943
452.58        20.73758
453.02        20.74306
453.47        20.70071
453.91        20.60736
454.36        20.50913
454.80         20.3923
455.24        20.21053
455.69          20.023
456.13        19.86641
456.58        19.79406
457.02        19.95779
457.46        20.23842
457.91        20.26401
458.35        20.12286
458.79        20.08296
459.24        20.17261
459.68        20.20237
460.13        20.17561
460.57        20.07052
461.01        19.98195
461.46        19.93316
461.90        19.83363
462.34        19.76075
462.79        20.02343
463.23        20.07608
463.68        20.01956
464.12        19.96454
464.56        19.93622
465.01        19.98609
465.45        20.03248
465.89        19.94392
466.34        19.78861
466.78        19.67074
467.22        19.59087
467.67        19.96353
468.11        19.89332
468.55        19.87885
468.99        19.70838
469.44        19.66668
469.88        19.76163
470.32        19.83008
470.77        19.85369
471.21        19.86674
471.65        19.86716
472.10        19.85431
472.54        19.82216
472.98        19.79103
473.42        19.77282
473.87        19.70755
474.31        19.62967
474.75        19.77456
475.20         20.0722
475.64        20.13429
476.08        19.96194
476.52        19.94091
476.97        20.09561
477.41        20.02685
477.85          19.927
478.29        20.06824
478.74        19.94689
479.18        19.79434
479.62        20.12147
480.06        20.20272
480.50        20.24696
480.95        20.24698
481.39        20.17909
481.83        20.44122
482.27        20.41897
482.72         20.2833
483.16        20.49695
483.60        20.51525
484.04        20.50968
484.48        20.56054
484.93        20.81018
485.37        20.72828
485.81        21.21313
486.25        21.54749
486.69        21.16048
487.14        20.71735
487.58         21.7655
488.02        21.32673
488.46        21.74038
488.90        21.57542
489.34        21.23706
489.79        21.00486
490.23        21.66509
490.67        21.82343
491.11        21.71784
491.55         21.7499
491.99        21.94376
492.43        22.10309
492.88        22.21171
493.32        22.33603
493.76        22.45795
494.20        22.58448
494.64         22.7296
495.08         22.8144
495.52        22.86271
495.96         23.1069
496.41        23.50765
496.85        23.49399
497.29        23.18256
497.73        23.28854
498.17        23.74659
498.61        24.01899
499.05        24.01015
499.49        23.93922
499.93        23.88219
500.37        23.89275
500.82         23.9779
501.26        24.14035
501.70        24.38949
502.14        24.22799
502.58        24.51618
503.02        24.60286
503.46         24.6389
503.90        24.65621
504.34        24.65096
504.78         24.6991
505.22        24.79663
505.66        24.87936
506.10        24.94679
506.54        25.06549
506.98        25.23787
507.42        25.32446
507.86        25.49979
508.30        25.56796
508.74         25.5828
509.18        25.54733
509.62        25.50256
510.06        25.51271
510.50        25.59005
510.94        25.71708
511.38        25.85221
511.82        25.92816
512.26        25.92801
512.70        25.87471
513.14        25.80372
513.58        25.76097
514.02        25.76257
514.46         25.8143
514.90        25.89836
515.34        25.89508
515.78        25.94322
516.22        25.93019
516.66        25.92492
517.10        25.96082
517.54        26.04204
517.98        26.15172
518.42        26.24444
518.86        26.25339
519.30        26.16812
519.74        26.01555
520.18        25.84991
520.62        25.75468
521.06        25.75116
521.50        25.81401
521.93        25.90899
522.37        25.96976
522.81        25.97796
523.25        25.95021
523.69        25.90021
524.13        25.84929
524.57        25.80496
525.01        25.75836
525.45        25.70468
525.89        25.63902
526.32        25.55858
526.76        25.47746
527.20        25.40248
527.64        25.34539
528.08        25.30824
528.52        25.28451
528.96         25.2684
529.40        25.25104
529.83        25.22646
530.27        25.19908
530.71        25.16111
531.15        25.10227
531.59        25.02418
532.03        24.93242
532.46        24.84074
532.90        24.78473
533.34         24.7674
533.78        24.77884
534.22        24.80496
534.66        24.82319
535.09        24.82357
535.53        24.81793
535.97        24.80361
536.41        24.78118
536.85        24.75368
537.28         24.7219
537.72        24.69685
538.16        24.69284
538.60        24.71511
539.04        24.76715
539.47        24.82984
539.91        24.88834
540.35        24.93106
540.79        24.96419
541.22        24.99914
541.66        25.05642
542.10        25.13826
542.54        25.24024
542.97        25.33798
543.41        25.40838
543.85        25.44668
544.29         25.4678
544.72        25.49855
545.16        25.59809
545.60        25.76815
546.04        25.98575
546.47        26.22393
546.91        26.43512
547.35        26.59939
547.79        26.74199
548.22        26.85487
548.66        26.91891
549.10        26.95822
549.53        27.07218
549.97        27.26241
550.41        27.43853
550.84        27.59455
551.28        27.79254
551.72        28.01104
552.15         28.1801
552.59        28.29726
553.03         28.3714
553.46        28.42905
553.90        28.53456
554.34        28.69318
554.77        28.89528
555.21        29.09682
555.65        29.22857
556.08        29.24816
556.52        29.24708
556.96        29.24974
557.39        29.33463
557.83        29.49071
558.27        29.57283
558.70        29.58156
559.14        29.62858
559.57        29.70735
560.01        29.79045
560.45         29.8575
560.88        29.86089
561.32        29.86103
561.75        29.93544
562.19        30.08417
562.63         30.2905
563.06        30.47478
563.50        30.41355
563.93        30.17385
564.37        30.12963
564.80        30.29618
565.24        30.48746
565.68        30.66153
566.11        30.82624
566.55        30.97403
566.98        31.11436
567.42        31.24646
567.85        31.31018
568.29        31.35542
568.72        31.40917
569.16        31.48749
569.60        31.69256
570.03        32.05067
570.47        32.09983
570.90        32.17922
571.34        32.92233
571.77         32.7832
572.21        32.73956
572.64        33.04348
573.08         32.8772
573.51        33.04692
573.95        33.20351
574.38        33.46564
574.82        33.33895
575.25        33.47739
575.69        33.31863
576.12        33.33804
576.56        33.62205
576.99        34.08397
577.42        33.72049
577.86        33.62578
578.29        33.95339
578.73        33.81961
579.16        33.84622
579.60        33.64377
580.03        33.50562
580.47        33.43998
580.90        33.37562
581.33        33.34083
581.77        33.35648
582.20        33.14517
582.64        32.88812
583.07        32.83212
583.51        32.68471
583.94        32.63878
584.37        32.55069
584.81        32.43658
585.24        32.32881
585.68        32.27169
586.11        32.13821
586.54        31.93957
586.98        31.97661
587.41        32.09141
587.85         31.8679
588.28         31.6745
588.71        31.76612
589.15        31.99841
589.58        31.45957
590.01        31.85048
590.45        31.89646
590.88        31.33503
591.31        31.30301
591.75        31.55713
592.18        31.59385
592.61        31.45763
593.05        31.62912
593.48        32.18884
593.91        31.63486
594.35        31.97038
594.78        31.87966
595.21        31.97954
595.65        32.12347
596.08        32.27328
596.51        32.53778
596.94        32.43024
597.38        32.67204
597.81        33.17475
598.24        33.08808
598.68        33.75546
599.11        33.87849
599.54        33.88739
599.97        34.02736
600.41        34.83815
600.84        35.22973
601.27        35.33098
601.70        35.63599
602.14         35.8063
602.57        36.32161
603.00        36.67855
603.43        37.06852
603.87        37.57108
604.30        37.83678
604.73        38.43318
605.16        38.85317
605.60        39.33548
606.03        39.83782
606.46        40.34307
606.89        40.63354
607.32        40.89114
607.76        41.59645
608.19        41.63186
608.62        41.92632
609.05        42.18827
609.48        42.60303
609.92        43.09013
610.35        43.39444
610.78        43.54772
611.21        43.58443
611.64        44.27853
612.07        44.60579
612.50        44.77656
612.94        45.08386
613.37        45.57872
613.80        45.68999
614.23        46.19772
614.66        46.41889
615.09        46.59705
615.52        46.92197
615.96        47.40087
616.39        47.40578
616.82        47.70777
617.25        47.91832
617.68        48.04881
618.11        48.21297
618.54        48.39236
618.97        48.67175
619.40        48.97096
619.84        49.43032
620.27        49.49095
620.70        49.58645
621.13        49.52497
621.56        49.89095
621.99        49.90018
622.42        49.84652
622.85        49.91101
623.28        50.38568
623.71        50.25513
624.14         49.8922
624.57        50.15771
625.00        50.47333
625.43        50.00512
625.86        49.96262
626.29        50.03938
626.72        49.81178
627.15        49.73469
627.58        49.61694
628.01         49.6591
628.44        49.18008
628.87        48.87629
629.30        48.92105
629.73        48.32409
630.16        47.59614
630.59        47.66946
631.02        47.54747
631.45        47.50008
631.88        47.33304
632.31        47.03044
632.74        46.51657
633.17        46.08622
633.60        45.57756
634.03        45.09325
634.46        44.61766
634.89         44.1617
635.32        43.73058
635.75        43.32279
636.18        42.96801
636.61        42.64104
637.04        42.24447
637.47        41.79024
637.89        41.40353
638.32        41.06622
638.75        40.68906
639.18        40.27822
639.61         39.8985
640.04        39.55075
640.47        39.21369
640.90        38.89179
641.33        38.58011
641.76        38.28978
642.18        38.13136
642.61        37.95686
643.04        37.87499
643.47         37.8254
643.90        37.78357
644.33        37.74031
644.76        37.70694
645.18        37.68845
645.61        37.68723
646.04        37.70908
646.47          37.749
646.90        37.83283
647.33        37.99833
647.75        38.25783
648.18        38.61746
648.61         39.0193
649.04         39.3888
649.47        39.71949
649.89        39.94827
650.32        40.16278
650.75        40.72796
651.18        41.55193
651.61        42.05159
652.03        42.18991
652.46        42.45446
652.89        42.95256
653.32        43.24612
653.74        43.64305
654.17        44.59139
654.60        45.04273
655.03        45.72358
655.46        46.13903
655.88        46.94444
656.31        47.93989
656.74        49.63865
657.16        49.40741
657.59        49.25363
658.02        49.11761
658.45        49.90552
658.87        50.70848
659.30        50.76036
659.73        50.73964
660.15        50.78676
660.58        51.11575
661.01        51.65291
661.44        52.26383
661.86         52.6676
662.29        52.82991
662.72        52.89454
663.14        52.98104
663.57        53.30267
664.00        53.81029
664.42         54.1176
664.85        54.21861
665.27        54.38855
665.70        54.64048
666.13        54.85165
666.55         55.0213
666.98        55.19884
667.41         55.4208
667.83        55.67472
668.26        55.94377
668.69        56.45929
669.11        56.73875
669.54        57.00587
669.96        57.12903
670.39        57.07637
670.82        56.96772
671.24        57.15075
671.67        57.59114
672.09        57.88638
672.52        58.00391
672.94        58.11877
673.37        58.26319
673.80        58.38639
674.22        58.48747
674.65        58.64423
675.07         58.6481
675.50        58.66272
675.92        58.66883
676.35        58.75438
676.77        58.93499
677.20        59.16982
677.62        59.43821
678.05        59.69357
678.47        59.91869
678.90        60.13668
679.32        60.33559
679.75        60.51203
680.17        60.66008
680.60        60.77401
681.02        60.87926
681.45        60.98158
681.87         61.0919
682.30        61.26239
682.72        61.45299
683.15        61.45443
683.57         61.3286
684.00        61.37201
684.42        61.60038
684.85        61.77884
685.27        61.89116
685.70        62.11054
686.12        62.39206
686.54        62.54436
686.97        62.57104
687.39        62.68396
687.82         62.8754
688.24        62.85075
688.66         62.9109
689.09        62.88935
689.51         62.9162
689.94        62.96959
690.36        63.06655
690.78        63.20784
691.21        63.36219
691.63        63.47114
692.06        63.52623
692.48         63.5431
692.90        63.55852
693.33        63.61725
693.75         63.7338
694.17        63.90799
694.60        64.10083
695.02         64.2474
695.44        64.33893
695.87        64.44528
696.29        64.57867
696.71        64.73006
697.14        64.87287
697.56        64.97599
697.98        65.03626
698.41        65.15052
698.83        65.30511
699.25        65.46428
699.68        65.59827
700.10         65.7357
700.52        65.85925
700.94        65.96292
701.37        66.02634
701.79        66.05479
702.21        66.03523
702.64        65.98775
703.06        65.93303
703.48        65.92273
703.90        65.97565
704.33        66.07458
704.75         66.2086
705.17        66.33528
705.59        66.44118
706.01        66.51257
706.44        66.56655
706.86        66.75034
707.28        66.87891
707.70        67.08669
708.12        67.28941
708.55        67.40849
708.97        67.43899
709.39        67.46713
709.81        67.50855
710.23        67.52918
710.66        67.52992
711.08        67.57867
711.50         67.6512
711.92         67.6497
712.34        67.56017
712.76        67.65804
713.19        67.52579
713.61        67.61404
714.03        67.78132
714.45        68.00753
714.87        68.24316
715.29        68.42443
715.71        68.53765
716.13        68.59721
716.56        68.60166
716.98         68.6367
717.40        68.70017
717.82        68.74388
718.24        68.77999
718.66        68.91663
719.08        69.11241
719.50          69.166
719.92        69.10522
720.34        69.14584
720.76        69.29868
721.19        69.43367
721.61        69.53004
722.03        69.57889
722.45        69.57063
722.87        69.50931
723.29        69.44144
723.71        69.42851
724.13        69.46889
724.55        69.61852
724.97        69.86625
725.39        69.91901
725.81        69.70193
726.23        70.21159
726.65        70.00697
727.07        69.89213
727.49        70.25285
727.91        70.43864
728.33        70.62827
728.75         70.7228
729.17        70.71967
729.59        70.63168
730.01        70.50249
730.43        70.40749
730.85         70.3782
731.27        70.42592
731.69        70.52655
732.10        70.61253
732.52        70.65871
732.94         70.7325
733.36        70.83324
733.78         70.8727
734.20         70.8382
734.62        71.05587
735.04         70.8545
735.46        71.05634
735.88        71.35796
736.30         71.3037
736.72        70.96751
737.13        70.83842
737.55        70.93551
737.97        71.21807
738.39        71.55254
738.81        71.36194
739.23        70.80326
739.65         70.9809
740.06        71.73251
740.48        71.98965
740.90        71.68158
741.32        71.47623
741.74        71.35658
742.16        71.31218
742.57        71.35844
742.99         71.4703
743.41         71.5896
743.83        71.85221
744.25        71.84003
744.67        71.87401
745.08        71.89952
745.50        71.99448
745.92        72.18056
746.34        72.42479
746.75        72.64112
747.17        72.70122
747.59        72.58942
748.01            72.3
748.42        71.95518
748.84        71.87712
749.26        72.05102
749.68        72.12212
750.09        72.06754
750.51        72.12108
750.93        72.26208
751.35        72.38377
751.76        72.46573
752.18        72.45987
752.60        72.35195
753.01        72.36678
753.43        72.18867
753.85        72.24726
754.27        72.43735
754.68        72.86764
755.10        73.37977
755.52         73.3888
755.93        73.00835
756.35        73.07595
756.77        73.54855
757.18        73.67666
757.60        73.51736
758.02        73.46242
758.43        73.49883
758.85        73.72195
759.26         74.0518
759.68         73.2304
760.10        73.47141
760.51        72.50128
760.93        73.14089
761.34        73.56686
761.76        73.82376
762.18        73.90146
762.59        73.72376
763.01        73.73831
763.42        73.98409
763.84        74.04327
764.26        73.96446
764.67        73.93979
765.09        74.02575
765.50        74.24745
765.92        74.51825
766.33         74.4323
766.75        74.02211
767.16        73.84714
767.58        73.92225
768.00        74.19382
768.41        74.54729
768.83        74.38711
769.24        73.85173
769.66        73.90948
770.07        74.45589
770.49        74.49776
770.90        74.21696
771.32        74.12831
771.73        74.31404
772.15        74.39298
772.56        74.37537
772.97        74.41903
773.39        74.49831
773.80        74.58506
774.22        74.64918
774.63        74.75387
775.05        74.84761
775.46        74.90326
775.88        74.88676
776.29        74.86562
776.70        74.84104
777.12        74.82101
777.53        74.83331
777.95        74.84398
778.36        74.90809
778.77        75.07171
779.19        75.32853
779.60        75.72914
780.02        76.13076
780.43        76.20184
780.84        75.95732
781.26        75.73949
781.67        75.71328
782.09        75.77908
782.50        75.77913
782.91        76.43281
783.33        75.77828
783.74        75.84753
784.15        76.02904
784.57        76.18266
784.98        76.26495
785.39        76.09261
785.81        75.91451
786.22        76.02451
786.63        76.38607
787.04        76.51898
787.46        76.41032
787.87         76.3062
788.28        76.28549
788.70         76.3364
789.11        76.45266
789.52        76.68013
789.93        76.93707
790.35        76.99863
790.76        76.88519
791.17         76.7836
791.58        76.75537
792.00        76.69024
792.41         76.6247
792.82        76.77654
793.23        77.04614
793.65        76.96931
794.06        76.73454
794.47        76.99083
794.88        77.50421
795.29        78.41904
795.71        77.69518
796.12        77.53442
796.53        77.41806
796.94        77.13969
797.35        76.79134
797.76        76.79622
798.18        77.13718
798.59        77.34625
799.00         77.3908
799.41        77.49796
799.82        77.65482
800.23        77.74818
800.64        77.76865
801.06        77.70889
801.47        77.63663
801.88        77.59489
802.29         77.5985
802.70         77.6272
803.11        77.65945
803.52        77.65934
803.93        77.63037
804.34        77.59607
804.75        77.56683
805.17         77.6133
805.58         77.7908
805.99        77.84409
806.40        77.81275
806.81        78.27637
807.22        78.96083
807.63        78.71581
808.04        77.73676
808.45        77.37715
808.86        77.77121
809.27        78.21017
809.68        78.51223
810.09         78.5897
810.50        78.42432
810.91        78.27345
811.32        78.21989
811.73        78.15357
812.14        78.10403
812.55        78.20605
812.96        78.40067
813.37        78.46532
813.78        78.38256
814.19        78.29542
814.60        78.25118
815.01         78.2428
815.42        78.28812
815.83        78.40918
816.24        78.56325
816.65          78.655
817.05        78.66199
817.46        78.57281
817.87        78.47792
818.28        78.46097
818.69        78.54914
819.10        78.72503
819.51         78.9306
819.92        79.09415
820.33        79.19239
820.74        79.13768
821.14        79.01294
821.55        79.23704
821.96         79.7053
822.37        79.79908
822.78         79.5202
823.19        79.42751
823.60        79.55495
824.00        79.58508
824.41        79.46128
824.82        79.36028
825.23        79.29525
825.64        79.23484
826.04        79.21364
826.45        79.24163
826.86        79.32993
827.27        79.47073
827.68        79.64365
828.08        79.84061
828.49          79.975
828.90        80.08635
829.31        80.15683
829.72        80.16418
830.12        80.13223
830.53        80.01572
830.94        79.87358
831.35        79.76786
831.75        79.74323
832.16        79.74323
832.57        79.76126
832.97        79.73955
833.38        79.65819
833.79        79.54974
834.20        79.45277
834.60        79.41821
835.01         79.4666
835.42         79.5626
835.82        79.70197
836.23        79.79143
836.64        79.83593
837.04        79.88419
837.45         79.8789
837.86        79.83225
838.26        79.76531
838.67         79.6543
839.08        79.58113
839.48        79.66007
839.89        79.90524
840.29        80.28598
840.70        80.68246
841.11        80.90627
841.51        80.93263
841.92        80.76819
842.33         80.5505
842.73        80.50933
843.14         80.6482
843.54        80.92889
843.95        81.22018
844.35        81.33327
844.76        81.21383
845.17        80.94074
845.57        80.62949
845.98         80.4228
846.38        80.39689
846.79        80.47047
847.19        80.61857
847.60        80.74096
848.00        80.82482
848.41        80.86855
848.81        80.88583
849.22         80.8131
849.62        80.69061
850.03        80.50652
850.43        80.33852
850.84        80.22836
851.24        80.24559
851.65        80.31159
852.05        80.48261
852.46        80.70741
852.86        80.94312
853.27        81.20215
853.67        81.33578
854.07         81.3438
854.48         81.1832
854.88        80.88291
855.29        80.47337
855.69        80.13423
856.10        79.86162
856.50        79.71857
856.90        79.65752
857.31         79.6216
857.71         79.6414
858.12         79.6773
858.52        79.78419
858.92        79.91991
859.33        80.04408
859.73         80.1764
860.13        80.25719
860.54        80.22374
860.94        80.10081
861.34        79.87605
861.75        79.54818
862.15        79.17517
862.55        78.76437
862.96         78.3455
863.36         77.9603
863.76        77.65491
864.17        77.43988
864.57        77.31238
864.97        77.29309
865.38        77.38509
865.78        77.61938
866.18        77.97242
866.58        78.29599
866.99        78.34935
867.39        78.11697
867.79        77.62453
868.19        77.10803
868.60        76.89249
869.00        77.02669
869.40         77.4476
869.80         77.9315
870.21        78.06343
870.61        77.81399
871.01        77.28647
871.41        76.69572
871.81        76.33161
872.22        76.23886
872.62        76.34963
873.02        76.62833
873.42        76.99072
873.82        77.36803
874.22        77.78932
874.63        78.17794
875.03        78.38867
875.43         78.4225
875.83        78.28584
876.23        78.11797
876.63        78.17294
877.03        78.49182
877.44         78.9789
877.84        79.44561
878.24        79.53551
878.64         79.1799
879.04        78.53382
879.44        77.79884
879.84        77.24061
880.24         76.9355
880.64        76.81606
881.04        76.84386
881.44        76.95198
881.84        77.09988
882.24        77.29576
882.65        77.49867
883.05        77.73878
883.45        77.95264
883.85        78.11854
884.25        78.18591
884.65        78.10059
885.05         77.8654
885.45        77.49997
885.85        77.10851
886.25        76.87196
886.65        76.84772
887.05        77.00826
887.45        77.23029
887.85        77.31235
888.25        77.20724
888.65        76.96224
889.04        76.70868
889.44        76.70645
889.84        76.98241
890.24         77.4398
890.64        77.88725
891.04        78.03193
891.44        77.81624
891.84        77.35631
892.24        76.82124
892.64        76.47015
893.04        76.38932
893.44        76.50944
893.83         76.7882
894.23         77.0892
894.63        77.37576
895.03        77.65495
895.43        77.91601
895.83        78.13461
896.23        78.29702
896.63        78.40459
897.02        78.40165
897.42        78.26198
897.82        77.99075
898.22        77.62519
898.62        77.30488
899.01         77.2691
899.41        77.54439
899.81        78.06731
900.21        78.67508
900.61        79.09256
901.00        79.21953
901.40        79.13589
901.80         78.9202
902.20        78.72007
902.59        78.59995
902.99        78.50489
903.39        78.42558
903.79        78.33772
904.18        78.23844
904.58        78.17315
904.98        78.15877
905.38         78.2167
905.77        78.33182
906.17        78.48134
906.57        78.64103
906.96        78.79533
907.36        78.90482
907.76        79.01007
908.15        79.06497
908.55        78.92167
908.95        78.60607
909.34        78.12374
909.74        77.71801
910.14        77.71036
910.53        78.15155
910.93        78.92834
911.33        79.71712
911.72        79.96371
912.12        79.54379
912.52        78.68185
912.91        77.72114
913.31        77.17936
913.70        77.16376
914.10        77.51409
914.49        78.07681
914.89        78.49648
915.29        78.66212
915.68        78.66961
916.08         78.6076
916.47        78.60848
916.87         78.7256
917.26        78.87041
917.66        78.99995
918.05        79.02991
918.45        78.93604
918.84        78.78864
919.24        78.61098
919.64        78.51681
920.03        78.55436
920.42        78.68575
920.82        78.87067
921.21        79.03642
921.61        79.13901
922.00        79.19839
922.40        79.24704
922.79         79.4284
923.19        79.71501
923.58        80.09748
923.98        80.37935
924.37        80.32536
924.77        79.89231
925.16        79.14347
925.55        78.34834
925.95        77.96687
926.34        78.12417
926.74        78.68105
927.13        79.36469
927.52        79.63187
927.92        79.38289
928.31        78.76881
928.70        78.10256
929.10        77.84767
929.49        78.12037
929.89        78.75232
930.28        79.53629
930.67        79.98366
931.07        79.93434
931.46        79.55275
931.85        79.06775
932.24         78.8736
932.64        79.05518
933.03        79.47145
933.42        79.90849
933.82        80.02686
934.21        79.75356
934.60        79.22701
934.99        78.62887
935.39        78.22284
935.78        78.14262
936.17        78.29704
936.56        78.62107
936.96        78.98657
937.35        79.36674
937.74         79.7475
938.13        80.08662
938.53        80.33234
938.92        80.47406
939.31        80.49059
939.70        80.40704
940.09        80.28517
940.49         80.1302
940.88        79.98798
941.27         79.8236
941.66        79.57697
942.05        79.25836
942.44        78.91586
942.84        78.65797
943.23        78.59919
943.62        78.78534
944.01        79.15878
944.40        79.62116
944.79        79.99268
945.18        80.19128
945.57        80.24699
945.97        80.14326
946.36        79.93995
946.75        79.63499
947.14        79.21023
947.53        78.74602
947.92        78.39156
948.31        78.19992
948.70        78.17305
949.09        78.20281
949.48        78.09708
949.87         77.8251
950.26        77.44662
950.65        77.12737
951.04        77.12794
951.43        77.50234
951.82        78.17166
952.21        78.92307
952.60        79.39197
952.99        79.46214
953.38        79.21394
953.77        78.86601
954.16        78.76525
954.55        78.98397
954.94        79.41358
955.33        79.82642
955.72        79.85363
956.11        79.40119
956.50        78.58443
956.89        77.66412
957.28        77.07986
957.66        77.01488
958.05        77.36604
958.44        77.89041
958.83         78.1785
959.22        78.12001
959.61        77.79287
960.00        77.50205
960.39        77.73365
960.78        78.55311
961.16        79.82048
961.55        80.97545
961.94        81.18494
962.33        80.27792
962.72        78.60495
963.11         76.7863
963.49        75.72016
963.88        75.62329
964.27        76.21721
964.66        77.20224
965.04        78.04279
965.43        78.41262
965.82        78.52456
966.21        78.40037
966.60        78.07306
966.98         77.5991
967.37        76.87215
967.76        76.07223
968.15        75.56003
968.53         75.4832
968.92        75.81761
969.31        76.32615
969.69         76.5851
970.08        76.49254
970.47        76.15189
970.86        75.90099
971.24        76.33809
971.63        77.45978
972.02        78.98847
972.40        80.46141
972.79        81.14328
973.17        81.00368
973.56        80.21626
973.95         79.1507
974.33        78.42618
974.72        78.26226
975.11        78.48298
975.49        78.91509
975.88        79.28507
976.26        79.49312
976.65        79.61859
977.04        79.65291
977.42        79.54436
977.81        79.24554
978.19        78.73102
978.58        78.22072
978.96        78.09122
979.35        78.38687
979.74         79.0406
980.12        79.80605
980.51        80.02932
980.89        79.69238
981.28        78.90913
981.66        78.01187
982.05        77.62175
982.43        77.91932
982.82        78.63156
983.20        79.58659
983.59        80.35625
983.97        80.88483
984.35        81.24763
984.74        81.34483
985.12        81.00951
985.51        80.27614
985.89        79.26344
986.28        78.31183
986.66        77.98108
987.04        78.32719
987.43        79.14808
987.81        80.19508
988.20        80.89938
988.58        81.11515
988.96         81.0024
989.35        80.55715
989.73        79.87909
990.12        78.98223
990.50        77.75743
990.88        76.55392
991.27        76.20561
991.65        76.94048
992.03        78.50913
992.42        80.02029
992.80        80.58604
993.18        79.96832
993.56        78.32668
993.95        76.22401
994.33        75.10908
994.71        75.65639
995.10         77.1725
995.48           78.85
995.86        79.80737
996.24        79.96628
996.63        79.58158
997.01        78.95093
997.39        78.54998
997.77          78.603
998.15        78.88496
998.54        79.21389
998.92        79.39024
999.30          79.352
999.68        79.24749
1000.06        79.06223
1000.45        78.69389
1000.83        78.23607
1001.21        77.61884
1001.59        77.10858
1001.97        77.08923
1002.35        77.64301
1002.73        78.81696
1003.12        80.07669
1003.50        80.19166
1003.88        78.94373
1004.26        76.75851
1004.64         74.8212
1005.02        74.63591
1005.40        76.36046
1005.78        79.58504
1006.16        83.14406
1006.54        84.89818
1006.92        84.20191
1007.30        81.64957
1007.69        78.60028
1008.07        77.26709
1008.45        78.30428
1008.83        80.93924
1009.21        83.92863
1009.59        85.52567
1009.97         85.2407
1010.35        83.44861
1010.73        80.80798
1011.11        79.03215
1011.49        79.00607
1011.86        80.30196
1012.24        81.83975
1012.62         82.3652
1013.00        81.64344
1013.38         80.2182
1013.76        78.69877
1014.14        78.02881
1014.52        78.53096
1014.90        79.86381
1015.28        81.77475
1015.66        83.73473
1016.04        85.35991
1016.41        86.80653
1016.79        87.67648
1017.17        87.81899
1017.55        87.27468
1017.93        86.08036
1018.31        84.69843
1018.69        83.86523
1019.06        83.85505
1019.44        84.63935
1019.82        85.79999
1020.20        86.36538
1020.58        86.02142
1020.95        84.96426
1021.33        84.02978
1021.71        84.25669
1022.09        85.72515
1022.46        88.06345
1022.84         90.3679
1023.22        90.89149
1023.60        89.00038
1023.97        84.74687
1024.35        79.29827
1024.73        75.41108
