SpectraSmart Spectrum 2.9.0.0
--------- Device Information -----------
Spectrum Name :  反射率_0
Saving Time :  2024/04/27 22:45:39
Spectro-Module Model Name : SE2030-DUVN
Spectro-Module Serial Number : OS361AC55029948
Wavelength Start : 200
Wavelength End : 1025
Wavelength Unit : Wavelength(nm)
Spectrum Unit : Reflectance(%)
-----------Spectrum Setting ------------
Integration Time : 20ms
Average : 10
Boxcar : 0
Background removal :  enabled
linearity correction :  enabled
SC :  disabled
Intensity correction :  disabled
DWT denoise :  enabled
savitzky-golay :  disabled
FFT :  disabled
Running average :  disabled
Kalman :  disabled
High pass :  disabled
---------------BEGIN--------------------
Wavelength(nm)             Reflectance(%)
200.29               0
200.75       -54.39919
201.21       -25.96945
201.67        4.170622
202.13        20.17091
202.58        26.43456
203.04        28.66051
203.50        31.65475
203.96        40.29896
204.42        52.93535
204.88        65.79433
205.34        75.58961
205.80        80.08262
206.26        79.32014
206.72         72.8038
207.18         59.3659
207.64        46.33866
208.10        43.43214
208.55        48.28307
209.01        51.52751
209.47        48.18006
209.93        35.48996
210.39        1.360774
210.85       -102.5658
211.31       -230.4671
211.77         -80.991
212.23        17.96458
212.69        53.09706
213.14        64.34995
213.60        64.92509
214.06        58.41758
214.52        43.62981
214.98        30.72862
215.44        32.78388
215.90         40.9946
216.36        48.12912
216.81        51.81714
217.27        52.70489
217.73        52.45319
218.19        51.40479
218.65        49.53125
219.11        47.13521
219.57        44.47368
220.02        41.27639
220.48        38.86499
220.94        37.69444
221.40        37.26312
221.86        39.28006
222.32        45.42667
222.77        54.42057
223.23         64.5052
223.69        72.27132
224.15        74.03711
224.61        69.97149
225.06        61.25518
225.52        51.57876
225.98        47.98018
226.44         51.2723
226.90        57.43784
227.36        62.77226
227.81        64.40968
228.27        62.61192
228.73        58.52253
229.19        53.21794
229.65        49.03193
230.10        47.03607
230.56        46.73986
231.02        47.37865
231.48        48.02648
231.93        48.27734
232.39        48.53448
232.85        48.88712
233.31        49.42443
233.77        50.15234
234.22        51.06212
234.68        51.76063
235.14        51.87972
235.60        51.39912
236.05        50.27679
236.51        49.34747
236.97        50.27534
237.43        53.46475
237.88         58.4418
238.34        63.20562
238.80         65.9153
239.26        66.14767
239.71        63.59459
240.17        58.07294
240.63        54.01951
241.08        55.97646
241.54        61.15179
242.00        65.39245
242.46        66.42304
242.91        64.17493
243.37        57.42356
243.83        42.44812
244.28        21.56825
244.74        16.27713
245.20         29.8933
245.66        43.24254
246.11         46.2981
246.57         40.1277
247.03          25.648
247.48        2.938839
247.94       -11.38002
248.40       -1.009823
248.85        22.44093
249.31        46.64796
249.77        62.93259
250.22        71.08733
250.68        74.81115
251.14         75.3881
251.59        73.39793
252.05        69.09886
252.51         61.0347
252.96        49.63879
253.42         42.7256
253.88         44.9238
254.33        52.80595
254.79        60.03895
255.25        62.24833
255.70        60.52628
256.16        57.53217
256.62        55.35983
257.07        56.15575
257.53         59.3568
257.99        62.88158
258.44        65.21882
258.90        65.54758
259.35        63.92263
259.81        61.61642
260.27        59.10157
260.72        56.94221
261.18        55.60097
261.63        54.57055
262.09        53.93837
262.55        53.44708
263.00         52.9469
263.46        52.60962
263.91        52.30949
264.37        52.20039
264.83        52.17834
265.28        52.15331
265.74        52.08348
266.19        51.71258
266.65        51.11614
267.11        50.33084
267.56        49.49332
268.02        48.92537
268.47         48.6362
268.93        48.53501
269.38        48.47974
269.84        48.28029
270.30        47.86237
270.75        47.28636
271.21        46.56132
271.66         45.6475
272.12        44.60881
272.57        43.44163
273.03        42.31754
273.48        41.41369
273.94        40.81964
274.39        40.42419
274.85         40.1616
275.31        39.83262
275.76        39.36044
276.22        38.83717
276.67        38.23365
277.13        37.62776
277.58        36.98748
278.04        36.35209
278.49        35.69247
278.95        35.10073
279.40        34.53295
279.86        34.04086
280.31        33.56804
280.77        33.15919
281.22        32.76715
281.68        32.43898
282.13        32.12203
282.59        31.80527
283.04        31.46169
283.50        31.11579
283.95        30.78581
284.41        30.55385
284.86        30.40553
285.32        30.32981
285.77        30.25494
286.22          30.121
286.68        29.93091
287.13         29.6777
287.59        29.41415
288.04        29.13981
288.50        28.89811
288.95         28.6526
289.41        28.44637
289.86        28.29105
290.32        28.20862
290.77        28.18958
291.22         28.1957
291.68        28.15934
292.13        28.06102
292.59        27.93098
293.04        27.84129
293.50        27.93398
293.95        28.21905
294.40        28.66352
294.86        29.14987
295.31        29.48494
295.77        29.63889
296.22        29.65563
296.68        29.67874
297.13        29.91389
297.58        30.40485
298.04        31.07031
298.49        31.75813
298.95        32.25959
299.40        32.52423
299.85        32.62373
300.31         32.6882
300.76        32.88399
301.21        33.25932
301.67        33.75059
302.12        34.23705
302.58         34.5854
303.03        34.74821
303.48        34.79126
303.94        34.81148
304.39        34.90098
304.84        35.10018
305.30        35.37595
305.75        35.64692
306.20        35.83348
306.66        35.92707
307.11        35.92805
307.57        35.90879
308.02         35.9142
308.47        35.96913
308.93        36.04819
309.38        36.08617
309.83        36.01207
310.29        35.82704
310.74        35.55629
311.19        35.25755
311.65        35.01639
312.10        34.84343
312.55        34.71777
313.00        34.63684
313.46        34.59641
313.91        34.57617
314.36        34.57855
314.82        34.54501
315.27        34.37664
315.72        34.06518
316.18        33.65299
316.63         33.2208
317.08        32.92091
317.53        32.78958
317.99          32.777
318.44        32.82697
318.89        32.82902
319.35        32.74506
319.80        32.60796
320.25        32.43049
320.70        32.23919
321.16        32.03952
321.61        31.82301
322.06         31.5979
322.51        31.38671
322.97        31.19248
323.42        31.03265
323.87        30.88014
324.32        30.69259
324.78        30.45979
325.23        30.19518
325.68        29.94378
326.13        29.78815
326.59        29.72683
327.04        29.74822
327.49        29.75986
327.94        29.62104
328.39        29.29651
328.85        28.82278
329.30         28.2933
329.75        27.86054
330.20        27.58628
330.66        27.43036
331.11        27.35872
331.56        27.25955
332.01        27.09887
332.46        26.90619
332.92        26.72158
333.37        26.63838
333.82        26.66315
334.27        26.75184
334.72        26.83643
335.17        26.81487
335.63         26.6549
336.08        26.41201
336.53        26.12172
336.98        25.85525
337.43        25.65007
337.88          25.493
338.34        25.40687
338.79         25.4289
339.24        25.55184
339.69        25.75676
340.14        25.97694
340.59        26.10206
341.05        26.09953
341.50        26.00026
341.95        25.83209
342.40        25.65603
342.85          25.499
343.30        25.34484
343.75        25.21289
344.20        25.13339
344.66        25.11103
345.11        25.13929
345.56        25.17695
346.01        25.14954
346.46        25.04105
346.91        24.87112
347.36        24.68956
347.81        24.57238
348.26        24.54172
348.72        24.58319
349.17        24.65011
349.62        24.66835
350.07        24.61671
350.52        24.50218
350.97        24.39792
351.42        24.41977
351.87         24.5787
352.32         24.8357
352.77        25.04947
353.22        25.00774
353.67        24.68153
354.13        24.15677
354.58        23.59552
355.03        23.30843
355.48        23.36664
355.93         23.6778
356.38        24.05795
356.83        24.21737
357.28        24.08504
357.73        23.75379
358.18        23.36472
358.63        23.13551
359.08        23.11838
359.53        23.23322
359.98        23.37563
360.43        23.39042
360.88        23.23701
361.33        22.96856
361.78        22.65132
362.23        22.42191
362.68         22.3211
363.13         22.2415
363.58        22.11749
364.03        22.20705
364.48          21.913
364.93        21.72905
365.38        21.52964
365.83        21.39876
366.28         21.3462
366.73        21.35038
367.18        21.36796
367.63         21.3168
368.08        21.18002
368.53        20.98472
368.98        20.77276
369.43        20.61047
369.88        20.51748
370.33        20.47212
370.78        20.44668
371.23        20.39956
371.68        20.31083
372.13        20.18398
372.58        20.03494
373.03        19.88676
373.48        19.75129
373.93        19.63872
374.38        19.51284
374.83        19.31647
375.28        19.05048
375.72        18.72221
376.17        18.45831
376.62        18.41489
377.07        18.60253
377.52        18.95139
377.97        19.29631
378.42        19.38005
378.87        19.15503
379.32        18.71952
379.77        18.21397
380.22        17.85174
380.67        17.69269
381.11         17.6676
381.56        17.73299
382.01        17.81554
382.46         17.8773
382.91        17.94427
383.36        17.97869
383.81         17.9166
384.26        17.75294
384.71        17.49881
385.15        17.21486
385.60        17.03573
386.05         16.9816
386.50        17.02596
386.95          17.109
387.40        17.13104
387.85          17.073
388.29        16.96107
388.74        16.86488
389.19        16.84411
389.64        16.90333
390.09        16.99921
390.54         17.0953
390.98        17.13491
391.43        17.10743
391.88        17.03926
392.33        16.91717
392.78        16.74838
393.23        16.55579
393.67        16.27249
394.12        15.98365
394.57        15.99352
395.02        16.02601
395.47        16.02635
395.91        15.91312
396.36        15.86759
396.81        15.88911
397.26        15.86871
397.71        15.80091
398.15        15.73823
398.60         15.7009
399.05        15.61072
399.50        15.50792
399.95        15.55063
400.39        15.69314
400.84        15.69552
401.29         15.5492
401.74        15.39495
402.18         15.2779
402.63        15.22979
403.08        15.24534
403.53        15.22982
403.97        15.18235
404.42          15.189
404.87        15.23104
405.32        15.24716
405.76        15.22791
406.21        15.15143
406.66        15.05746
407.11        15.08144
407.55        15.19182
408.00        15.21072
408.45        15.11687
408.90        14.93013
409.34         14.7202
409.79         14.6901
410.24        14.80302
410.68        14.80649
411.13        14.68657
411.58        14.60124
412.03        14.57649
412.47        14.58031
412.92          14.608
413.37        14.67073
413.81        14.73365
414.26        14.75608
414.71        14.72568
415.15        14.65317
415.60        14.56281
416.05        14.50525
416.49        14.49712
416.94         14.5208
417.39        14.55225
417.83        14.55567
418.28        14.51557
418.73        14.43731
419.17        14.34632
419.62        14.28471
420.07        14.26957
420.51        14.29949
420.96        14.33102
421.41        14.31495
421.85        14.24058
422.30        14.05842
422.74        13.86749
423.19        13.98832
423.64        14.36844
424.08        14.60873
424.53        14.59174
424.98        14.54961
425.42        14.47887
425.87        14.13246
426.31        13.65928
426.76        13.58182
427.21        13.85394
427.65        13.94473
428.10        13.83732
428.54        13.86131
428.99        14.00109
429.44        14.19209
429.88        14.32632
430.33        14.06609
430.77        13.57566
431.22        13.46031
431.66         13.7142
432.11        13.91562
432.56        13.99822
433.00        14.05377
433.45        13.96449
433.89        13.73069
434.34        13.58372
434.78        12.91144
435.23        13.37204
435.67        13.79748
436.12        14.01331
436.57        14.08732
437.01        13.91491
437.46        13.80377
437.90        13.83294
438.35        13.91084
438.79        13.61541
439.24        13.52949
439.68        13.54425
440.13        13.61276
440.57        13.68431
441.02        13.79914
441.46         13.9045
441.91        13.70605
442.35        13.35213
442.80        13.47427
443.24          13.957
443.69        13.99584
444.13        13.59975
444.58        13.43289
445.02        13.49591
445.47        13.44364
445.91        13.27619
446.36        13.17996
446.80        13.16181
447.24        13.16725
447.69         13.1989
448.13         13.2971
448.58        13.43527
449.02        13.53461
449.47        13.59019
449.91        13.65833
450.36        13.73675
450.80        13.77819
451.25        13.77892
451.69        13.75909
452.13        13.71785
452.58        13.64012
453.02        13.54132
453.47        13.45333
453.91        13.38344
454.36        13.35013
454.80        13.32325
455.24        13.23739
455.69        13.11985
456.13        13.00435
456.58        12.93356
457.02        13.01731
457.46        13.18333
457.91        13.18555
458.35        13.08467
458.79        13.05765
459.24        13.12399
459.68        13.15967
460.13        13.16774
460.57        13.13214
461.01        13.11317
461.46        13.12326
461.90        13.09656
462.34        13.07358
462.79        13.25474
463.23        13.28202
463.68        13.22568
464.12        13.16965
464.56        13.13375
465.01        13.15321
465.45        13.17079
465.89        13.09767
466.34        12.97821
466.78         12.8795
467.22        12.80853
467.67         13.0456
468.11        13.00691
468.55        13.01675
468.99        12.92101
469.44        12.88152
469.88        12.90071
470.32         12.8818
470.77        12.83966
471.21        12.83845
471.65        12.88633
472.10        12.96691
472.54        13.05174
472.98        13.11524
473.42        13.15281
473.87        13.13466
474.31        13.09144
474.75        13.19515
475.20        13.40385
475.64        13.45401
476.08        13.34545
476.52        13.33098
476.97        13.42692
477.41        13.37937
477.85        13.32276
478.29        13.39512
478.74        13.34243
479.18        13.25133
479.62        13.48514
480.06        13.55017
480.50        13.58564
480.95        13.58897
481.39        13.54378
481.83        13.72083
482.27         13.7078
482.72        13.61861
483.16        13.77026
483.60        13.78902
484.04        13.77477
484.48        13.84768
484.93        14.12337
485.37        14.01688
485.81        14.10794
486.25        14.67457
486.69        14.40011
487.14        13.86779
487.58        14.87785
488.02        14.57863
488.46        14.65635
488.90        14.95805
489.34          14.318
489.79        14.15172
490.23        14.58713
490.67        14.92875
491.11        15.21106
491.55        15.21522
491.99        15.02538
492.43        15.04328
492.88        15.29143
493.32         15.4796
493.76        15.57836
494.20        15.72834
494.64        15.93787
495.08        16.11911
495.52        16.25925
495.96         16.4794
496.41        16.76499
496.85        16.67509
497.29        16.36205
497.73        16.49759
498.17        17.02007
498.61        17.34852
499.05        17.37245
499.49         17.3525
499.93        17.33543
500.37        17.28214
500.82        17.23555
501.26        17.30454
501.70        17.51491
502.14         17.4738
502.58         17.7723
503.02        17.89741
503.46        17.94394
503.90        17.95342
504.34        17.93067
504.78        17.94041
505.22        17.98718
505.66        18.02048
506.10         18.0504
506.54        18.14378
506.98        18.30352
507.42         18.4222
507.86        18.61047
508.30        18.69728
508.74        18.71498
509.18         18.6768
509.62        18.61958
510.06        18.60219
510.50        18.64098
510.94          18.719
511.38        18.81908
511.82        18.91352
512.26        18.98964
512.70        19.05574
513.14        19.10881
513.58        19.13496
514.02        19.13398
514.46        19.12288
514.90        19.11378
515.34        19.06108
515.78        19.08137
516.22         19.0825
516.66        19.10154
517.10        19.14042
517.54        19.19618
517.98        19.26423
518.42        19.32411
518.86        19.34582
519.30        19.32318
519.74        19.26555
520.18        19.19343
520.62        19.13965
521.06        19.11472
521.50        19.11133
521.93        19.12103
522.37        19.12097
522.81        19.10658
523.25        19.08013
523.69        19.04812
524.13        19.02051
524.57        18.99715
525.01         18.9733
525.45        18.93352
525.89        18.85395
526.32        18.73196
526.76        18.58901
527.20        18.44888
527.64        18.35138
528.08        18.30616
528.52        18.29638
528.96         18.3125
529.40        18.33881
529.83        18.36306
530.27        18.38892
530.71        18.39195
531.15        18.33466
531.59        18.21607
532.03        18.05029
532.46        17.87895
532.90        17.78231
533.34        17.77485
533.78        17.83407
534.22        17.92276
534.66        17.98199
535.09        17.99318
535.53         17.9766
535.97        17.94523
536.41         17.9222
536.85        17.91607
537.28        17.91871
537.72        17.92803
538.16        17.94017
538.60        17.95569
539.04        17.98352
539.47        18.02044
539.91        18.07041
540.35        18.12879
540.79        18.19682
541.22        18.27251
541.66        18.35391
542.10        18.43891
542.54        18.52812
542.97          18.616
543.41        18.70629
543.85        18.79621
544.29        18.88486
544.72        18.97524
545.16        19.08758
545.60        19.21902
546.04        19.36606
546.47        19.51571
546.91        19.64764
547.35         19.7575
547.79        19.84364
548.22        19.91974
548.66        20.04508
549.10        20.21613
549.53        20.40373
549.97        20.59684
550.41        20.78726
550.84         20.9655
551.28        21.13429
551.72        21.28534
552.15         21.4052
552.59        21.50048
553.03        21.56702
553.46        21.63041
553.90        21.74787
554.34        21.92222
554.77        22.14466
555.21        22.36775
555.65        22.51352
556.08        22.54376
556.52        22.53757
556.96        22.52519
557.39        22.58462
557.83        22.71424
558.27        22.79816
558.70        22.83487
559.14        22.90648
559.57        23.00219
560.01        23.10016
560.45        23.18263
560.88        23.19718
561.32        23.18808
561.75        23.25625
562.19        23.39332
562.63        23.49322
563.06        23.53502
563.50        23.53523
563.93        23.51546
564.37        23.55707
564.80        23.65999
565.24        23.80139
565.68         23.9596
566.11        24.08784
566.55         24.1916
566.98         24.3347
567.42        24.50432
567.85        24.57712
568.29        24.59822
568.72        24.66655
569.16        24.79482
569.60        24.98086
570.03        25.24113
570.47          25.307
570.90        25.46893
571.34        25.94851
571.77        26.00386
572.21        26.02982
572.64        26.35728
573.08        26.25272
573.51        26.48158
573.95        26.61776
574.38        26.76531
574.82        26.73694
575.25        26.62046
575.69        26.59252
576.12        26.70632
576.56        27.15052
576.99        27.05931
577.42        26.88402
577.86        26.96041
578.29        27.32395
578.73        26.91717
579.16         26.8988
579.60        26.85801
580.03         26.8085
580.47        26.74899
580.90         26.5533
581.33        26.62537
581.77        26.60245
582.20        26.25965
582.64        25.96339
583.07        26.13831
583.51        26.03176
583.94        25.86551
584.37        25.70942
584.81        25.60718
585.24        25.52383
585.68        25.51339
586.11        25.25866
586.54        25.18093
586.98         25.1478
587.41        25.22974
587.85        24.72668
588.28        24.78552
588.71        25.03685
589.15        24.96109
589.58         24.6683
590.01        24.98766
590.45        24.99267
590.88        24.40005
591.31        24.37308
591.75         24.6977
592.18        24.73661
592.61        24.52334
593.05        24.79472
593.48        24.96382
593.91        24.99813
594.35        24.84683
594.78        24.98473
595.21        25.01511
595.65        25.16903
596.08        25.28255
596.51        25.55038
596.94         25.5371
597.38          25.814
597.81        26.31336
598.24        26.22978
598.68         26.6407
599.11        27.11816
599.54        27.35451
599.97          27.345
600.41        28.04597
600.84         28.3463
601.27        28.55431
601.70        28.88299
602.14        29.06353
602.57        29.56853
603.00        29.95867
603.43        30.31568
603.87         30.7214
604.30        30.93254
604.73        31.39963
605.16        31.92861
605.60        32.17353
606.03        32.63763
606.46        33.15347
606.89        33.37889
607.32        33.99046
607.76        34.33525
608.19        34.58393
608.62        34.78537
609.05        35.00829
609.48        35.32156
609.92        35.68542
610.35        36.00799
610.78         36.4101
611.21        36.30502
611.64        37.02561
612.07        37.25724
612.50        37.38277
612.94         37.6228
613.37        38.03252
613.80        38.09365
614.23        38.47091
614.66        38.72636
615.09          39.022
615.52        39.30932
615.96        39.61448
616.39        39.59308
616.82        39.94788
617.25        40.21854
617.68        40.33686
618.11        40.55525
618.54        40.79737
618.97        41.00185
619.40        41.13922
619.84        41.46244
620.27        41.58034
620.70        41.77174
621.13        41.83062
621.56        42.11898
621.99        41.66307
622.42        41.80112
622.85        41.84767
623.28        42.20778
623.71        42.24464
624.14        41.89461
624.57        42.17701
625.00        42.10881
625.43         42.0439
625.86        42.03351
626.29        42.07576
626.72        41.95156
627.15        41.78206
627.58        41.60316
628.01        41.53537
628.44        41.07756
628.87        40.82801
629.30        40.96523
629.73         40.5771
630.16        39.97875
630.59        39.92651
631.02        39.63162
631.45        39.37229
631.88        39.08714
632.31        38.79477
632.74        38.31017
633.17        38.01799
633.60         37.6244
634.03        37.24438
634.46        36.87149
634.89        36.49558
635.32        36.08505
635.75        35.63604
636.18        35.18491
636.61        34.75147
637.04        34.32383
637.47        33.92878
637.89        33.65121
638.32        33.44395
638.75        33.17899
639.18        32.84197
639.61         32.4986
640.04        32.16668
640.47          31.857
640.90        31.58065
641.33        31.32335
641.76        31.07775
642.18        30.90964
642.61         30.6965
643.04        30.53878
643.47        30.41321
643.90          30.338
644.33        30.31562
644.76        30.34445
645.18        30.40372
645.61         30.4574
646.04        30.49644
646.47        30.52105
646.90          30.574
647.33        30.72298
647.75        30.98998
648.18        31.37304
648.61        31.78797
649.04         32.1389
649.47        32.41975
649.89        32.52693
650.32        32.59723
650.75        33.20151
651.18        34.20564
651.61        34.71023
652.03        34.68964
652.46         34.9452
652.89        35.58765
653.32        35.92901
653.74        36.18688
654.17        37.17262
654.60        37.48906
655.03         37.8553
655.46        38.52124
655.88        39.22341
656.31        40.51797
656.74         42.4027
657.16        42.50434
657.59        42.83686
658.02        41.73333
658.45        41.63824
658.87        41.95083
659.30        42.68024
659.73        42.38418
660.15         42.6979
660.58        42.90723
661.01        43.46237
661.44        44.12499
661.86        44.39172
662.29        44.30356
662.72        44.33202
663.14        44.56301
663.57        44.82931
664.00        45.10168
664.42        45.32224
664.85         45.4898
665.27        45.68898
665.70        45.91082
666.13        46.08714
666.55        46.21685
666.98        46.31916
667.41        46.42778
667.83        46.58894
668.26         46.8029
668.69        47.06763
669.11        47.34999
669.54        47.52917
669.96        47.58477
670.39        47.63475
670.82        47.78457
671.24        47.57023
671.67        48.15445
672.09        48.25765
672.52        48.25034
672.94        48.36807
673.37        48.60461
673.80        48.71424
674.22        48.70706
674.65        48.75165
675.07        48.87099
675.50        48.97935
675.92        49.07079
676.35        49.15375
676.77        49.23127
677.20        49.30806
677.62        49.39988
678.05        49.51393
678.47        49.65216
678.90        49.81792
679.32        49.99946
679.75        50.18699
680.17        50.36943
680.60        50.55315
681.02        50.71979
681.45        50.81575
681.87        50.85379
682.30        50.85855
682.72        50.86441
683.15        50.93314
683.57        51.06899
684.00        51.15915
684.42        51.22647
684.85        51.39756
685.27        51.66545
685.70        51.94989
686.12        52.17575
686.54        52.35727
686.97        52.48807
687.39        52.40936
687.82        52.13608
688.24        52.41649
688.66        52.43087
689.09         52.3994
689.51        52.77887
689.94        52.90124
690.36         52.9766
690.78        52.96125
691.21        52.92604
691.63        53.06686
692.06         53.3296
692.48        53.38938
692.90        53.26948
693.33        53.26306
693.75        53.38921
694.17        53.49902
694.60        53.56309
695.02         53.6288
695.44        53.70271
695.87         53.7578
696.29        53.83506
696.71        54.09262
697.14        54.45461
697.56        54.61285
697.98        54.56014
698.41        54.60672
698.83        54.74576
699.25        54.80858
699.68        54.79823
700.10        54.85978
700.52        54.99492
700.94        55.16639
701.37        55.32625
701.79        55.42496
702.21        55.43304
702.64        55.38469
703.06        55.31493
703.48        55.29163
703.90        55.34134
704.33        55.44542
704.75        55.58494
705.17        55.70957
705.59        55.80256
706.01        55.85279
706.44        55.89738
706.86        56.08689
707.28        56.26525
707.70        56.55822
708.12        56.84321
708.55        56.91978
708.97        56.79634
709.39        56.70941
709.81        56.71563
710.23        56.70274
710.66        56.68106
711.08        56.92501
711.50        57.05861
711.92        57.21083
712.34        57.26722
712.76        57.27409
713.19        57.25982
713.61        57.31528
714.03        57.44504
714.45        57.61356
714.87        57.78944
715.29        57.93086
715.71        58.02309
716.13         58.0782
716.56        58.09251
716.98        58.12001
717.40        58.15415
717.82        58.19355
718.24        58.23252
718.66        58.26366
719.08        58.28584
719.50        58.29737
719.92        58.32372
720.34        58.40323
720.76         58.5369
721.19        58.70576
721.61        58.86213
722.03        58.90133
722.45        58.80768
722.87        58.61638
723.29        58.41463
723.71        58.34378
724.13        58.44306
724.55        58.67424
724.97        58.96603
725.39        59.19913
725.81        59.33207
726.23        59.39056
726.65        59.41917
727.07        59.49049
727.49        59.62287
727.91        59.79215
728.33        59.94421
728.75        59.99633
729.17        59.93515
729.59        59.78498
730.01        59.60926
730.43        59.58115
730.85        59.73839
731.27        59.89533
731.69        59.93884
732.10        60.41306
732.52        60.13506
732.94        60.09215
733.36         59.9992
733.78        59.93711
734.20        59.92413
734.62        60.14257
735.04        60.11045
735.46        60.39998
735.88        60.76332
736.30        60.78003
736.72        60.50377
737.13        60.40733
737.55        60.50384
737.97        60.63533
738.39        60.73131
738.81        60.55992
739.23        60.21566
739.65        60.28657
740.06        60.68322
740.48        60.84296
740.90        60.71334
741.32        60.67509
741.74        60.68502
742.16        60.74071
742.57        60.83461
742.99        60.99165
743.41         61.1481
743.83        61.17223
744.25        61.11456
744.67        60.88036
745.08        61.10597
745.50        61.13209
745.92        61.15017
746.34        61.26286
746.75        61.41445
747.17        61.44558
747.59        61.33485
748.01        61.10538
748.42        60.85124
748.84        60.79153
749.26         60.9175
749.68        61.03201
750.09        61.09314
750.51        61.11467
750.93        61.12774
751.35        61.29147
751.76         61.5535
752.18        61.63799
752.60          61.529
753.01        61.38796
753.43        61.26088
753.85        61.19215
754.27         61.2111
754.68        61.31185
755.10        61.45818
755.52         61.5918
755.93         61.6992
756.35        61.77146
756.77        61.77401
757.18        61.91428
757.60        62.26173
758.02        62.25789
758.43        61.76684
758.85        63.03622
759.26        62.43291
759.68        62.13806
760.10        62.00309
760.51         61.4089
760.93        62.53024
761.34        62.00656
761.76        62.44968
762.18        62.25345
762.59        62.23213
763.01        61.92819
763.42        62.51382
763.84        62.75287
764.26        62.88582
764.67         62.5835
765.09        62.07103
765.50        62.27275
765.92        63.05872
766.33        63.12847
766.75        62.37016
767.16        62.60772
767.58        62.36776
768.00        62.46273
768.41        62.47562
768.83        62.67115
769.24        62.96661
769.66        63.16678
770.07        63.23133
770.49        63.20128
770.90        63.12476
771.32         63.1032
771.73        63.14738
772.15        63.11709
772.56        63.02942
772.97        62.99411
773.39        62.99849
773.80         63.0183
774.22        63.02727
774.63        63.07131
775.05        63.11839
775.46        63.17949
775.88        63.22332
776.29        63.27177
776.70        63.31663
777.12        63.35954
777.53        63.41607
777.95        63.46347
778.36        63.50967
778.77          63.551
779.19        63.59082
779.60        63.64699
780.02        63.69704
780.43        63.75131
780.84        63.81182
781.26        63.78074
781.67        63.74205
782.09         63.9671
782.50        64.31828
782.91        64.48682
783.33        64.12519
783.74        64.02265
784.15        64.07095
784.57        64.13513
784.98        64.20503
785.39        63.92104
785.81         63.7808
786.22        63.98277
786.63        64.52895
787.04        64.78767
787.46        64.72955
787.87        64.67268
788.28        64.65098
788.70        64.61201
789.11        64.56949
789.52         64.4646
789.93        64.34125
790.35         64.4976
790.76          64.875
791.17        64.85332
791.58        64.49427
792.00        64.57698
792.41        65.03324
792.82        64.97408
793.23        64.46942
793.65        64.36745
794.06        64.74886
794.47        65.08513
794.88        65.20773
795.29        65.69627
795.71        65.41726
796.12        65.29314
796.53        65.08167
796.94        65.00442
797.35        65.08447
797.76        65.19791
798.18        65.32471
798.59        65.45538
799.00        65.57414
799.41         65.6544
799.82        65.67926
800.23        65.65412
800.64         65.5809
801.06        65.43208
801.47        65.28214
801.88        65.19051
802.29        65.17694
802.70        65.23118
803.11        65.31226
803.52        65.34479
803.93        65.32131
804.34        65.26856
804.75        65.23211
805.17        65.33603
805.58        65.63521
805.99        65.88472
806.40        66.05743
806.81        66.55044
807.22        67.10738
807.63        66.77533
808.04        65.77696
808.45        65.38438
808.86        65.75111
809.27        66.20449
809.68        66.53847
810.09        66.68669
810.50        66.55891
810.91        66.18019
811.32        65.73343
811.73        65.47554
812.14         65.4778
812.55        65.79803
812.96        66.26101
813.37        66.24733
813.78        65.82228
814.19        65.78686
814.60        66.14433
815.01        66.28761
815.42         66.2147
815.83        66.28825
816.24        66.50668
816.65        66.66716
817.05        66.74415
817.46        66.75196
817.87        66.73725
818.28        66.72449
818.69        66.72936
819.10        66.74776
819.51        66.74203
819.92        66.69864
820.33        66.63129
820.74        66.42046
821.14        66.16501
821.55        66.38935
821.96         66.9475
822.37        67.00995
822.78        66.62105
823.19         66.5979
823.60        66.98936
824.00        67.33371
824.41        67.45889
824.82        67.40884
825.23        67.16586
825.64        66.72825
826.04        66.29426
826.45        66.18291
826.86        66.47585
827.27        67.02424
827.68         67.6265
828.08        68.12167
828.49        68.27394
828.90        67.85396
829.31        67.09462
829.72        66.72607
830.12        66.89878
830.53        67.24224
830.94        67.60258
831.35        67.80259
831.75        67.77827
832.16        67.55599
832.57        67.25458
832.97         67.0358
833.38        66.95793
833.79        66.97957
834.20        67.05582
834.60        67.12016
835.01          67.163
835.42        67.20037
835.82         67.2807
836.23        67.40541
836.64          67.593
837.04        67.84241
837.45        68.04813
837.86        68.14021
838.26        68.11457
838.67         67.9879
839.08        67.84229
839.48        67.79757
839.89        67.88585
840.29        68.06123
840.70        68.28261
841.11        68.48707
841.51        68.65914
841.92        68.77903
842.33        68.82814
842.73        68.76962
843.14         68.5641
843.54        68.26163
843.95        67.93101
844.35        67.70238
844.76        67.60693
845.17        67.61742
845.57        67.71014
845.98        67.80019
846.38        67.87646
846.79        67.93928
847.19        67.98143
847.60        67.94703
848.00        67.84999
848.41        67.66273
848.81        67.46993
849.22        67.34675
849.62        67.35091
850.03        67.45016
850.43        67.58807
850.84        67.58917
851.24        67.46376
851.65         67.2005
852.05        66.98547
852.46        67.05628
852.86        67.43923
853.27        68.03121
853.67        68.55006
854.07        68.78677
854.48        68.66916
854.88        68.31289
855.29        67.76414
855.69        67.31412
856.10              67
856.50        66.83298
856.90        66.77308
857.31        66.77464
857.71        66.85404
858.12        66.98103
858.52        67.15485
858.92        67.23923
859.33        67.19067
859.73        67.05975
860.13        66.86826
860.54        66.69729
860.94        66.61085
861.34        66.55679
861.75        66.51118
862.15        66.49596
862.55        66.48184
862.96        66.50095
863.36        66.50168
863.76        66.38671
864.17        66.13813
864.57        65.78262
864.97        65.46408
865.38         65.3962
865.78        65.66044
866.18        66.18703
866.58        66.73194
866.99        66.87162
867.39        66.53268
867.79        65.82088
868.19        65.05941
868.60         64.6959
869.00        64.81868
869.40        65.33116
869.80        65.98069
870.21        66.29975
870.61        66.20872
871.01        65.80348
871.41         65.3196
871.81        65.08491
872.22        65.15135
872.62        65.43889
873.02        65.80203
873.42        65.97299
873.82        65.87073
874.22        65.60599
874.63        65.33016
875.03         65.2309
875.43        65.35307
875.83        65.61594
876.23        65.93494
876.63        66.17838
877.03        66.28999
877.44        66.29978
877.84        66.22948
878.24        66.08975
878.64        65.90523
879.04        65.68527
879.44        65.46847
879.84        65.30576
880.24        65.21147
880.64        65.18337
881.04        65.21858
881.44        65.30338
881.84        65.41748
882.24         65.5393
882.65        65.62705
883.05        65.71304
883.45        65.75532
883.85        65.76829
884.25        65.71411
884.65        65.53867
885.05        65.24875
885.45        64.85701
885.85        64.49955
886.25        64.41073
886.65        64.63333
887.05        65.09466
887.45        65.57423
887.85        65.73248
888.25        65.49165
888.65        64.94052
889.04         64.2812
889.44        63.90312
889.84        63.89357
890.24        64.15144
890.64        64.47945
891.04        64.56445
891.44        64.33961
891.84          63.922
892.24        63.50162
892.64        63.36541
893.04        63.57928
893.44        64.03841
893.83        64.60033
894.23        64.97955
894.63         65.1162
895.03        65.07514
895.43        64.95354
895.83        64.91058
896.23        64.98883
896.63        65.13113
897.02        65.25311
897.42        65.26464
897.82        65.14571
898.22         64.9598
898.62        64.78123
899.01        64.73432
899.41        64.83395
899.81        65.03072
900.21        65.29568
900.61        65.58311
901.00        65.84445
901.40        66.10723
901.80        66.28077
902.20        66.23839
902.59        65.98731
902.99         65.5616
903.39        65.12846
903.79        64.95395
904.18        65.09693
904.58        65.47475
904.98        65.94162
905.38        66.28464
905.77        66.42754
906.17        66.41987
906.57         66.3092
906.96        66.20194
907.36        66.10978
907.76        66.01894
908.15        65.87127
908.55        65.51045
908.95        64.96807
909.34         64.3145
909.74        63.76417
910.14        63.56668
910.53        63.78067
910.93        64.31015
911.33        64.99102
911.72        65.53874
912.12        65.81805
912.52        65.89327
912.91        65.83355
913.31        65.77328
913.70        65.75064
914.10        65.71393
914.49        65.64207
914.89        65.46371
915.29        65.19357
915.68         64.8773
916.08        64.60075
916.47        64.46857
916.87        64.51724
917.26        64.69825
917.66        64.94183
918.05         65.1003
918.45        65.12874
918.84        65.09172
919.24         65.0257
919.64        65.07433
920.03        65.28772
920.42        65.61013
920.82        65.98286
921.21         66.3137
921.61        66.55901
922.00        66.73795
922.40        66.89679
922.79        67.18081
923.19        67.55868
923.58        68.00043
923.98        68.30628
924.37        68.24152
924.77        67.76625
925.16        66.96513
925.55        66.07389
925.95        65.49748
926.34        65.36248
926.74        65.55121
927.13         65.9303
927.52        66.17342
927.92        66.20006
928.31        66.09045
928.70         65.9312
929.10        65.84107
929.49        65.85432
929.89        65.89341
930.28        65.95918
930.67        65.96843
931.07        65.88453
931.46        65.75014
931.85        65.59021
932.24         65.4679
932.64        65.39178
933.03         65.3486
933.42        65.27855
933.82        65.07983
934.21         64.7533
934.60         64.3644
934.99        64.01759
935.39        63.86145
935.78        63.96799
936.17        64.27447
936.56        64.74476
936.96        65.29012
937.35        65.87635
937.74        66.45468
938.13        66.91522
938.53        67.12346
938.92        67.07096
939.31        66.77386
939.70         66.3466
940.09        66.01031
940.49        65.81338
940.88        65.74406
941.27        65.71483
941.66        65.57236
942.05        65.29592
942.44         64.9831
942.84        64.69815
943.23        64.47097
943.62        64.35066
944.01        64.27962
944.40        64.34057
944.79         64.6788
945.18        65.26808
945.57        66.03484
945.97        66.66283
946.36        66.76398
946.75        66.25242
947.14        65.25906
947.53        64.12598
947.92        63.46941
948.31        63.47406
948.70        63.95611
949.09        64.64499
949.48        65.10023
949.87        65.18913
950.26        65.06101
950.65        64.80225
951.04        64.54412
951.43        64.34259
951.82        64.12078
952.21        63.92556
952.60        63.86689
952.99        63.95116
953.38        64.16116
953.77         64.3597
954.16        64.31703
954.55        63.98962
954.94        63.44205
955.33        62.81773
955.72        62.36375
956.11        62.15789
956.50        62.14518
956.89        62.23211
957.28        62.23596
957.66        62.13889
958.05        62.01456
958.44        61.93519
958.83        62.01532
959.22         62.2521
959.61        62.50362
960.00        62.79031
960.39        63.16553
960.78        63.59182
961.16        64.11926
961.55        64.35151
961.94        63.71501
962.33        62.19534
962.72        60.07665
963.11        58.09232
963.49         57.3007
963.88        57.90015
964.27         59.5896
964.66         61.7627
965.04        63.29316
965.43        63.68574
965.82        63.27424
966.21        62.45447
966.60        61.86387
966.98        61.70791
967.37        61.75108
967.76        61.87121
968.15         61.8604
968.53        61.67551
968.92        61.48011
969.31        61.37201
969.69        61.43125
970.08        61.68092
970.47        62.07451
970.86        62.64869
971.24        63.48184
971.63        64.45509
972.02        65.50483
972.40        66.49045
972.79        67.09212
973.17        67.36004
973.56        67.28957
973.95        67.06869
974.33        66.99159
974.72        67.14201
975.11        67.43852
975.49        67.68035
975.88        67.56671
976.26        67.03771
976.65        66.19891
977.04         65.2646
977.42         64.5767
977.81         64.2074
978.19        64.02974
978.58        64.07346
978.96        64.28171
979.35        64.56712
979.74        64.99099
980.12        65.35843
980.51        65.12511
980.89        64.31382
981.28        62.95139
981.66        61.53463
982.05        61.05386
982.43        61.72563
982.82        63.22098
983.20        64.91825
983.59        65.67221
983.97        65.31793
984.35        64.15112
984.74        62.65724
985.12        61.69238
985.51        61.55527
985.89        61.98238
986.28        62.75024
986.66        63.65438
987.04        64.52599
987.43        65.40245
987.81        66.17677
988.20        66.53803
988.58        66.46861
988.96        66.05917
989.35        65.33924
989.73        64.48058
990.12         63.5186
990.50        62.30717
990.88         61.2664
991.27        61.26087
991.65        62.44698
992.03        64.60139
992.42        66.52778
992.80        67.03274
993.18        65.82037
993.56        63.00216
993.95        59.67638
994.33        58.49508
994.71        60.46296
995.10         64.2064
995.48        67.84587
995.86        69.36372
996.24        68.62263
996.63        66.17776
997.01        62.89528
997.39        60.78071
997.77         60.8037
998.15        62.31032
998.54        64.35104
998.92        65.66933
999.30        65.90766
999.68        65.50818
1000.06        64.80759
1000.45         64.2984
1000.83        64.26853
1001.21          64.464
1001.59        64.73936
1001.97        64.94218
1002.35        65.03187
1002.73        65.11868
1003.12        65.30223
1003.50        65.51391
1003.88        65.80219
1004.26        66.12193
1004.64        66.42636
1005.02        66.70468
1005.40        66.95593
1005.78        67.16285
1006.16        67.34691
1006.54        67.54145
1006.92        67.74457
1007.30        67.97875
1007.69        68.15977
1008.07         67.9974
1008.45        67.54279
1008.83        66.87743
1009.21         66.2664
1009.59         66.0836
1009.97        66.40347
1010.35        67.19745
1010.73        68.21526
1011.11        68.76801
1011.49        68.57408
1011.86        67.91882
1012.24        67.13838
1012.62        66.99188
1013.00        67.62556
1013.38          68.816
1013.76        70.24088
1014.14        71.36988
1014.52        72.02166
1014.90        72.34206
1015.28        72.49641
1015.66        72.77898
1016.04        73.27209
1016.41        73.90726
1016.79        74.33509
1017.17         74.4705
1017.55         74.2781
1017.93        73.84354
1018.31        73.33917
1018.69        72.95995
1019.06        72.84985
1019.44        73.09355
1019.82        73.49485
1020.20        73.68551
1020.58        73.50005
1020.95        72.77548
1021.33        72.20475
1021.71        72.69673
1022.09        74.23627
1022.46        76.60333
1022.84        78.44335
1023.22        77.10957
1023.60        71.77941
1023.97        62.52131
1024.35        51.75097
1024.73         45.2606
