SpectraSmart Spectrum 2.9.0.0
--------- Device Information -----------
Spectrum Name :  反射率_0
Saving Time :  2024/04/27 22:36:33
Spectro-Module Model Name : SE2030-DUVN
Spectro-Module Serial Number : OS361AC55029948
Wavelength Start : 200
Wavelength End : 1025
Wavelength Unit : Wavelength(nm)
Spectrum Unit : Reflectance(%)
-----------Spectrum Setting ------------
Integration Time : 20ms
Average : 10
Boxcar : 0
Background removal :  enabled
linearity correction :  enabled
SC :  disabled
Intensity correction :  disabled
DWT denoise :  enabled
savitzky-golay :  disabled
FFT :  disabled
Running average :  disabled
Kalman :  disabled
High pass :  disabled
---------------BEGIN--------------------
Wavelength(nm)             Reflectance(%)
200.29               0
200.75        20.77264
201.21        26.80747
201.67        35.45934
202.13         44.0059
202.58        52.42957
203.04         61.8903
203.50        70.56031
203.96        74.69279
204.42        74.36047
204.88        71.71604
205.34        69.21456
205.80        69.36389
206.26        72.63671
206.72        79.08459
207.18        88.79259
207.64        94.54775
208.10        90.67071
208.55        83.30589
209.01        76.14658
209.47        68.97954
209.93        58.55006
210.39        35.22862
210.85       -34.64101
211.31       -131.1668
211.77       -40.16291
212.23        27.67924
212.69        53.16308
213.14         61.8479
213.60        62.80222
214.06        59.25187
214.52         50.7361
214.98        43.86953
215.44        46.14462
215.90        51.44289
216.36        55.88203
216.81        58.57485
217.27        59.86671
217.73        60.68193
218.19        60.85739
218.65        59.66522
219.11        57.08881
219.57        53.46575
220.02        49.06129
220.48        46.27049
220.94        45.92899
221.40        47.21095
221.86        50.45207
222.32        55.98849
222.77        62.87569
223.23        70.12386
223.69        75.77065
224.15        77.74675
224.61        76.19588
225.06        71.75869
225.52        66.46222
225.98        63.98132
226.44        64.98945
226.90        67.57012
227.36         69.8237
227.81        70.19563
228.27        68.76755
228.73        65.94099
229.19        62.38641
229.65        59.58373
230.10        58.13541
230.56        57.95812
231.02        58.01934
231.48        56.97702
231.93        54.69609
232.39        51.89191
232.85        49.73377
233.31        49.85532
233.77        52.23968
234.22        56.07914
234.68        59.87974
235.14        61.80357
235.60        61.47911
236.05        59.25082
236.51        56.10512
236.97        54.40949
237.43        55.19034
237.88        57.98676
238.34        60.92665
238.80        62.00927
239.26        60.50658
239.71        55.89839
240.17         48.2386
240.63        43.66072
241.08        47.90514
241.54         56.6603
242.00        63.63957
242.46        65.96863
242.91        64.00757
243.37        56.46257
243.83          39.846
244.28         20.4383
244.74        24.11488
245.20        48.01863
245.66        67.15104
246.11        73.12133
246.57        68.98257
247.03        54.88705
247.48        31.28167
247.94         16.0886
248.40        26.82597
248.85         52.9288
249.31        77.12629
249.77        85.83767
250.22        81.96924
250.68        72.86836
251.14        64.43612
251.59        61.20511
252.05        63.38216
252.51        69.77334
252.96         77.7487
253.42        78.63573
253.88        69.00423
254.33         56.2424
254.79         47.0333
255.25        43.40345
255.70        43.67999
256.16        46.07153
256.62        49.24302
257.07        51.94394
257.53        54.02371
257.99        55.49531
258.44        56.11343
258.90        55.96544
259.35        54.98152
259.81        53.66476
260.27        52.20672
260.72        50.90425
261.18        50.08631
261.63        49.41023
262.09        48.85333
262.55        48.03172
263.00        46.89006
263.46        45.70541
263.91        44.60681
264.37        44.06789
264.83        44.02973
265.28        44.26566
265.74        44.55767
266.19        44.46875
266.65        44.00496
267.11        43.25709
267.56        42.38937
268.02        41.74869
268.47        41.37405
268.93        41.18597
269.38        41.02618
269.84        40.67927
270.30        40.09408
270.75        39.34887
271.21        38.58006
271.66        37.94631
272.12        37.50005
272.57        37.13243
273.03        36.77709
273.48          36.255
273.94        35.58545
274.39        34.81035
274.85        34.02634
275.31         33.2814
275.76         32.5861
276.22        31.95233
276.67        31.37476
277.13        30.94367
277.58        30.60433
278.04        30.37372
278.49        30.11926
278.95        29.75387
279.40        29.22009
279.86        28.62496
280.31        28.01583
280.77        27.58231
281.22        27.31454
281.68        27.18756
282.13        27.11615
282.59        27.03359
283.04        26.89167
283.50        26.72014
283.95        26.51309
284.41        26.29932
284.86        26.07395
285.32        25.85651
285.77        25.61834
286.22        25.35485
286.68        25.08772
287.13        24.79489
287.59        24.55366
288.04        24.40416
288.50        24.37585
288.95        24.41966
289.41         24.4808
289.86        24.43225
290.32        24.27146
290.77        24.02942
291.22         23.7842
291.68        23.64858
292.13        23.64021
292.59        23.73593
293.04        23.88749
293.50        24.04304
293.95        24.17825
294.40        24.32785
294.86        24.50753
295.31        24.73076
295.77        25.01038
296.22        25.31837
296.68         25.6735
297.13        26.08604
297.58        26.54977
298.04        27.04967
298.49         27.5298
298.95        27.91763
299.40        28.20281
299.85        28.41331
300.31        28.62861
300.76        28.93677
301.21        29.36817
301.67        29.89378
302.12        30.43176
302.58        30.89719
303.03        31.24846
303.48         31.5107
303.94        31.75638
304.39        32.05082
304.84        32.41882
305.30        32.84164
305.75        33.21408
306.20         33.4148
306.66        33.44508
307.11        33.32992
307.57        33.21561
308.02        33.26447
308.47        33.51621
308.93          33.897
309.38        34.26685
309.83        34.43999
310.29        34.38314
310.74         34.1515
311.19        33.82575
311.65        33.53129
312.10        33.29931
312.55        33.10101
313.00        32.94269
313.46        32.83451
313.91        32.76447
314.36        32.74278
314.82         32.7144
315.27        32.57883
315.72        32.32272
316.18        31.98044
316.63        31.62453
317.08         31.3962
317.53        31.32418
317.99        31.35818
318.44         31.4291
318.89        31.40898
319.35        31.26184
319.80         31.0301
320.25         30.7562
320.70         30.5137
321.16        30.31997
321.61        30.15351
322.06         29.9994
322.51        29.84002
322.97        29.66361
323.42        29.49536
323.87        29.31533
324.32        29.09416
324.78        28.82789
325.23        28.52661
325.68        28.23536
326.13        28.03618
326.59        27.93452
327.04        27.93032
327.49        27.94305
327.94        27.84653
328.39        27.60984
328.85        27.26119
329.30        26.89227
329.75        26.65517
330.20        26.59425
330.66          26.651
331.11        26.75363
331.56        26.73781
332.01        26.55765
332.46        26.26047
332.92        25.90987
333.37        25.64326
333.82        25.49877
334.27        25.43668
334.72        25.41967
335.17        25.38723
335.63        25.31051
336.08        25.23027
336.53        25.14048
336.98        25.03724
337.43        24.92861
337.88        24.81345
338.34        24.71642
338.79        24.68668
339.24        24.72962
339.69        24.82268
340.14        24.93162
340.59         25.0012
341.05        25.00945
341.50        24.97479
341.95        24.88734
342.40         24.7424
342.85        24.54985
343.30        24.31409
343.75        24.07893
344.20        23.91438
344.66        23.84226
345.11        23.84836
345.56        23.88722
346.01        23.87828
346.46        23.80056
346.91        23.67142
347.36        23.54445
347.81          23.501
348.26         23.5566
348.72        23.68804
349.17           23.82
349.62        23.83513
350.07        23.70817
350.52         23.4654
350.97        23.21639
351.42        23.13639
351.87        23.25307
352.32        23.50828
352.77        23.74842
353.22        23.73876
353.67        23.43995
354.13        22.94957
354.58        22.40921
355.03        22.09551
355.48        22.07899
355.93        22.27548
356.38        22.55052
356.83         22.6937
357.28        22.64561
357.73        22.47156
358.18        22.24893
358.63        22.09791
359.08        22.04406
359.53         22.0298
359.98        22.00668
360.43        21.90638
360.88        21.71635
361.33        21.48051
361.78        21.20509
362.23        20.93039
362.68        20.68537
363.13        20.39086
363.58        20.09345
364.03        20.23568
364.48        20.22205
364.93        20.48293
365.38        20.72216
365.83        20.76625
366.28         20.5699
366.73        20.19978
367.18        19.75147
367.63        19.36867
368.08        19.10666
368.53        18.92699
368.98        18.81658
369.43        18.74994
369.88        18.71008
370.33        18.71239
370.78        18.72387
371.23        18.68537
371.68        18.57852
372.13        18.40024
372.58        18.19367
373.03        18.03752
373.48        17.95449
373.93        17.93829
374.38         17.9236
374.83        17.80449
375.28        17.56791
375.72        17.23702
376.17        16.95033
376.62        16.88321
377.07         17.0547
377.52        17.38807
377.97        17.72103
378.42        17.80302
378.87        17.58442
379.32        17.15997
379.77        16.66282
380.22        16.29281
380.67        16.10784
381.11        16.04704
381.56        16.06544
382.01        16.08842
382.46        16.08344
382.91        16.07751
383.36        16.05893
383.81        16.00252
384.26        15.90676
384.71        15.77125
385.15        15.61251
385.60        15.49421
386.05        15.42277
386.50        15.39221
386.95         15.3898
387.40        15.39167
387.85        15.39096
388.29        15.38275
388.74        15.39294
389.19        15.42485
389.64        15.47224
390.09        15.51647
390.54        15.54114
390.98        15.52078
391.43        15.45857
391.88        15.37308
392.33        15.25675
392.78        15.12264
393.23        14.98934
393.67        14.79289
394.12        14.60009
394.57        14.67363
395.02        14.75687
395.47         14.7999
395.91        14.72865
396.36         14.7147
396.81        14.75879
397.26        14.75856
397.71        14.70607
398.15        14.64735
398.60        14.60328
399.05        14.50454
399.50        14.39839
399.95        14.44508
400.39        14.60439
400.84        14.64976
401.29        14.56059
401.74        14.44627
402.18        14.34384
402.63        14.29084
403.08        14.29212
403.53        14.27623
403.97        14.24687
404.42        14.27566
404.87        14.34335
405.32        14.39091
405.76        14.40505
406.21        14.36509
406.66        14.29704
407.11        14.30951
407.55        14.37243
408.00        14.32912
408.45        14.17922
408.90        13.97443
409.34        13.79091
409.79        13.80699
410.24        13.98827
410.68        14.09699
411.13        14.10918
411.58         14.1696
412.03        14.27407
412.47        14.33791
412.92        14.34501
413.37          14.327
413.81        14.28342
414.26        14.22526
414.71        14.15731
415.15        14.07775
415.60        14.01276
416.05        14.01227
416.49        14.08465
416.94        14.21103
417.39        14.34278
417.83        14.40437
418.28         14.3742
418.73        14.26969
419.17        14.13751
419.62        14.05857
420.07        14.06124
420.51        14.12891
420.96        14.21749
421.41        14.27532
421.85        14.28411
422.30         14.1951
422.74        14.08085
423.19        14.22762
423.64        14.57839
424.08        14.73628
424.53        14.62726
424.98        14.55861
425.42        14.54314
425.87        14.31131
426.31        13.96297
426.76        13.95368
427.21        14.21851
427.65        14.23782
428.10        14.03493
428.54        14.00358
428.99        14.14365
429.44        14.37152
429.88        14.56446
430.33        14.35707
430.77        13.90362
431.22        13.83084
431.66        14.13733
432.11        14.38132
432.56         14.4907
433.00        14.58773
433.45        14.54498
433.89        14.28066
434.34        14.07234
434.78        13.44489
435.23        14.08856
435.67        14.61478
436.12        14.81977
436.57        14.86763
437.01        14.67825
437.46        14.58188
437.90        14.66887
438.35        14.84363
438.79        14.61018
439.24        14.52018
439.68        14.44797
440.13         14.3638
440.57        14.27965
441.02        14.34403
441.46        14.52135
441.91        14.46343
442.35        14.24647
442.80        14.44729
443.24        14.93018
443.69        14.86618
444.13        14.32517
444.58        14.09421
445.02        14.19242
445.47        14.22731
445.91        14.16534
446.36        14.15467
446.80        14.18447
447.24         14.2092
447.69        14.23944
448.13        14.32784
448.58        14.45299
449.02        14.53041
449.47        14.55424
449.91        14.58502
450.36        14.62545
450.80        14.62905
451.25        14.61271
451.69        14.62741
452.13        14.67233
452.58        14.71644
453.02        14.74013
453.47        14.72178
453.91        14.65475
454.36        14.57465
454.80        14.47377
455.24        14.32337
455.69        14.16965
456.13        14.04107
456.58        13.97556
457.02        14.07971
457.46        14.27083
457.91        14.28524
458.35        14.19656
458.79        14.20732
459.24        14.33763
459.68        14.44768
460.13        14.51613
460.57        14.48979
461.01        14.43167
461.46         14.3677
461.90          14.262
462.34        14.21842
462.79        14.46818
463.23        14.60231
463.68        14.65762
464.12        14.66232
464.56        14.62315
465.01        14.60064
465.45        14.55829
465.89        14.43583
466.34         14.2934
466.78        14.19374
467.22        14.13471
467.67        14.41126
468.11        14.37383
468.55        14.38653
468.99        14.28623
469.44        14.26167
469.88        14.31598
470.32        14.33429
470.77        14.32062
471.21        14.32886
471.65        14.36349
472.10        14.41337
472.54        14.45536
472.98        14.47414
473.42        14.47126
473.87        14.41355
474.31        14.33829
474.75        14.43713
475.20         14.6647
475.64        14.73245
476.08        14.63458
476.52        14.64395
476.97        14.77546
477.41        14.74291
477.85         14.6786
478.29        14.79844
478.74        14.72755
479.18        14.63633
479.62        14.89025
480.06        14.93444
480.50        14.92387
480.95         14.8606
481.39        14.75515
481.83        14.94363
482.27        14.98494
482.72        14.98517
483.16        15.25313
483.60         15.3427
484.04        15.36243
484.48        15.37211
484.93        15.51524
485.37        15.46265
485.81        15.81001
486.25        16.16703
486.69         15.5445
487.14        15.18518
487.58        16.27248
488.02        16.10107
488.46        16.04757
488.90        16.40996
489.34        15.96846
489.79        15.87555
490.23        16.29911
490.67         16.5157
491.11        16.64063
491.55        16.63023
491.99        16.56079
492.43         16.6262
492.88        16.83867
493.32        17.05047
493.76        17.21852
494.20        17.39161
494.64        17.57216
495.08        17.68995
495.52        17.76185
495.96        17.97186
496.41        18.30894
496.85        18.28029
497.29        18.00576
497.73        18.15998
498.17        18.66374
498.61         18.8999
499.05        18.80165
499.49         18.7339
499.93        18.76369
500.37         18.8193
500.82        18.90931
501.26        19.09188
501.70        19.37422
502.14         19.3416
502.58        19.65657
503.02        19.76571
503.46        19.78258
503.90        19.74421
504.34        19.67402
504.78        19.67547
505.22        19.75889
505.66        19.86481
506.10        19.97012
506.54        20.09048
506.98        20.21852
507.42        20.25289
507.86        20.35807
508.30         20.4164
508.74        20.47849
509.18        20.53397
509.62        20.58254
510.06        20.62322
510.50        20.65557
510.94        20.68353
511.38         20.7127
511.82        20.75087
512.26        20.79892
512.70        20.85498
513.14        20.91311
513.58        20.95457
514.02        20.97572
514.46        20.99791
514.90        21.02881
515.34          21.007
515.78        21.05583
516.22        21.07173
516.66        21.09721
517.10         21.1394
517.54         21.1973
517.98         21.2669
518.42        21.32176
518.86        21.32312
519.30        21.26513
519.74        21.16071
520.18        21.04893
520.62        20.98964
521.06        20.99884
521.50        21.06488
521.93        21.15157
522.37        21.19014
522.81        21.16663
523.25        21.09429
523.69        21.01873
524.13         21.0123
524.57        21.08433
525.01        21.20732
525.45        21.31467
525.89        21.30326
526.32         21.1528
526.76        20.91055
527.20        20.64873
527.64        20.48421
528.08        20.44721
528.52        20.49818
528.96        20.59017
529.40        20.64897
529.83        20.64764
530.27        20.61036
530.71        20.54343
531.15        20.45592
531.59        20.35719
532.03        20.24417
532.46        20.12943
532.90        20.04904
533.34        20.00825
533.78        20.00257
534.22        20.02162
534.66        20.04558
535.09        20.06499
535.53        20.08696
535.97        20.10742
536.41        20.12388
536.85        20.13616
537.28        20.14382
537.72         20.1511
538.16        20.16315
538.60        20.18406
539.04        20.21958
539.47        20.26205
539.91        20.31178
540.35        20.36235
540.79        20.41557
541.22        20.47561
541.66        20.55031
542.10        20.63777
542.54        20.73568
542.97        20.82531
543.41        20.89018
543.85        20.92703
544.29         20.9474
544.72        20.97176
545.16        21.04733
545.60         21.1775
546.04        21.34871
546.47        21.54364
546.91        21.72904
547.35        21.88992
547.79        22.04172
548.22        22.18068
548.66        22.29697
549.10        22.40747
549.53        22.59337
549.97        22.83475
550.41        23.02222
550.84        23.14502
551.28        23.26409
551.72        23.39545
552.15        23.53569
552.59        23.69358
553.03        23.85921
553.46        24.01698
553.90        24.16244
554.34        24.28954
554.77        24.41193
555.21        24.52485
555.65        24.62206
556.08        24.67947
556.52         24.7531
556.96        24.84342
557.39        24.98316
557.83        25.15345
558.27        25.25898
558.70        25.29792
559.14         25.3249
559.57        25.35549
560.01        25.44541
560.45        25.57425
560.88        25.63036
561.32        25.66145
561.75        25.77539
562.19        25.96096
562.63        26.16652
563.06        26.31953
563.50        26.23993
563.93        25.99673
564.37        25.92922
564.80        26.05874
565.24        26.22485
565.68        26.38944
566.11        26.55571
566.55        26.71369
566.98        26.86488
567.42        27.01032
567.85         27.1092
568.29        27.19315
568.72        27.26692
569.16        27.35555
569.60        27.49918
570.03        27.69964
570.47        27.74203
570.90        27.98211
571.34        28.22521
571.77        28.27858
572.21        28.52916
572.64        28.71053
573.08        28.61595
573.51        28.86861
573.95        29.03163
574.38        29.19362
574.82        29.29335
575.25        29.23219
575.69        29.07553
576.12        29.05644
576.56        29.49885
576.99        29.71101
577.42        29.64288
577.86        29.62354
578.29        29.58517
578.73        29.27504
579.16        29.26218
579.60        29.32327
580.03        29.29202
580.47        29.14681
580.90        28.87515
581.33        28.92513
581.77        28.97109
582.20        28.49775
582.64        28.36223
583.07        28.40612
583.51        28.42379
583.94        28.46034
584.37        28.39603
584.81        28.23486
585.24        28.01122
585.68        27.82865
586.11        27.71061
586.54        27.42067
586.98         27.5147
587.41        27.81785
587.85        27.29109
588.28        27.26915
588.71        27.36706
589.15         27.5752
589.58        27.09534
590.01        27.58143
590.45        27.51984
590.88        26.98382
591.31        27.01681
591.75        27.42989
592.18        27.53167
592.61         27.3111
593.05        27.47586
593.48        27.57196
593.91        27.38598
594.35        27.39146
594.78        27.62447
595.21        27.74342
595.65        27.88433
596.08        27.92881
596.51        28.15306
596.94        28.46346
597.38        28.79491
597.81          29.149
598.24        29.02593
598.68         29.3642
599.11        29.81824
599.54        29.90148
599.97        30.14617
600.41        30.73752
600.84        31.13354
601.27        31.43788
601.70        31.60405
602.14        31.93874
602.57        32.37492
603.00        32.95982
603.43        33.34576
603.87        33.74199
604.30         33.8907
604.73        34.33769
605.16         35.0196
605.60        35.50771
606.03        36.08426
606.46        36.57606
606.89        36.60477
607.32        37.20124
607.76        37.77633
608.19        37.85734
608.62        38.21126
609.05        38.68589
609.48        39.00269
609.92        39.05215
610.35        40.11207
610.78        40.01537
611.21        40.22226
611.64         40.5705
612.07        40.85119
612.50        41.18697
612.94        41.52013
613.37          41.897
613.80        42.19479
614.23        42.74252
614.66        42.96176
615.09        42.99119
615.52         43.2837
615.96        43.85867
616.39        43.88275
616.82        44.10921
617.25        44.53382
617.68        44.63898
618.11        44.92007
618.54        45.18187
618.97        45.50735
619.40        45.80842
619.84         46.2545
620.27        46.33614
620.70        46.36691
621.13        46.20186
621.56        46.65552
621.99        46.76899
622.42        46.71581
622.85         46.6544
623.28         46.9481
623.71        46.96402
624.14        46.76484
624.57        46.98503
625.00        47.32065
625.43        46.90219
625.86        46.82016
626.29        46.80182
626.72        46.49567
627.15        46.41816
627.58        46.28427
628.01        46.30087
628.44        45.90863
628.87        45.61569
629.30         45.7895
629.73        45.34329
630.16        44.74991
630.59        44.54555
631.02        44.14273
631.45        43.78387
631.88        43.42268
632.31        43.08838
632.74        42.58038
633.17         42.3131
633.60          41.925
634.03        41.53279
634.46        41.13232
634.89        40.72068
635.32        40.27876
635.75        39.80387
636.18        39.32943
636.61        38.85952
637.04          38.354
637.47        37.84219
637.89        37.43332
638.32        37.10477
638.75        36.76181
639.18        36.40156
639.61        36.08171
640.04        35.80157
640.47        35.53907
640.90         35.2927
641.33        35.05426
641.76        34.81384
642.18        34.64325
642.61        34.40808
643.04        34.22097
643.47        34.06639
643.90        33.98438
644.33        33.98242
644.76        34.05336
645.18        34.16961
645.61        34.28061
646.04        34.37293
646.47        34.44959
646.90        34.54477
647.33        34.72136
647.75        34.99915
648.18         35.3402
648.61        35.73479
649.04        36.07034
649.47        36.35133
649.89        36.49866
650.32        36.62684
650.75        37.14315
651.18        37.97203
651.61        38.56253
652.03        38.83323
652.46         39.1615
652.89        39.69371
653.32        40.02196
653.74        40.33905
654.17        41.55746
654.60        42.16973
655.03        42.13147
655.46        42.58333
655.88        43.46407
656.31        44.02073
656.74        44.47534
657.16        44.77999
657.59         45.1529
658.02         45.4498
658.45         46.3606
658.87        46.85246
659.30          47.034
659.73        47.57457
660.15        47.95784
660.58        48.16587
661.01        48.64387
661.44        49.26846
661.86        49.62853
662.29        49.73652
662.72         49.9039
663.14        50.19944
663.57        50.52674
664.00        50.91768
664.42        51.19494
664.85        51.37869
665.27        51.57814
665.70        51.80392
666.13        52.00829
666.55        52.19983
666.98        52.40118
667.41        52.62545
667.83        52.87894
668.26        53.15229
668.69        53.44953
669.11        53.75126
669.54        54.01394
669.96        54.23135
670.39        54.41695
670.82        54.59619
671.24        54.76693
671.67         54.9501
672.09        55.22396
672.52        55.54483
672.94        55.69081
673.37        55.69109
673.80         55.7606
674.22        55.92849
674.65        56.04805
675.07        56.13872
675.50        56.27173
675.92         56.4533
676.35         56.6404
676.77         56.8329
677.20        57.04424
677.62          57.259
678.05        57.43602
678.47        57.56651
678.90        57.66617
679.32        57.77013
679.75        57.93425
680.17        58.16446
680.60        58.50304
681.02          58.802
681.45        58.96914
681.87        58.98827
682.30        58.90651
682.72        58.82412
683.15        58.97193
683.57        59.32481
684.00        59.52017
684.42        59.55265
684.85        59.69518
685.27        59.93124
685.70        60.12116
686.12        60.24022
686.54        60.28165
686.97        60.27271
687.39         60.3858
687.82        60.61575
688.24        60.66314
688.66        60.81199
689.09        60.91681
689.51        61.07468
689.94        61.21772
690.36         61.3443
690.78        61.43644
691.21        61.50985
691.63        61.60737
692.06        61.73861
692.48        61.88678
692.90        62.02353
693.33        62.10094
693.75        62.11327
694.17        62.07759
694.60         62.0445
695.02        62.09985
695.44        62.24897
695.87        62.52993
696.29        62.86255
696.71        62.97401
697.14        62.88961
697.56        62.99239
697.98         63.2554
698.41        63.40591
698.83        63.42688
699.25        63.49346
699.68        63.61223
700.10        63.76217
700.52        63.93313
700.94        64.13917
701.37        64.31538
701.79        64.38868
702.21         64.3319
702.64        64.17983
703.06         64.0051
703.48        63.97744
703.90        64.14034
704.33        64.37979
704.75        64.60321
705.17        64.97641
705.59        64.91375
706.01        64.86935
706.44        64.76012
706.86        64.82578
707.28        64.90913
707.70        65.17354
708.12        65.48785
708.55        65.56681
708.97        65.44655
709.39        65.51028
709.81        65.76163
710.23        65.89191
710.66        65.88905
711.08        65.95837
711.50        66.07193
711.92        66.11685
712.34        66.09201
712.76        66.03094
713.19        65.97173
713.61        66.02098
714.03        66.17513
714.45        66.39812
714.87         66.6282
715.29        66.77272
715.71        66.80941
716.13        66.76919
716.56        66.67259
716.98         66.6291
717.40        66.64666
717.82        66.70544
718.24        66.80376
718.66        66.93275
719.08         67.0808
719.50        67.26447
719.92        67.45926
720.34        67.58018
720.76        67.63449
721.19        67.71555
721.61        67.82467
722.03        67.85143
722.45        67.79453
722.87         67.7178
723.29        67.65132
723.71        67.61379
724.13        67.62193
724.55         67.6822
724.97        67.77573
725.39        67.86491
725.81        67.93307
726.23        67.98904
726.65        68.06187
727.07        68.16611
727.49        68.29486
727.91        68.57508
728.33        68.68797
728.75        68.73207
729.17        68.61967
729.59        68.39236
730.01        68.11309
730.43        68.00104
730.85        68.11742
731.27        68.19474
731.69        68.13612
732.10          68.886
732.52        68.66298
732.94        68.89742
733.36        69.05289
733.78        69.11464
734.20        69.07601
734.62        69.10586
735.04        68.88542
735.46        69.00965
735.88         69.2858
736.30        69.14621
736.72        68.72286
737.13        68.78156
737.55        69.25163
737.97        69.66056
738.39        69.86136
738.81        69.56674
739.23        68.98911
739.65        69.20887
740.06        70.03482
740.48        70.29122
740.90        69.90608
741.32        69.64241
741.74        69.52649
742.16         69.5233
742.57         69.6468
742.99        69.92055
743.41        70.25048
743.83        70.46877
744.25        70.53304
744.67        70.46701
745.08        70.36446
745.50        70.35129
745.92         70.4731
746.34        70.68097
746.75        70.87357
747.17        70.90253
747.59        70.73913
748.01         70.4144
748.42        70.08268
748.84        69.98143
749.26        70.07561
749.68        70.38097
750.09        70.48819
750.51         70.2962
750.93        70.70209
751.35        70.82517
751.76        70.94313
752.18        70.98479
752.60        70.95987
753.01        70.89224
753.43        70.82281
753.85        70.82447
754.27          70.903
754.68        71.12816
755.10        71.45866
755.52        71.32635
755.93         71.5146
756.35        71.41396
756.77        71.24693
757.18        71.23895
757.60        71.48102
758.02        71.34064
758.43        70.75195
758.85        72.01122
759.26        71.83395
759.68         71.5502
760.10        71.43268
760.51        70.46619
760.93        71.40905
761.34        70.84322
761.76        72.04605
762.18        72.20229
762.59        72.13554
763.01        72.20244
763.42        72.42672
763.84         72.4198
764.26        72.22152
764.67        71.90718
765.09        71.62115
765.50        71.89027
765.92        72.60761
766.33        72.47848
766.75        71.89342
767.16         72.2537
767.58        72.17522
768.00        72.37691
768.41        72.40821
768.83        72.44228
769.24        72.48675
769.66        72.66634
770.07        72.90786
770.49        72.92835
770.90        72.76144
771.32        72.71025
771.73        72.79572
772.15        72.78842
772.56        72.70522
772.97        72.69304
773.39        72.73551
773.80        72.83263
774.22        72.80827
774.63        73.09325
775.05        73.51437
775.46        73.74191
775.88        73.69783
776.29        73.58614
776.70        73.47706
777.12        73.43538
777.53        73.51163
777.95        73.64986
778.36        73.81904
778.77        73.94999
779.19        74.02985
779.60        74.10335
780.02        74.13105
780.43        74.14453
780.84        74.13988
781.26        73.89564
781.67        73.60956
782.09        73.94512
782.50        74.54633
782.91        75.04837
783.33        73.61282
783.74        73.34357
784.15        73.75329
784.57        73.92815
784.98        73.84889
785.39        74.07128
785.81        74.51106
786.22        74.69171
786.63        74.62793
787.04        74.51508
787.46        74.70806
787.87        74.69386
788.28        74.61504
788.70         74.6112
789.11        74.68221
789.52        74.84064
789.93        75.01831
790.35        75.05353
790.76        74.98644
791.17        74.89049
791.58        74.84554
792.00        75.04556
792.41        75.41158
792.82          75.501
793.23         75.3446
793.65        75.26584
794.06        75.36397
794.47        75.73695
794.88        76.24801
795.29        76.25789
795.71        76.20016
796.12        75.94742
796.53        75.72965
796.94        75.56361
797.35        75.52145
797.76        75.69868
798.18        76.01691
798.59        76.22559
799.00        76.28446
799.41        76.29012
799.82        76.26617
800.23        76.22961
800.64        76.19653
801.06        76.13497
801.47        76.08035
801.88        76.01528
802.29        75.94414
802.70        75.87776
803.11        75.83318
803.52        75.83106
803.93        75.88132
804.34        75.97704
804.75        76.10058
805.17        76.24043
805.58        76.41648
805.99        76.51083
806.40        76.53548
806.81        76.72568
807.22        76.96763
807.63        76.78912
808.04        76.28427
808.45        76.04736
808.86        76.14851
809.27        76.26536
809.68        76.34805
810.09        76.44978
810.50         76.5461
810.91         76.6264
811.32        76.68446
811.73        76.71828
812.14        76.73155
812.55        76.69302
812.96        76.63434
813.37        76.68633
813.78        76.82773
814.19        76.87916
814.60        76.84219
815.01        76.86143
815.42        76.93958
815.83        76.98553
816.24        76.99507
816.65        77.01299
817.05        77.04376
817.46        77.03629
817.87        77.01683
818.28        76.97136
818.69        76.90539
819.10         76.8363
819.51        76.78242
819.92        76.78689
820.33        76.86489
820.74        76.95104
821.14        77.04736
821.55        77.30947
821.96        77.66003
822.37        77.82502
822.78         77.7941
823.19        77.79918
823.60        77.85287
824.00        77.83056
824.41        77.69077
824.82        77.54385
825.23        77.41027
825.64        77.27584
826.04        77.20647
826.45        77.26054
826.86         77.4543
827.27         77.7693
827.68        78.11255
828.08        78.35528
828.49        78.38834
828.90        78.28359
829.31        78.12489
829.72         78.0641
830.12        78.16608
830.53        78.33096
830.94        78.51384
831.35        78.60382
831.75        78.58819
832.16        78.45735
832.57        78.26215
832.97        78.05123
833.38         77.8483
833.79        77.65569
834.20        77.49703
834.60        77.39724
835.01        77.37378
835.42        77.42288
835.82        77.54092
836.23        77.63083
836.64        77.69558
837.04         77.7627
837.45        77.81554
837.86        77.93497
838.26        78.14071
838.67        78.38891
839.08        78.62878
839.48        78.76401
839.89        78.77085
840.29        78.67599
840.70        78.55735
841.11        78.54252
841.51        78.67989
841.92        78.89877
842.33        79.12579
842.73        79.23105
843.14        79.13223
843.54        78.90446
843.95        78.64208
844.35        78.51868
844.76        78.56628
845.17        78.73691
845.57        78.94845
845.98        79.02185
846.38        78.94039
846.79        78.73796
847.19        78.50997
847.60         78.3542
848.00           78.33
848.41        78.36089
848.81        78.45015
849.22        78.52726
849.62        78.60071
850.03        78.66403
850.43        78.70565
850.84         78.6164
851.24        78.43504
851.65        78.11885
852.05        77.82764
852.46        77.73283
852.86        77.87578
853.27        78.21216
853.67        78.51881
854.07        78.67741
854.48        78.61283
854.88        78.40835
855.29        78.05523
855.69        77.77129
856.10        77.53386
856.50         77.3808
856.90        77.25184
857.31        77.08331
857.71        76.91049
858.12         76.7145
858.52        76.57067
858.92        76.46124
859.33        76.36949
859.73        76.32545
860.13        76.30076
860.54        76.27594
860.94        76.28158
861.34         76.2888
861.75        76.26172
862.15        76.20936
862.55        76.10735
862.96        75.97178
863.36        75.82334
863.76        75.68328
864.17        75.55735
864.57        75.45592
864.97        75.40054
865.38        75.40166
865.78        75.50378
866.18         75.6823
866.58        75.86413
866.99         75.9316
867.39        75.88921
867.79        75.73597
868.19        75.56745
868.60        75.49451
869.00        75.53233
869.40        75.67616
869.80         75.8556
870.21        75.94801
870.61        75.98354
871.01        75.92892
871.41        75.84228
871.81        75.80201
872.22        75.80136
872.62         75.8653
873.02        75.94496
873.42        75.93995
873.82        75.84788
874.22        75.72671
874.63        75.70251
875.03         75.9295
875.43        76.42075
875.83        77.06639
876.23        77.75307
876.63        78.29507
877.03         78.6015
877.44        78.71862
877.84        78.57703
878.24        78.04399
878.64        77.18604
879.04        76.11649
879.44        75.14427
879.84        74.68916
880.24        74.81153
880.64        75.38841
881.04        76.18595
881.44        76.77524
881.84        76.99806
882.24        76.95218
882.65        76.70164
883.05        76.48495
883.45        76.34605
883.85        76.22361
884.25        76.12224
884.65        76.06451
885.05        76.04587
885.45        76.07035
885.85        76.13954
886.25        76.23298
886.65        76.33916
887.05         76.4724
887.45        76.55939
887.85        76.49396
888.25        76.26627
888.65        75.89262
889.04        75.53086
889.44        75.48817
889.84        75.79816
890.24        76.36845
890.64        76.95179
891.04         77.1517
891.44        76.89493
891.84        76.33195
892.24        75.69926
892.64        75.36762
893.04        75.44366
893.44        75.80694
893.83        76.36488
894.23        76.90268
894.63        77.35109
895.03        77.74171
895.43        78.04368
895.83        78.20409
896.23        78.21891
896.63        78.09872
897.02        77.86764
897.42         77.6181
897.82        77.37661
898.22        77.15768
898.62        77.00842
899.01        77.00685
899.41         77.1411
899.81        77.38995
900.21        77.69973
900.61        77.97999
901.00        78.16782
901.40        78.27428
901.80        78.26105
902.20          78.091
902.59        77.79015
902.99        77.38586
903.39        76.95055
903.79        76.59118
904.18        76.36123
904.58        76.26165
904.98         76.3232
905.38        76.59105
905.77        77.03123
906.17        77.60939
906.57        78.20258
906.96        78.62251
907.36        78.77554
907.76        78.72772
908.15        78.53088
908.55        78.21629
908.95        77.87103
909.34        77.47295
909.74        77.18156
910.14        77.17847
910.53        77.49096
910.93        78.05552
911.33         78.6753
911.72        78.99734
912.12         78.9164
912.52        78.55529
912.91        78.08197
913.31        77.78182
913.70        77.71567
914.10         77.7901
914.49        77.95871
914.89        78.06747
915.29        78.08484
915.68        78.05758
916.08        78.01624
916.47         77.9939
916.87        78.01934
917.26        78.05372
917.66        78.08963
918.05        78.08867
918.45        78.03352
918.84        77.95817
919.24        77.87167
919.64        77.86947
920.03        77.98995
920.42        78.21397
920.82        78.46291
921.21        78.60566
921.61        78.59497
922.00        78.45248
922.40        78.32423
922.79        78.54799
923.19        79.12811
923.58        79.99624
923.98        80.75585
924.37        80.86877
924.77        80.23343
925.16        78.99252
925.55        77.63337
925.95        77.00089
926.34        77.32282
926.74        78.34321
927.13        79.56095
927.52        80.06644
927.92        79.68015
928.31        78.69045
928.70        77.58841
929.10        77.11111
929.49         77.4416
929.89        78.29453
930.28        79.38392
930.67        80.08821
931.07        80.17883
931.46        79.88242
931.85        79.36058
932.24        78.89392
932.64        78.58884
933.03        78.34708
933.42         78.1683
933.82        78.06741
934.21        78.03703
934.60        78.10307
934.99        78.21811
935.39        78.24916
935.78        78.20454
936.17        78.10881
936.56        78.00993
936.96        77.98769
937.35        78.12122
937.74        78.34602
938.13        78.64734
938.53        79.02259
938.92        79.44575
939.31        79.87408
939.70        80.26161
940.09        80.51824
940.49         80.5809
940.88        80.52531
941.27        80.29645
941.66        79.82021
942.05        79.13905
942.44        78.31872
942.84        77.60747
943.23        77.34782
943.62        77.64312
944.01         78.3906
944.40        79.34529
944.79        80.04681
945.18         80.3113
945.57        80.22523
945.97        79.88434
946.36        79.52954
946.75        79.20529
947.14        78.84237
947.53        78.43067
947.92        77.97132
948.31        77.50248
948.70        77.11169
949.09        76.83201
949.48        76.67087
949.87         76.6402
950.26        76.72318
950.65        76.96752
951.04        77.45932
951.43        78.16985
951.82        79.02026
952.21        79.82137
952.60        80.25838
952.99        80.23634
953.38        79.84952
953.77        79.22965
954.16        78.59258
954.55        78.02396
954.94        77.47156
955.33        76.99332
955.72        76.67632
956.11        76.52773
956.50        76.56248
956.89        76.63908
957.28        76.47598
957.66        76.05505
958.05        75.46446
958.44        74.92038
958.83        74.76251
959.22        75.06609
959.61        75.67562
960.00        76.48328
960.39        77.33739
960.78        78.12739
961.16        78.88754
961.55        79.38844
961.94        79.36448
962.33        78.79194
962.72        77.81866
963.11        76.70136
963.49        75.81397
963.88        75.27811
964.27         75.0093
964.66         75.0414
965.04        75.42786
965.43         76.0276
965.82        76.84167
966.21        77.62292
966.60        78.01489
966.98        77.94778
967.37        77.42809
967.76        76.66309
968.15        76.06361
968.53        75.81685
968.92        75.85476
969.31        76.02164
969.69        76.03556
970.08        75.82588
970.47        75.49706
970.86        75.30414
971.24         75.6768
971.63        76.58669
972.02        77.82406
972.40        79.03608
972.79         79.6346
973.17        79.60863
973.56        79.07028
973.95            78.3
974.33        77.76472
974.72        77.62148
975.11        77.72346
975.49        77.94183
975.88        78.08453
976.26        78.08438
976.65        78.00806
977.04        77.82256
977.42        77.43565
977.81        76.80264
978.19        75.92535
978.58        75.11131
978.96        74.86185
979.35        75.26566
979.74        76.23825
980.12        77.41203
980.51        77.94373
980.89        77.76039
981.28        76.98971
981.66         76.1109
982.05        76.01924
982.43        76.92704
982.82        78.44855
983.20        80.12395
983.59        81.10487
983.97        81.26566
984.35         80.8208
984.74        79.97589
985.12        79.10778
985.51        78.41737
985.89        77.85063
986.28        77.50129
986.66        77.56974
987.04        78.00959
987.43        78.72789
987.81        79.54163
988.20        80.00012
988.58        79.99623
988.96        79.61609
989.35        78.85817
989.73        77.82339
990.12        76.52974
990.50        74.93108
990.88        73.33121
991.27        72.49098
991.65        72.69932
992.03        73.76783
992.42        75.04292
992.80        75.95609
993.18         76.2961
993.56        76.21497
993.95        75.90436
994.33        75.69784
994.71        75.83037
995.10        76.08315
995.48         76.3864
995.86         76.6002
996.24        76.72891
996.63        76.82372
997.01        77.05672
997.39        77.56007
997.77        78.31013
998.15        79.15909
998.54        79.90559
998.92        80.35368
999.30        80.46819
999.68        80.33474
1000.06        79.98924
1000.45        79.46808
1000.83        78.93896
1001.21        78.37993
1001.59        77.98764
1001.97         78.0112
1002.35        78.51385
1002.73         79.5347
1003.12        80.74383
1003.50         81.3052
1003.88        80.95592
1004.26        79.82433
1004.64         78.6029
1005.02        78.19492
1005.40        78.69818
1005.78         79.9407
1006.16        81.05168
1006.54        80.49542
1006.92        77.97243
1007.30        73.98144
1007.69        70.06599
1008.07        68.67387
1008.45        70.42565
1008.83        74.49062
1009.21        79.11314
1009.59        81.80859
1009.97        81.91496
1010.35        79.84275
1010.73        76.60899
1011.11        74.86521
1011.49        75.82961
1011.86        78.75838
1012.24        81.86009
1012.62        82.92918
1013.00        81.64886
1013.38         78.9463
1013.76         76.0839
1014.14        75.08942
1014.52        76.56352
1014.90        79.74695
1015.28        83.91936
1015.66         87.5745
1016.04        89.83015
1016.41        91.17818
1016.79        91.08742
1017.17        89.19653
1017.55        85.79136
1017.93        81.11157
1018.31        76.58647
1018.69        74.49545
1019.06         75.4892
1019.44        79.25186
1019.82        84.55379
1020.20        88.41821
1020.58        89.47842
1020.95        88.30061
1021.33        86.21651
1021.71         84.9997
1022.09        85.02104
1022.46        85.74688
1022.84        86.33237
1023.22        85.19988
1023.60        81.86591
1023.97        76.50981
1024.35        70.80235
1024.73        68.25692
