SpectraSmart Spectrum 2.9.0.0
--------- Device Information -----------
Spectrum Name :  反射率_0
Saving Time :  2024/04/27 22:46:15
Spectro-Module Model Name : SE2030-DUVN
Spectro-Module Serial Number : OS361AC55029948
Wavelength Start : 200
Wavelength End : 1025
Wavelength Unit : Wavelength(nm)
Spectrum Unit : Reflectance(%)
-----------Spectrum Setting ------------
Integration Time : 20ms
Average : 10
Boxcar : 0
Background removal :  enabled
linearity correction :  enabled
SC :  disabled
Intensity correction :  disabled
DWT denoise :  enabled
savitzky-golay :  disabled
FFT :  disabled
Running average :  disabled
Kalman :  disabled
High pass :  disabled
---------------BEGIN--------------------
Wavelength(nm)             Reflectance(%)
200.29               0
200.75       -101.7551
201.21       -57.55707
201.67       -14.39925
202.13        9.328124
202.58        20.16675
203.04        26.05678
203.50        31.04874
203.96        38.30686
204.42        47.09761
204.88        55.11649
205.34        61.02865
205.80        64.36858
206.26        65.38937
206.72        63.96915
207.18         59.3231
207.64         52.9109
208.10        48.67977
208.55        47.93827
209.01        46.24323
209.47         40.0198
209.93         25.4828
210.39       -10.98579
210.85       -123.5172
211.31       -279.7117
211.77       -132.4533
212.23       -23.60305
212.69        16.98091
213.14        30.37487
213.60        31.60075
214.06        26.09482
214.52        13.67186
214.98        5.350887
215.44        11.66273
215.90        21.40922
216.36        29.94539
216.81        37.48555
217.27        44.52956
217.73         52.3257
218.19        58.83973
218.65        59.76309
219.11        53.89053
219.57        41.84829
220.02          26.749
220.48        18.62633
220.94        21.07019
221.40        30.24145
221.86        41.24395
222.32        49.14547
222.77        53.44172
223.23         55.7658
223.69        56.90751
224.15        57.53211
224.61        58.03761
225.06        58.11245
225.52        58.21444
225.98         58.7058
226.44        59.47066
226.90        60.16533
227.36        60.74741
227.81        61.20995
228.27        61.58115
228.73        61.82038
229.19        61.54797
229.65        60.07362
230.10        57.37852
230.56        54.28051
231.02        51.38802
231.48        49.53853
231.93        48.84776
232.39        49.07104
232.85        50.21246
233.31         52.3371
233.77        55.13309
234.22        58.40989
234.68        61.28666
235.14        62.69543
235.60        62.48292
236.05        60.77053
236.51        58.32545
236.97        57.04409
237.43        57.74036
237.88        60.14587
238.34        62.72705
238.80        63.92147
239.26         63.2195
239.71        60.36234
240.17        55.46756
240.63        52.94753
241.08        56.57262
241.54        62.92031
242.00        67.74087
242.46        69.19609
242.91        67.52401
243.37         61.5674
243.83        48.25602
244.28        31.07468
244.74        29.84352
245.20         45.2351
245.66        58.73066
246.11        62.26027
246.57        57.43587
247.03        44.72656
247.48        24.18442
247.94        10.63731
248.40        18.92346
248.85        39.40863
249.31        60.01493
249.77        71.65646
250.22        75.03922
250.68        74.56893
251.14        72.46089
251.59        70.11157
252.05        67.68382
252.51        63.76722
252.96        58.31248
253.42        55.12339
253.88        56.16611
254.33        60.22163
254.79        63.83245
255.25        64.17645
255.70        62.03003
256.16        59.27483
256.62        57.74504
257.07        59.31826
257.53        63.31037
257.99        67.69279
258.44        70.74103
258.90        71.51476
259.35         70.0722
259.81        67.72514
260.27        65.18406
260.72        63.28645
261.18        62.45108
261.63        62.01395
262.09        61.75056
262.55        60.99232
263.00        59.66546
263.46        58.20362
263.91        56.88589
264.37        56.44968
264.83        56.80375
265.28        57.56203
265.74        58.33717
266.19        58.41743
266.65        57.81113
267.11        56.70265
267.56        55.38227
268.02        54.40997
268.47        53.86949
268.93        53.60447
269.38        53.40189
269.84        52.97582
270.30        52.24049
270.75        51.31496
271.21        50.30451
271.66         49.2938
272.12        48.35814
272.57        47.42712
273.03        46.56025
273.48        45.76078
273.94        45.08794
274.39        44.49691
274.85        43.99405
275.31        43.47595
275.76        42.89133
276.22        42.29072
276.67         41.6585
277.13        41.10612
277.58        40.58025
278.04        40.11467
278.49        39.57999
278.95        38.93013
279.40        38.10969
279.86        37.23071
280.31        36.36348
280.77        35.74866
281.22        35.36557
281.68        35.19436
282.13        35.06349
282.59        34.80658
283.04          34.361
283.50        33.80461
283.95        33.23318
284.41        32.85097
284.86        32.66872
285.32        32.63857
285.77         32.6133
286.22        32.43086
286.68        32.08403
287.13        31.60871
287.59        31.14277
288.04         30.8069
288.50        30.66389
288.95        30.62401
289.41        30.64914
289.86        30.62919
290.32        30.55714
290.77        30.46018
291.22        30.35308
291.68        30.24477
292.13         30.1412
292.59        30.05906
293.04        30.03965
293.50        30.18175
293.95        30.48453
294.40        30.92346
294.86        31.43283
295.31        31.89613
295.77        32.28808
296.22         32.6229
296.68        32.93785
297.13        33.27306
297.58        33.64428
298.04        34.02602
298.49        34.40231
298.95        34.77257
299.40        35.12889
299.85        35.48557
300.31        35.84874
300.76        36.18326
301.21        36.49435
301.67        36.79085
302.12        37.06982
302.58        37.37571
303.03         37.6895
303.48        38.00677
303.94        38.32294
304.39        38.58003
304.84        38.78669
305.30        38.96467
305.75        39.10106
306.20         39.2209
306.66        39.34329
307.11        39.43292
307.57        39.52202
308.02        39.59041
308.47        39.65184
308.93        39.71233
309.38         39.7364
309.83        39.69976
310.29        39.61047
310.74        39.46418
311.19        39.30101
311.65        39.18036
312.10        39.09689
312.55        39.03901
313.00        38.98166
313.46         38.8867
313.91        38.73581
314.36        38.54396
314.82        38.31108
315.27        38.03376
315.72        37.72354
316.18        37.39641
316.63        37.06783
317.08        36.78424
317.53        36.55545
317.99        36.36334
318.44        36.20397
318.89        36.05145
319.35        35.89339
319.80        35.73837
320.25        35.56309
320.70        35.33788
321.16        35.05215
321.61        34.71558
322.06        34.36931
322.51        34.08624
322.97         33.8803
323.42        33.75364
323.87        33.63715
324.32         33.4222
324.78        33.08368
325.23        32.65716
325.68        32.23974
326.13        31.99947
326.59        31.95724
327.04        32.07926
327.49        32.22021
327.94         32.1519
328.39        31.81418
328.85        31.26509
329.30        30.64525
329.75        30.18692
330.20        29.97034
330.66        29.91965
331.11        29.95544
331.56        29.89259
332.01        29.67583
332.46        29.36388
332.92        29.01287
333.37        28.74792
333.82        28.59737
334.27        28.51119
334.72        28.45609
335.17        28.38526
335.63        28.27024
336.08        28.15156
336.53         28.0013
336.98         27.7812
337.43        27.49839
337.88        27.16747
338.34        26.86163
338.79        26.70772
339.24        26.72995
339.69        26.88708
340.14        27.09401
340.59        27.20909
341.05        27.18705
341.50        27.07007
341.95        26.88947
342.40        26.70846
342.85        26.55116
343.30         26.3931
343.75        26.24463
344.20        26.12433
344.66        26.04032
345.11         26.0014
345.56        25.97609
346.01        25.90421
346.46        25.77636
346.91        25.60163
347.36        25.44862
347.81        25.42373
348.26        25.53931
348.72         25.7607
349.17        25.97736
349.62         26.0138
350.07        25.83438
350.52        25.48938
350.97         25.1157
351.42        24.93386
351.87        24.98997
352.32        25.21132
352.77        25.45258
353.22        25.49252
353.67        25.28142
354.13         24.9049
354.58         24.4641
355.03        24.16911
355.48        24.07945
355.93        24.14007
356.38        24.24709
356.83        24.23985
357.28        24.08255
357.73        23.82951
358.18        23.58272
358.63        23.49683
359.08        23.59379
359.53        23.80431
359.98        24.01565
360.43        24.05783
360.88        23.89159
361.33        23.57674
361.78        23.18549
362.23        22.86947
362.68        22.68381
363.13        22.52356
363.58        22.35836
364.03        22.49694
364.48        22.34306
364.93        22.36328
365.38        22.36877
365.83        22.34295
366.28        22.27031
366.73        22.15774
367.18        22.00398
367.63         21.7989
368.08        21.55363
368.53        21.27976
368.98         21.0147
369.43        20.81569
369.88         20.6981
370.33        20.64988
370.78        20.64163
371.23        20.62146
371.68        20.56797
372.13        20.48708
372.58        20.38952
373.03        20.29483
373.48        20.21071
373.93        20.13595
374.38         20.0524
374.83        19.93331
375.28        19.77925
375.72        19.59093
376.17        19.43786
376.62        19.38687
377.07        19.44025
377.52         19.5596
377.97        19.67229
378.42        19.66627
378.87        19.51796
379.32        19.27337
379.77        18.97734
380.22        18.69592
380.67        18.45755
381.11         18.2474
381.56        18.08551
382.01        18.00347
382.46        18.00055
382.91         18.0669
383.36        18.15185
383.81        18.17267
384.26        18.10811
384.71        17.97622
385.15        17.80506
385.60         17.6751
386.05         17.5971
386.50        17.55504
386.95        17.53096
387.40         17.4962
387.85        17.44703
388.29        17.38825
388.74        17.35345
389.19        17.34847
389.64        17.36923
390.09        17.39365
390.54        17.41353
390.98        17.41698
391.43        17.40269
391.88        17.37506
392.33        17.30209
392.78         17.1661
393.23        16.98359
393.67        16.69945
394.12        16.39762
394.57        16.38271
395.02         16.3764
395.47        16.32672
395.91        16.17868
396.36         16.1629
396.81        16.28296
397.26        16.40473
397.71        16.48418
398.15         16.5221
398.60        16.52525
399.05        16.42638
399.50        16.28039
399.95        16.27111
400.39        16.35858
400.84        16.29035
401.29        16.06667
401.74        15.84783
402.18        15.68826
402.63        15.62427
403.08        15.65172
403.53        15.67056
403.97        15.67411
404.42        15.74447
404.87        15.85518
405.32        15.93389
405.76        15.96409
406.21        15.92074
406.66        15.83708
407.11        15.84429
407.55        15.91015
408.00        15.85556
408.45        15.67734
408.90        15.42783
409.34          15.191
409.79        15.16992
410.24        15.32062
410.68        15.37092
411.13        15.29809
411.58        15.26567
412.03        15.29181
412.47         15.3265
412.92        15.35939
413.37         15.4051
413.81        15.43322
414.26        15.41213
414.71        15.33352
415.15        15.20696
415.60        15.06493
416.05        14.97224
416.49        14.95022
416.94        14.98141
417.39        15.02879
417.83        15.03392
418.28        14.97678
418.73        14.86796
419.17        14.74959
419.62        14.69202
420.07        14.71547
420.51         14.8047
420.96         14.8952
421.41        14.90649
421.85        14.82225
422.30        14.60555
422.74        14.36853
423.19        14.45509
423.64        14.81572
424.08        15.03285
424.53        15.00061
424.98        14.98045
425.42        14.96963
425.87        14.70514
426.31        14.30503
426.76        14.26011
427.21        14.51076
427.65        14.51594
428.10         14.2991
428.54        14.26122
428.99        14.40028
429.44         14.6344
429.88        14.83043
430.33        14.60232
430.77        14.10692
431.22        13.98315
431.66        14.23948
432.11        14.45069
432.56        14.55086
433.00        14.66043
433.45        14.63078
433.89        14.34294
434.34        14.07105
434.78        13.35682
435.23        13.91137
435.67        14.39705
436.12        14.62402
436.57        14.73911
437.01        14.62155
437.46        14.53616
437.90        14.56017
438.35        14.61668
438.79        14.25974
439.24        14.09711
439.68        14.02085
440.13        13.98412
440.57        13.96699
441.02        14.06274
441.46        14.22304
441.91        14.12483
442.35        13.87111
442.80        14.05784
443.24        14.55846
443.69        14.55256
444.13        14.07986
444.58        13.87517
445.02        13.95004
445.47         13.9298
445.91        13.80561
446.36        13.75843
446.80        13.78616
447.24        13.83402
447.69        13.89101
448.13        13.97684
448.58        14.06268
449.02        14.07528
449.47        14.03114
449.91        14.02188
450.36        14.05723
450.80        14.08431
451.25        14.09362
451.69        14.09424
452.13        14.07969
452.58        14.03504
453.02        13.97663
453.47        13.93806
453.91        13.92291
454.36        13.94486
454.80        13.95944
455.24        13.88005
455.69        13.73401
456.13        13.56568
456.58        13.43726
457.02        13.48885
457.46        13.65309
457.91        13.66944
458.35        13.59231
458.79        13.59187
459.24        13.68372
459.68        13.74207
460.13        13.77091
460.57        13.75439
461.01          13.756
461.46        13.78811
461.90         13.7786
462.34        13.76707
462.79        13.96421
463.23         13.9919
463.68        13.93203
464.12        13.88483
464.56        13.87173
465.01        13.92568
465.45        13.97176
465.89        13.89385
466.34        13.73741
466.78        13.58265
467.22        13.45504
467.67        13.67859
468.11        13.65062
468.55         13.7038
468.99        13.65982
469.44        13.66379
469.88        13.70989
470.32        13.69811
470.77        13.65411
471.21         13.6637
471.65        13.73724
472.10        13.85015
472.54         13.9529
472.98        13.99002
473.42        13.95651
473.87         13.8374
474.31        13.69429
474.75        13.74903
475.20        13.96766
475.64        14.06059
476.08        14.00806
476.52        14.05237
476.97         14.2021
477.41        14.18356
477.85        14.13244
478.29         14.2397
478.74        14.15121
479.18        14.03457
479.62        14.25512
480.06        14.30595
480.50        14.33752
480.95        14.33905
481.39        14.30681
481.83        14.54553
482.27        14.61965
482.72        14.64126
483.16        14.90115
483.60        14.94847
484.04        14.90048
484.48        14.80332
484.93        14.83383
485.37        14.76932
485.81        15.23071
486.25        15.51448
486.69        15.23362
487.14        14.78226
487.58        16.03789
488.02        15.53806
488.46        15.92866
488.90        16.26619
489.34        15.59655
489.79        15.40066
490.23        15.84436
490.67        16.19413
491.11        16.48356
491.55        16.47257
491.99        16.25919
492.43        16.29625
492.88        16.60833
493.32        16.87651
493.76        17.04033
494.20        17.20994
494.64        17.38812
495.08        17.48962
495.52        17.54469
495.96         17.7588
496.41        18.12754
496.85        18.15603
497.29         17.9541
497.73        18.18242
498.17        18.75922
498.61        19.06607
499.05        19.02214
499.49        18.97865
499.93        19.00237
500.37         19.0271
500.82        19.07237
501.26        19.21626
501.70        19.47353
502.14        19.42339
502.58        19.73505
503.02        19.85595
503.46        19.89874
503.90        19.90191
504.34          19.873
504.78        19.88903
505.22        19.95477
505.66        20.01543
506.10        20.07323
506.54        20.18529
506.98        20.35366
507.42        20.46644
507.86        20.65801
508.30         20.7583
508.74        20.80621
509.18        20.80343
509.62        20.78747
510.06        20.81898
510.50        20.90885
510.94        21.03999
511.38        21.16969
511.82        21.22951
512.26        21.20554
512.70        21.12433
513.14        21.02945
513.58        20.98125
514.02        20.99819
514.46        21.07643
514.90        21.19275
515.34        21.23421
515.78        21.30831
516.22        21.32808
516.66        21.34406
517.10        21.37472
517.54        21.42422
517.98        21.47928
518.42        21.52149
518.86        21.52804
519.30        21.49424
519.74        21.43088
520.18        21.35588
520.62        21.29458
521.06        21.25671
521.50        21.23912
521.93        21.23466
522.37        21.22248
522.81        21.19934
523.25        21.16502
523.69        21.13135
524.13        21.11697
524.57        21.12097
525.01        21.13497
525.45        21.12828
525.89         21.0536
526.32        20.90358
526.76        20.70621
527.20        20.50389
527.64        20.36663
528.08        20.31187
528.52        20.31589
528.96        20.35114
529.40        20.37266
529.83        20.36277
530.27        20.33625
530.71        20.28888
531.15        20.21468
531.59         20.1181
532.03        19.99979
532.46        19.88063
532.90        19.80932
533.34        19.79092
533.78        19.81319
534.22        19.85085
534.66        19.86235
535.09        19.83635
535.53        19.79143
535.97         19.7381
536.41        19.69645
536.85        19.67452
537.28        19.66507
537.72        19.67366
538.16        19.70651
538.60         19.7632
539.04        19.84789
539.47        19.93657
539.91        20.00428
540.35        20.04126
540.79        20.05694
541.22        20.07456
541.66        20.13373
542.10         20.2412
542.54        20.38572
542.97        20.53545
543.41        20.65276
543.85        20.72788
544.29        20.77789
544.72        20.82881
545.16        20.93692
545.60        21.10614
546.04        21.31574
546.47        21.54265
546.91        21.74548
547.35        21.90841
547.79        22.05416
548.22        22.17966
548.66        22.27533
549.10        22.36156
549.53        22.51935
549.97        22.74463
550.41        22.95327
550.84        23.13684
551.28        23.34841
551.72        23.57435
552.15        23.76326
552.59        23.91411
553.03        24.03081
553.46        24.13023
553.90        24.25926
554.34        24.42185
554.77        24.61395
555.21        24.80385
555.65         24.9409
556.08        24.99129
556.52        25.03085
556.96         25.0771
557.39        25.19291
557.83         25.3675
558.27        25.47589
558.70        25.51968
559.14        25.59706
559.57        25.70121
560.01        25.80672
560.45         25.8905
560.88        25.90353
561.32        25.89917
561.75        25.95087
562.19         26.0669
562.63        26.24526
563.06        26.42132
563.50        26.39929
563.93        26.23388
564.37        26.24412
564.80        26.43971
565.24         26.6597
565.68        26.86294
566.11        27.04482
566.55        27.19556
566.98        27.33601
567.42          27.465
567.85        27.50457
568.29        27.51329
568.72        27.57307
569.16        27.69313
569.60        27.88981
570.03        28.17547
570.47        28.23142
570.90        28.37874
571.34        28.97437
571.77        28.88627
572.21        29.06955
572.64        29.29909
573.08        29.22119
573.51         29.4188
573.95        29.58489
574.38        29.76822
574.82        29.91371
575.25         29.7827
575.69        29.73361
576.12        29.59869
576.56        30.17166
576.99        30.37048
577.42        30.22586
577.86        30.15517
578.29        30.11871
578.73        29.91803
579.16        29.92879
579.60        29.95217
580.03         29.9192
580.47        29.80194
580.90        29.56952
581.33         29.6975
581.77        29.54249
582.20         29.1819
582.64        28.98342
583.07        28.85431
583.51        28.76075
583.94        28.77391
584.37        28.74889
584.81        28.64272
585.24        28.58039
585.68        28.63526
586.11        28.15545
586.54         27.9748
586.98        27.99449
587.41        28.31701
587.85        27.79323
588.28        27.65586
588.71        27.62485
589.15        27.82316
589.58        27.54157
590.01         27.8921
590.45         27.9183
590.88        27.32303
591.31        27.31391
591.75        27.65423
592.18        27.81612
592.61        27.77433
593.05        27.77059
593.48        27.96033
593.91        27.64951
594.35        27.73493
594.78        28.08436
595.21        28.38794
595.65        28.43508
596.08        28.12961
596.51        28.54219
596.94        28.69041
597.38        29.09509
597.81        29.49507
598.24        29.39984
598.68        30.01501
599.11         30.4119
599.54        30.55726
599.97        30.64771
600.41        31.30726
600.84        31.66163
601.27        31.89476
601.70        32.29947
602.14        32.56104
602.57        33.12563
603.00        33.50191
603.43        33.97501
603.87        34.53051
604.30        34.71082
604.73        35.01472
605.16        35.78849
605.60         36.1874
606.03        36.83289
606.46        37.30836
606.89        37.92653
607.32        38.00975
607.76        38.74467
608.19          38.831
608.62        39.15725
609.05         39.4853
609.48        39.82748
609.92         40.0732
610.35        40.85138
610.78        40.95818
611.21        40.74234
611.64        41.65596
612.07        41.91813
612.50        42.04795
612.94        42.29118
613.37          42.721
613.80        42.81606
614.23        43.18172
614.66        43.47194
615.09        43.85044
615.52        44.16932
615.96        44.41993
616.39        44.56435
616.82        45.04463
617.25        44.92537
617.68        45.36885
618.11        45.47496
618.54         45.6217
618.97        45.94452
619.40        46.36228
619.84        46.87526
620.27         46.9279
620.70        46.99668
621.13        46.88791
621.56        47.23846
621.99        47.04156
622.42        46.86934
622.85        46.88659
623.28        47.17697
623.71        47.15972
624.14        46.94883
624.57        47.20164
625.00        47.36214
625.43        47.10479
625.86        47.06858
626.29         47.1193
626.72        46.84027
627.15        46.72988
627.58        46.56256
628.01        46.55611
628.44         46.0422
628.87        45.70419
629.30        45.84838
629.73        45.45723
630.16        44.80881
630.59        44.72592
631.02        44.40908
631.45        44.19174
631.88        43.83274
632.31        43.30746
632.74        43.23764
633.17        42.60632
633.60        42.25139
634.03         41.8686
634.46        41.48167
634.89        41.06635
635.32        40.59831
635.75        40.08741
636.18         39.5605
636.61        39.04372
637.04        38.52695
637.47        38.04407
637.89        37.69408
638.32        37.43213
638.75        37.12635
639.18         36.7631
639.61        36.41081
640.04        36.08539
640.47        35.79176
640.90        35.53707
641.33        35.30542
641.76         35.0779
642.18        34.91268
642.61        34.66991
643.04        34.46788
643.47        34.29744
643.90        34.20908
644.33        34.21093
644.76        34.28891
645.18        34.40729
645.61         34.5035
646.04        34.56203
646.47        34.59589
646.90        34.64564
647.33        34.78004
647.75        35.02842
648.18        35.37215
648.61        35.75564
649.04        36.16856
649.47        36.58024
649.89        36.78453
650.32        36.91246
650.75        37.53875
651.18        38.54474
651.61        39.18832
652.03        39.39378
652.46        39.59552
652.89        39.98963
653.32        40.44894
653.74        41.13727
654.17         42.3584
654.60        42.47467
655.03         43.0237
655.46        43.21159
655.88        44.31598
656.31        45.25407
656.74        46.57885
657.16        46.44692
657.59        46.49718
658.02        46.29405
658.45        47.32595
658.87        47.63148
659.30        48.11429
659.73        48.15367
660.15        48.36372
660.58        48.64522
661.01        49.12315
661.44        49.71544
661.86        49.98227
662.29        49.98395
662.72        50.25716
663.14        50.79482
663.57        51.11564
664.00        51.20738
664.42          51.348
664.85        51.55612
665.27        51.71041
665.70        51.81787
666.13        51.93739
666.55        52.07871
666.98        52.23126
667.41        52.40112
667.83        52.58418
668.26         52.7725
668.69        52.98271
669.11        53.19165
669.54        53.37126
669.96        53.52458
670.39        53.58867
670.82        53.62513
671.24        53.86922
671.67        54.26069
672.09        54.45374
672.52        54.45733
672.94        54.48027
673.37        54.56672
673.80        54.68705
674.22        54.83525
674.65        54.92059
675.07        54.95333
675.50        54.99283
675.92        55.06196
676.35        55.14533
676.77        55.25155
677.20        55.39045
677.62        55.55083
678.05        55.68651
678.47        55.77764
678.90        55.88277
679.32        56.02884
679.75        56.13968
680.17        56.18472
680.60        56.68335
681.02         56.6705
681.45        56.81026
681.87         56.8243
682.30        56.76498
682.72        56.66864
683.15        56.60198
683.57        56.60482
684.00        56.62277
684.42        56.69093
684.85        56.86061
685.27        57.11932
685.70        57.49162
686.12        57.86989
686.54        58.03872
686.97        58.01139
687.39        57.97406
687.82         58.0009
688.24        58.09423
688.66        58.45869
689.09        58.47669
689.51         58.2688
689.94        58.22099
690.36        58.36183
690.78        58.41705
691.21        58.39735
691.63        58.48615
692.06        58.66758
692.48        58.79792
692.90        58.86587
693.33        58.93324
693.75        59.00391
694.17        59.04272
694.60        59.06076
695.02         59.1402
695.44        59.28732
695.87        59.42968
696.29        59.57129
696.71        59.83903
697.14        60.15501
697.56        60.24763
697.98        60.14323
698.41        60.17637
698.83        60.34798
699.25        60.49511
699.68        60.58398
700.10        60.69131
700.52        60.80161
700.94        60.89978
701.37        60.96626
701.79        61.00114
702.21        60.98983
702.64        60.95324
703.06        60.90953
703.48        60.90241
703.90        60.95107
704.33        61.04451
704.75        61.17155
705.17        61.29149
705.59        61.38715
706.01         61.4378
706.44        61.47388
706.86        61.63725
707.28        61.75379
707.70        62.00122
708.12        62.25116
708.55        62.22821
708.97        61.98068
709.39         61.8965
709.81        62.00769
710.23        62.05324
710.66        62.03482
711.08        62.14642
711.50        62.33786
711.92        62.45218
712.34        62.47262
712.76        62.44702
713.19        62.40237
713.61        62.42583
714.03        62.51988
714.45        62.65418
714.87        62.80987
715.29        62.96391
715.71        63.10406
716.13         63.2375
716.56        63.33688
716.98        63.42246
717.40        63.47336
717.82        63.49156
718.24        63.49797
718.66        63.53014
719.08        63.59644
719.50        63.68452
719.92         63.7797
720.34        63.85601
720.76          63.904
721.19        63.92543
721.61        63.93228
722.03        63.91396
722.45        63.87538
722.87        63.82204
723.29        63.77612
723.71        63.77227
724.13        63.82138
724.55        63.91938
724.97        64.04923
725.39        64.17434
725.81        64.28029
726.23        64.38347
726.65        64.49376
727.07        64.59428
727.49        64.70196
727.91        64.88608
728.33        65.09538
728.75        65.17706
729.17        65.12277
729.59        64.97842
730.01        64.78686
730.43        64.70374
730.85        64.77884
731.27         64.5508
731.69        64.77802
732.10        64.82484
732.52        64.89043
732.94        65.00916
733.36        65.17623
733.78        65.22983
734.20        65.12918
734.62        65.45164
735.04        65.16854
735.46        65.32925
735.88        65.56069
736.30        65.55918
736.72        65.36852
737.13         65.3194
737.55        65.41429
737.97        65.64442
738.39        65.90277
738.81        65.70461
739.23        65.19221
739.65        65.31055
740.06        65.93474
740.48        66.17054
740.90        65.95797
741.32        65.87585
741.74        65.87997
742.16        65.90398
742.57        65.93838
742.99        66.00781
743.41        66.10388
743.83        66.19745
744.25        66.27795
744.67        66.33855
745.08        66.39247
745.50        66.42947
745.92        66.46244
746.34        66.48744
746.75         66.4924
747.17        66.47321
747.59        66.44022
748.01        66.35302
748.42        66.25261
748.84        66.32954
749.26        66.53777
749.68        66.54961
750.09        66.39242
750.51        66.43368
750.93        66.64322
751.35         66.7233
751.76        66.65894
752.18        66.59921
752.60        66.55386
753.01        66.44769
753.43        66.32166
753.85        66.31731
754.27        66.45724
754.68        66.70939
755.10        66.99497
755.52        67.18391
755.93        67.25065
756.35        67.22257
756.77        67.13415
757.18        67.20921
757.60        67.50107
758.02        67.61332
758.43        67.41541
758.85        68.23165
759.26         67.5322
759.68        67.34727
760.10        67.68748
760.51        66.50677
760.93        66.30814
761.34        66.63016
761.76        67.48615
762.18        67.77023
762.59        67.36353
763.01        67.25557
763.42        67.52586
763.84        67.58225
764.26        67.50246
764.67        67.47174
765.09         67.5034
765.50        67.76608
765.92        68.22866
766.33        67.62567
766.75         67.5831
767.16        67.40015
767.58        67.55286
768.00        67.84683
768.41        68.23666
768.83        68.05273
769.24        68.08352
769.66        67.96332
770.07        67.99409
770.49        67.79994
770.90        68.00735
771.32        68.19442
771.73        68.21254
772.15        68.24479
772.56        68.20593
772.97        68.09592
773.39        67.95121
773.80        67.89552
774.22        67.96337
774.63        68.27538
775.05        68.69737
775.46        68.94186
775.88        68.92143
776.29        68.80511
776.70        68.65966
777.12        68.56303
777.53        68.57431
777.95        68.64729
778.36        68.76241
778.77        68.87301
779.19        68.96909
779.60        69.05706
780.02        69.10724
780.43        69.19062
780.84        69.34692
781.26        69.12186
781.67        69.22034
782.09        69.34854
782.50        69.61057
782.91        69.36884
783.33         69.0413
783.74        68.89091
784.15        69.04829
784.57        69.20476
784.98        69.31889
785.39        69.45357
785.81         69.5642
786.22        69.59631
786.63        69.56001
787.04        69.54939
787.46        69.58781
787.87          69.615
788.28        69.63791
788.70        69.68602
789.11        69.74268
789.52        69.78603
789.93         69.8179
790.35        69.89663
790.76        70.00541
791.17        69.95842
791.58        69.80196
792.00        69.75077
792.41        69.84658
792.82         69.9934
793.23        70.15697
793.65        70.24894
794.06        70.27542
794.47        70.40117
794.88        70.62025
795.29        70.51974
795.71        70.51866
796.12        70.49181
796.53        70.52803
796.94        70.23824
797.35        69.74287
797.76        69.72937
798.18        70.16375
798.59          70.423
799.00        70.48631
799.41        70.59783
799.82        70.68369
800.23        71.15775
800.64        70.86381
801.06        70.74789
801.47        70.57654
801.88        70.48246
802.29        70.49529
802.70         70.5991
803.11        70.73457
803.52         70.7687
803.93        70.67893
804.34        70.50275
804.75        70.33746
805.17         70.3525
805.58        70.61263
805.99        70.97484
806.40        71.32809
806.81         71.6369
807.22        71.76714
807.63        71.45057
808.04        70.85778
808.45        70.58994
808.86        70.75031
809.27        71.05322
809.68        71.36005
810.09         71.5313
810.50        71.50209
810.91        71.32567
811.32        71.10095
811.73        70.99928
812.14        71.07433
812.55        71.23048
812.96        71.41435
813.37        71.64404
813.78        71.83295
814.19        71.76878
814.60        71.53316
815.01        71.45599
815.42        71.57267
815.83        71.71524
816.24        71.82965
816.65        71.89449
817.05        71.88936
817.46        71.79446
817.87        71.67914
818.28        71.59435
818.69        71.55403
819.10        71.54099
819.51        71.54688
819.92        71.55447
820.33        71.55757
820.74        71.56927
821.14        71.56873
821.55        71.55538
821.96        71.51198
822.37        71.43726
822.78        71.37064
823.19         71.3837
823.60        71.49198
824.00        71.69706
824.41        71.88643
824.82        71.96214
825.23        71.90014
825.64        71.73667
826.04        71.57715
826.45         71.5609
826.86         71.7316
827.27        72.03687
827.68        72.38406
828.08        72.65047
828.49        72.72086
828.90        72.66832
829.31        72.54214
829.72        72.42841
830.12        72.38322
830.53        72.34025
830.94        72.29747
831.35        72.22034
831.75         72.1226
832.16        71.97703
832.57        71.84526
832.97        71.78792
833.38        71.81177
833.79        71.90683
834.20        72.01191
834.60        72.03069
835.01        71.96023
835.42        71.82032
835.82        71.70591
836.23        71.70602
836.64        71.86966
837.04        72.17392
837.45        72.48788
837.86        72.69768
838.26        72.77325
838.67        72.73357
839.08        72.63858
839.48         72.5714
839.89        72.56345
840.29        72.59018
840.70         72.6386
841.11        72.69318
841.51        72.76255
841.92        72.81764
842.33        72.86812
842.73        72.91944
843.14        72.92021
843.54        72.89278
843.95        72.82962
844.35        72.74098
844.76        72.62711
845.17        72.50166
845.57        72.38419
845.98        72.26371
846.38        72.17484
846.79        72.10696
847.19        72.09615
847.60        72.14894
848.00         72.2769
848.41        72.41829
848.81        72.58068
849.22        72.70505
849.62        72.80133
850.03        72.85979
850.43        72.84039
850.84        72.59995
851.24        72.17606
851.65        71.54778
852.05        70.96396
852.46        70.77399
852.86        71.05316
853.27        71.68828
853.67         72.3232
854.07        72.64896
854.48        72.56221
854.88        72.19126
855.29          71.614
855.69        71.19732
856.10        70.98548
856.50        70.96436
856.90        71.00962
857.31        70.95173
857.71        70.79182
858.12        70.54556
858.52        70.33514
858.92         70.2185
859.33         70.2011
859.73        70.28336
860.13        70.38484
860.54        70.39535
860.94        70.32165
861.34        70.17678
861.75        69.99397
862.15         69.8894
862.55          69.863
862.96          69.891
863.36        69.94884
863.76        69.98581
864.17        69.97644
864.57        69.95288
864.97        69.92554
865.38        69.88837
865.78        69.88982
866.18        69.90447
866.58        69.91181
866.99        69.89803
867.39        69.88286
867.79        69.82896
868.19        69.76376
868.60        69.69234
869.00        69.60034
869.40        69.52122
869.80        69.40241
870.21        69.16389
870.61        68.88782
871.01        68.56553
871.41         68.3084
871.81        68.26358
872.22         68.4279
872.62        68.78546
873.02        69.24561
873.42        69.61369
873.82        69.80916
874.22        69.88056
874.63        69.89398
875.03        69.93475
875.43        70.03614
875.83         70.1493
876.23        70.27065
876.63        70.40302
877.03        70.52796
877.44        70.63931
877.84        70.68528
878.24        70.54807
878.64        70.22187
879.04        69.76444
879.44        69.28522
879.84        68.92773
880.24        68.72533
880.64        68.65121
881.04        68.65804
881.44        68.65564
881.84         68.6199
882.24        68.57856
882.65        68.55309
883.05         68.6781
883.45        68.92443
883.85        69.23462
884.25        69.54212
884.65        69.76484
885.05        69.87785
885.45        69.90183
885.85        69.85038
886.25        69.75228
886.65          69.632
887.05        69.49625
887.45        69.36005
887.85        69.24078
888.25        69.14334
888.65        69.06841
889.04        69.01919
889.44        69.04008
889.84        69.10728
890.24         69.1965
890.64        69.26698
891.04        69.25905
891.44        69.16497
891.84        69.02202
892.24        68.84419
892.64        68.65096
893.04        68.47232
893.44         68.3163
893.83        68.28046
894.23        68.45026
894.63        68.84843
895.03        69.41377
895.43        70.01715
895.83        70.44484
896.23        70.62988
896.63        70.63056
897.02        70.49429
897.42        70.33862
897.82        70.19869
898.22        70.05553
898.62         69.9464
899.01        69.94627
899.41        70.04337
899.81        70.22699
900.21        70.43877
900.61        70.57256
901.00        70.57967
901.40        70.50065
901.80        70.33707
902.20         70.1072
902.59        69.85143
902.99        69.57577
903.39        69.33685
903.79        69.21559
904.18          69.228
904.58        69.34183
904.98         69.5444
905.38         69.8252
905.77        70.13654
906.17        70.46066
906.57        70.68921
906.96        70.66264
907.36        70.33714
907.76        69.81302
908.15        69.20312
908.55        68.63142
908.95        68.21425
909.34        67.90983
909.74        67.86427
910.14        68.22866
910.53         68.9871
910.93        70.05504
911.33        71.13239
911.72        71.70293
912.12        71.62569
912.52         71.0789
912.91         70.3444
913.31         69.8634
913.70        69.74595
914.10        69.86089
914.49        70.14073
914.89        70.39796
915.29         70.5665
915.68        70.70254
916.08        70.80028
916.47        70.82903
916.87          70.808
917.26        70.71511
917.66        70.57848
918.05        70.42708
918.45         70.2664
918.84        70.11124
919.24        69.97881
919.64        69.97156
920.03         70.1187
920.42        70.40136
920.82        70.69887
921.21        70.80653
921.61        70.67536
922.00        70.35693
922.40        70.04652
922.79          70.166
923.19        70.73956
923.58        71.63563
923.98        72.47634
924.37        72.75224
924.77        72.35305
925.16        71.45328
925.55        70.35186
925.95         69.5729
926.34        69.30367
926.74        69.37375
927.13        69.70911
927.52         70.0806
927.92        70.40279
928.31        70.73394
928.70        71.00373
929.10        71.07515
929.49        70.93533
929.89        70.56853
930.28        70.16159
930.67        69.96135
931.07        70.02883
931.46         70.3135
931.85        70.66079
932.24        70.85249
932.64        70.82615
933.03        70.65686
933.42        70.40975
933.82        70.18174
934.21        70.02087
934.60         69.9065
934.99        69.84666
935.39        69.83723
935.78        69.90759
936.17        70.05803
936.56         70.2868
936.96        70.56433
937.35        70.90269
937.74        71.24004
938.13        71.53131
938.53        71.73207
938.92        71.83731
939.31        71.85125
939.70        71.77493
940.09        71.61739
940.49        71.37518
940.88        71.09351
941.27        70.81929
941.66         70.6214
942.05        70.51595
942.44        70.50539
942.84        70.54662
943.23        70.49673
943.62        70.35213
944.01        70.14027
944.40        69.94328
944.79        69.91129
945.18        70.06886
945.57          70.342
945.97        70.59898
946.36        70.72433
946.75        70.65435
947.14        70.44404
947.53        70.13685
947.92        69.81445
948.31        69.53027
948.70         69.2719
949.09        69.08549
949.48        69.03871
949.87        69.12847
950.26        69.33284
950.65        69.57124
951.04        69.70499
951.43        69.69868
951.82        69.58998
952.21         69.4146
952.60        69.25366
952.99        69.13683
953.38        69.01958
953.77        68.93087
954.16        68.91731
954.55         68.9632
954.94        69.05802
955.33        69.07591
955.72        68.80301
956.11        68.20438
956.50        67.35161
956.89        66.43836
957.28        65.80508
957.66        65.60277
958.05        65.75587
958.44        66.12935
958.83        66.48069
959.22        66.71609
959.61        66.85677
960.00        66.99953
960.39        67.30755
960.78        67.78854
961.16        68.39202
961.55         68.8286
961.94        68.73212
962.33        68.04757
962.72        66.95615
963.11        65.81685
963.49        65.13573
963.88        65.03951
964.27        65.40743
964.66        66.03782
965.04        66.56972
965.43        66.78185
965.82        66.80307
966.21        66.75555
966.60        66.84782
966.98         67.1245
967.37        67.44582
967.76        67.69556
968.15        67.66262
968.53        67.31953
968.92         66.8106
969.31        66.24007
969.69         65.7196
970.08        65.31836
970.47        65.02737
970.86        65.07213
971.24        65.82637
971.63        67.19857
972.02        68.98454
972.40        70.76199
972.79        71.83532
973.17        72.17506
973.56        71.87867
973.95        71.24443
974.33        70.79143
974.72        70.68144
975.11         70.7388
975.49        70.77473
975.88        70.50687
976.26         69.8664
976.65        69.00999
977.04        68.01231
977.42        66.94067
977.81        65.84202
978.19        64.68919
978.58        63.84011
978.96        63.82011
979.35        64.69514
979.74        66.33857
980.12        68.21116
980.51        69.22566
980.89        69.21593
981.28        68.30695
981.66        67.08073
982.05        66.69094
982.43        67.42274
982.82        68.86256
983.20        70.37943
983.59        70.83653
983.97        70.08511
984.35        68.47495
984.74        66.55243
985.12        65.25195
985.51        64.91868
985.89        65.29565
986.28         66.1105
986.66        67.07253
987.04        67.98912
987.43        68.89233
987.81        69.73208
988.20        70.29901
988.58        70.56603
988.96        70.55202
989.35         70.1553
989.73        69.34953
990.12         68.1312
990.50        66.44913
990.88        64.79295
991.27        64.25507
991.65        65.14178
992.03        67.12426
992.42        69.11143
992.80          70.047
993.18        69.62618
993.56        68.01646
993.95         65.8262
994.33        64.54124
994.71        64.92192
995.10        66.27488
995.48        67.70892
995.86        68.13842
996.24        67.43583
996.63        65.86677
997.01        63.98807
997.39        63.00701
997.77        63.44258
998.15        64.86288
998.54         66.4465
998.92        67.11777
999.30        66.63055
999.68        65.33901
1000.06        63.77003
1000.45        62.84834
1000.83        62.97169
1001.21        63.76767
1001.59        64.86106
1001.97        65.72822
1002.35        66.22724
1002.73        66.58849
1003.12         66.8186
1003.50        66.72944
1003.88        66.39638
1004.26        65.78696
1004.64        65.26113
1005.02        65.31568
1005.40        65.98867
1005.78         67.2065
1006.16        68.44472
1006.54         68.7308
1006.92        67.82366
1007.30        65.99474
1007.69        64.06405
1008.07        63.28933
1008.45        64.04221
1008.83        65.87644
1009.21        67.92347
1009.59        68.93776
1009.97        68.56759
1010.35        67.03217
1010.73        64.82095
1011.11         63.2794
1011.49        63.12439
1011.86        64.07536
1012.24         65.2762
1012.62        65.77476
1013.00         65.3623
1013.38        64.41443
1013.76        63.33963
1014.14        62.76539
1014.52        62.90805
1014.90        63.54421
1015.28        64.45017
1015.66         65.2145
1016.04        65.61568
1016.41        65.83591
1016.79        65.77194
1017.17        65.65073
1017.55        65.52785
1017.93        65.37069
1018.31        65.14953
1018.69        64.79743
1019.06        64.36549
1019.44        63.96246
1019.82        63.73375
1020.20         63.9719
1020.58        64.67274
1020.95        65.49121
1021.33        66.35373
1021.71        67.21779
1022.09        67.98486
1022.46        68.64604
1022.84        68.76828
1023.22        67.35043
1023.60        64.17178
1023.97        59.25197
1024.35        53.80413
1024.73        50.35002
