SpectraSmart Spectrum 2.9.0.0
--------- Device Information -----------
Spectrum Name :  反射率_0
Saving Time :  2024/04/27 22:32:40
Spectro-Module Model Name : SE2030-DUVN
Spectro-Module Serial Number : OS361AC55029948
Wavelength Start : 200
Wavelength End : 1025
Wavelength Unit : Wavelength(nm)
Spectrum Unit : Reflectance(%)
-----------Spectrum Setting ------------
Integration Time : 20ms
Average : 10
Boxcar : 0
Background removal :  enabled
linearity correction :  enabled
SC :  disabled
Intensity correction :  disabled
DWT denoise :  enabled
savitzky-golay :  disabled
FFT :  disabled
Running average :  disabled
Kalman :  disabled
High pass :  disabled
---------------BEGIN--------------------
Wavelength(nm)             Reflectance(%)
200.29               0
200.75        -28.6756
201.21       -7.534307
201.67        12.57995
202.13        23.48006
202.58        28.22142
203.04        30.63458
203.50        33.16224
203.96        37.76509
204.42        43.94968
204.88        50.37619
205.34        55.62867
205.80         59.0873
206.26          60.956
206.72        60.84498
207.18        59.37507
207.64        59.45008
208.10        61.98497
208.55         65.8648
209.01        66.33825
209.47        60.79559
209.93        46.10239
210.39        7.187247
210.85       -111.0209
211.31       -256.0346
211.77       -86.44149
212.23        26.45423
212.69        65.61777
213.14        75.25104
213.60        69.95432
214.06        51.61375
214.52        17.05533
214.98       -9.825583
215.44      -0.9644541
215.90         21.7449
216.36        40.84724
216.81        51.07948
217.27        54.80294
217.73        55.76877
218.19        54.66035
218.65        51.60125
219.11        46.90404
219.57        40.09824
220.02         31.6105
220.48        25.32759
220.94        22.98445
221.40        23.84833
221.86        27.54204
222.32         33.2684
222.77        39.96439
223.23        46.88895
223.69        52.18164
224.15        53.78815
224.61        51.91191
225.06        47.13764
225.52        41.72293
225.98        39.77063
226.44        41.72094
226.90        45.17611
227.36        48.11749
227.81          48.984
228.27         47.8668
228.73        45.44472
229.19        42.05923
229.65        38.58189
230.10        35.64259
230.56        33.37332
231.02        31.92132
231.48        31.54469
231.93        32.02739
232.39        33.23668
232.85        34.77448
233.31         36.0745
233.77        36.98013
234.22        37.74099
234.68        38.08671
235.14        37.82242
235.60        36.96525
236.05        35.32826
236.51        33.78281
236.97        34.10392
237.43         36.8124
237.88        41.56988
238.34        46.22518
238.80        48.58694
239.26        48.10833
239.71        44.23288
240.17         37.3187
240.63        34.02416
241.08        39.77913
241.54        49.44307
242.00        57.06936
242.46         60.4953
242.91        60.60871
243.37        57.43404
243.83        49.07838
244.28         37.6493
244.74        36.11066
245.20        44.72393
245.66        52.95185
246.11        56.25277
246.57        55.71172
247.03        52.85132
247.48        47.42906
247.94        42.50896
248.40        42.36903
248.85        45.21294
249.31        50.26365
249.77        57.20889
250.22        64.39341
250.68        70.59528
251.14        75.15071
251.59        77.73471
252.05        78.70007
252.51        78.04661
252.96        74.28223
253.42         66.7589
253.88        57.94892
254.33        51.13164
254.79        47.50687
255.25        45.88873
255.70        45.43641
256.16         46.2515
256.62        48.18356
257.07        51.06113
257.53        54.37185
257.99        57.17749
258.44        58.84689
258.90        59.24152
259.35        58.30898
259.81        56.82213
260.27         54.8855
260.72        52.67537
261.18        50.70472
261.63          48.796
262.09        47.24517
262.55        46.01781
263.00        45.00498
263.46        44.27128
263.91        43.68649
264.37        43.36705
264.83        43.19774
265.28        43.09289
265.74        42.95535
266.19        42.49795
266.65         41.7623
267.11        40.79408
267.56        39.73288
268.02        38.89926
268.47         38.3282
268.93        37.94957
269.38        37.64479
269.84        37.24697
270.30         36.7006
270.75        36.06084
271.21        35.37297
271.66        34.65882
272.12        33.96146
272.57        33.24128
273.03         32.5445
273.48         31.8728
273.94        31.27714
274.39         30.7216
274.85        30.24198
275.31        29.81148
275.76        29.39865
276.22        29.02929
276.67        28.63974
277.13        28.22522
277.58        27.74779
278.04        27.26672
278.49        26.76917
278.95        26.33873
279.40        25.94399
279.86         25.6149
280.31        25.31553
280.77         25.1023
281.22        24.93122
281.68        24.82138
282.13        24.70406
282.59          24.524
283.04        24.26011
283.50        23.94659
283.95        23.63031
284.41        23.41508
284.86         23.3138
285.32         23.3224
285.77         23.3694
286.22        23.38158
286.68        23.35583
287.13        23.27369
287.59         23.2274
288.04        23.28667
288.50        23.47743
288.95        23.73587
289.41          23.965
289.86        23.97822
290.32        23.77869
290.77        23.43991
291.22         23.1099
291.68        23.00231
292.13        23.16022
292.59         23.5279
293.04        24.02419
293.50        24.54193
293.95        25.02869
294.40        25.52756
294.86        26.03792
295.31        26.54897
295.77        27.07397
296.22        27.59054
296.68        28.13701
297.13        28.76009
297.58        29.46145
298.04        30.21061
298.49        30.95472
298.95        31.63093
299.40        32.22292
299.85        32.75954
300.31        33.27533
300.76        33.78298
301.21        34.30129
301.67        34.82524
302.12        35.33918
302.58        35.86739
303.03        36.38481
303.48        36.88784
303.94        37.38292
304.39        37.82731
304.84        38.22957
305.30        38.60864
305.75        38.92131
306.20        39.14798
306.66        39.30577
307.11        39.37432
307.57        39.44026
308.02        39.56758
308.47        39.77975
308.93        40.05008
309.38        40.27668
309.83        40.33553
310.29        40.21626
310.74         39.9513
311.19        39.63321
311.65        39.40548
312.10        39.28942
312.55        39.24823
313.00        39.23694
313.46        39.18481
313.91        39.06363
314.36        38.90639
314.82        38.70928
315.27        38.46039
315.72        38.16926
316.18        37.84207
316.63        37.51773
317.08        37.28368
317.53        37.15326
317.99        37.09998
318.44        37.06319
318.89        36.92536
319.35        36.65997
319.80        36.30407
320.25        35.92221
320.70        35.62523
321.16        35.43454
321.61        35.32138
322.06         35.2308
322.51        35.07803
322.97        34.83422
323.42        34.54242
323.87        34.22502
324.32         33.9264
324.78        33.66084
325.23        33.41766
325.68        33.19727
326.13        33.01069
326.59        32.84001
327.04        32.70333
327.49        32.55632
327.94        32.33374
328.39        32.02082
328.85        31.62849
329.30        31.21031
329.75        30.84617
330.20        30.56982
330.66        30.35463
331.11        30.19344
331.56        30.01732
332.01        29.80555
332.46          29.576
332.92        29.34327
333.37        29.16335
333.82        29.03906
334.27        28.94994
334.72        28.87308
335.17        28.77457
335.63        28.63771
336.08        28.49473
336.53        28.34249
336.98        28.18816
337.43         28.0423
337.88        27.90372
338.34         27.7979
338.79        27.77167
339.24        27.82609
339.69        27.93961
340.14        28.05958
340.59        28.10271
341.05        28.04323
341.50        27.90586
341.95        27.71444
342.40        27.51837
342.85        27.33888
343.30        27.16766
343.75        27.00716
344.20        26.85915
344.66        26.73136
345.11        26.63051
345.56        26.55822
346.01        26.50984
346.46        26.47739
346.91        26.44637
347.36        26.42342
347.81        26.41883
348.26        26.43137
348.72        26.46631
349.17        26.47312
349.62        26.37348
350.07        26.16042
350.52        25.85012
350.97        25.56256
351.42        25.48904
351.87         25.6553
352.32        25.99872
352.77        26.33715
353.22        26.39025
353.67        26.10568
354.13        25.58678
354.58        24.99804
355.03        24.65681
355.48        24.64408
355.93        24.86632
356.38        25.16253
356.83         25.2813
357.28        25.15833
357.73        24.87573
358.18         24.5527
358.63        24.37044
359.08        24.36773
359.53        24.47106
359.98        24.58253
360.43        24.55719
360.88        24.36227
361.33        24.05539
361.78        23.70053
362.23        23.43026
362.68        23.29012
363.13         23.1762
363.58        23.04969
364.03        23.20592
364.48        23.05022
364.93        23.04249
365.38         23.0067
365.83         22.9453
366.28        22.85023
366.73        22.73149
367.18        22.57228
367.63        22.33653
368.08        22.03239
368.53        21.67616
368.98        21.34487
369.43        21.15794
369.88        21.13873
370.33        21.25648
370.78          21.411
371.23         21.4364
371.68        21.28677
372.13        20.99929
372.58        20.67112
373.03         20.4654
373.48        20.42422
373.93        20.50216
374.38        20.59499
374.83        20.53963
375.28        20.30491
375.72        19.93898
376.17        19.58282
376.62         19.4127
377.07        19.45998
377.52        19.64931
377.97        19.86105
378.42         19.9114
378.87        19.75906
379.32        19.47865
379.77        19.14323
380.22        18.85972
380.67        18.66428
381.11         18.5181
381.56        18.42777
382.01        18.40624
382.46        18.44249
382.91        18.53657
383.36        18.62313
383.81        18.59475
384.26        18.43539
384.71        18.17641
385.15         17.8906
385.60        17.72869
386.05        17.71328
386.50        17.80203
386.95        17.93269
387.40        18.00601
387.85        17.99492
388.29        17.92161
388.74        17.83717
389.19        17.77194
389.64        17.73123
390.09        17.68706
390.54        17.63265
390.98         17.5609
391.43        17.47787
391.88        17.39584
392.33        17.28951
392.78        17.14673
393.23        16.98111
393.67        16.72897
394.12        16.46558
394.57        16.48704
395.02          16.507
395.47        16.47069
395.91        16.31404
396.36        16.25807
396.81        16.30948
397.26        16.34611
397.71        16.33849
398.15        16.30599
398.60        16.26279
399.05        16.13833
399.50          15.994
399.95        16.02113
400.39        16.17721
400.84         16.2057
401.29        16.07757
401.74        15.90488
402.18        15.72893
402.63        15.59801
403.08        15.52874
403.53        15.45999
403.97        15.40182
404.42        15.42803
404.87        15.51108
405.32        15.57604
405.76        15.60346
406.21        15.57186
406.66        15.50883
407.11        15.53237
407.55        15.60905
408.00        15.56573
408.45        15.39892
408.90        15.16267
409.34         14.9389
409.79        14.92045
410.24        15.07313
410.68        15.14457
411.13        15.11195
411.58         15.1343
412.03        15.20054
412.47        15.21027
412.92        15.14887
413.37        15.05384
413.81          14.946
414.26        14.86723
414.71        14.82411
415.15        14.80448
415.60        14.80244
416.05        14.81286
416.49        14.83129
416.94        14.85756
417.39        14.87635
417.83        14.86477
418.28        14.81431
418.73        14.72322
419.17        14.62185
419.62        14.56484
420.07        14.56889
420.51        14.62651
420.96        14.68841
421.41        14.69384
421.85        14.62981
422.30        14.45455
422.74         14.2591
423.19        14.35659
423.64        14.69358
424.08        14.86273
424.53        14.78615
424.98        14.76626
425.42        14.80761
425.87        14.63174
426.31        14.32039
426.76          14.313
427.21         14.5365
427.65        14.46558
428.10        14.14717
428.54        14.01239
428.99        14.07111
429.44        14.23495
429.88        14.38066
430.33        14.14391
430.77        13.67489
431.22        13.59025
431.66        13.88464
432.11        14.11824
432.56        14.21746
433.00        14.30143
433.45         14.2401
433.89        13.94895
434.34        13.70139
434.78        13.03853
435.23        13.61085
435.67        14.08456
436.12        14.26812
436.57        14.31925
437.01        14.14382
437.46        14.03177
437.90        14.06572
438.35        14.16022
438.79        13.86964
439.24        13.76303
439.68        13.72646
440.13        13.71661
440.57        13.71157
441.02        13.79962
441.46        13.93506
441.91         13.8056
442.35        13.51685
442.80        13.65282
443.24        14.08994
443.69        14.03463
444.13        13.54197
444.58        13.33877
445.02        13.43709
445.47        13.47059
445.91        13.41055
446.36        13.40103
446.80        13.43317
447.24        13.46321
447.69        13.49466
448.13        13.56989
448.58        13.66748
449.02        13.70823
449.47        13.70229
449.91        13.73089
450.36        13.79854
450.80        13.85392
451.25        13.88446
451.69        13.89431
452.13        13.87535
452.58        13.81292
453.02        13.72397
453.47        13.64357
453.91        13.57931
454.36        13.54966
454.80        13.51592
455.24        13.40034
455.69        13.23309
456.13        13.05558
456.58        12.93256
457.02        13.00606
457.46        13.20767
457.91        13.27736
458.35        13.24936
458.79        13.26411
459.24        13.33422
459.68        13.34837
460.13        13.32075
460.57        13.25298
461.01        13.21317
461.46        13.20597
461.90        13.17367
462.34        13.17169
462.79        13.40145
463.23        13.49807
463.68        13.50515
464.12        13.46442
464.56        13.39055
465.01        13.33575
465.45        13.27237
465.89        13.15562
466.34         13.0405
466.78        12.98141
467.22        12.96774
467.67        13.25456
468.11        13.23826
468.55        13.25434
468.99        13.15655
469.44        13.12696
469.88        13.17091
470.32        13.18124
470.77         13.1576
471.21        13.14297
471.65        13.14303
472.10        13.15305
472.54        13.16368
472.98        13.17715
473.42        13.19671
473.87         13.1848
474.31        13.16359
474.75        13.29178
475.20        13.52293
475.64        13.59587
476.08        13.50736
476.52        13.51541
476.97        13.63742
477.41        13.60083
477.85        13.54546
478.29        13.67142
478.74        13.63688
479.18        13.59553
479.62        13.87755
480.06        13.95061
480.50        13.95495
480.95        13.89788
481.39        13.79668
481.83        13.97636
482.27        14.02614
482.72        14.04479
483.16        14.31878
483.60        14.40452
484.04        14.39885
484.48        14.42389
484.93        14.60731
485.37        14.52063
485.81        14.78786
486.25        15.32005
486.69        14.82964
487.14        14.70844
487.58        15.66764
488.02        15.44379
488.46         15.3386
488.90        15.53413
489.34        15.00362
489.79        14.86904
490.23        15.32958
490.67        15.73281
491.11        16.11223
491.55         16.1857
491.99        16.03629
492.43        16.10429
492.88        16.41058
493.32        16.64215
493.76        16.76232
494.20        16.91711
494.64        17.11842
495.08        17.27471
495.52        17.39524
495.96        17.64717
496.41        18.01847
496.85        18.03035
497.29        17.80871
497.73        18.03328
498.17        18.62957
498.61        18.97351
499.05        18.97705
499.49         18.9802
499.93        19.04454
500.37         19.1074
500.82        19.17969
501.26        19.32531
501.70        19.55842
502.14        19.46133
502.58        19.72386
503.02        19.82204
503.46        19.87568
503.90        19.91606
504.34        19.93386
504.78        19.97646
505.22        20.04084
505.66        20.08154
506.10         20.1138
506.54        20.21633
506.98        20.39562
507.42        20.52861
507.86        20.74319
508.30        20.85861
508.74        20.90999
509.18        20.90592
509.62        20.87772
510.06        20.87513
510.50        20.91146
510.94        20.97381
511.38        21.04407
511.82        21.09302
512.26        21.11258
512.70        21.11617
513.14        21.11531
513.58        21.11755
514.02        21.12733
514.46        21.15586
514.90        21.20353
515.34        21.19743
515.78         21.2568
516.22        21.28156
516.66        21.31184
517.10        21.34911
517.54        21.39369
517.98        21.44431
518.42        21.48265
518.86        21.48386
519.30        21.44488
519.74        21.37205
520.18        21.29891
520.62        21.27779
521.06        21.31724
521.50        21.40176
521.93        21.48779
522.37        21.49558
522.81        21.41143
523.25        21.25826
523.69        21.08505
524.13        20.96915
524.57        20.92837
525.01        20.93829
525.45        20.95812
525.89        20.92237
526.32        20.81434
526.76        20.66888
527.20        20.51598
527.64        20.40518
528.08        20.34921
528.52        20.32319
528.96        20.31912
529.40         20.3266
529.83        20.33357
530.27        20.34571
530.71        20.33076
531.15        20.23763
531.59        20.06472
532.03        19.83158
532.46         19.5956
532.90        19.46229
533.34        19.45147
533.78        19.53293
534.22        19.65203
534.66        19.72333
535.09        19.72095
535.53        19.67186
535.97         19.6026
536.41        19.55872
536.85        19.55392
537.28        19.57377
537.72        19.60086
538.16        19.60669
538.60         19.5892
539.04        19.56917
539.47        19.56319
539.91        19.60551
540.35        19.69608
540.79        19.82324
541.22        19.96951
541.66        20.10806
542.10        20.22823
542.54        20.34031
542.97        20.43884
543.41        20.52823
543.85        20.61085
544.29         20.6869
544.72         20.7754
545.16         20.9232
545.60        21.12846
546.04        21.37654
546.47        21.63417
546.91        21.84119
547.35        21.98166
547.79        22.08513
548.22        22.16911
548.66        22.25712
549.10        22.37511
549.53        22.59171
549.97        22.88632
550.41        23.14654
550.84        23.35329
551.28         23.5679
551.72        23.77935
552.15        23.94033
552.59        24.05608
553.03        24.13274
553.46         24.1959
553.90        24.30596
554.34        24.46969
554.77        24.67862
555.21        24.89968
555.65        25.07795
556.08        25.17375
556.52        25.26221
556.96        25.34767
557.39        25.47431
557.83        25.63015
558.27        25.69597
558.70        25.69304
559.14        25.75286
559.57        25.87599
560.01        26.02569
560.45        26.16468
560.88        26.22114
561.32        26.24173
561.75        26.30816
562.19        26.42965
562.63        26.60525
563.06        26.77174
563.50        26.72943
563.93        26.54269
564.37        26.54887
564.80        26.76035
565.24        27.01201
565.68        27.25116
566.11        27.45475
566.55        27.61042
566.98        27.74597
567.42        27.87202
567.85        27.92895
568.29        27.97794
568.72        28.09048
569.16        28.26791
569.60        28.51637
570.03        28.85381
570.47        28.94419
570.90        29.10389
571.34        29.73379
571.77        29.73521
572.21        29.72384
572.64        30.02468
573.08        29.96691
573.51        30.33611
573.95        30.51461
574.38        30.56452
574.82        30.62492
575.25        30.53722
575.69        30.42818
576.12        30.46317
576.56        31.06058
576.99        31.09239
577.42        31.05256
577.86        30.93643
578.29        31.21734
578.73        30.86446
579.16        30.79546
579.60        30.63587
580.03        30.48951
580.47        30.36161
580.90        30.28018
581.33        30.37813
581.77        30.33618
582.20         29.8683
582.64        29.85849
583.07        29.67343
583.51        29.54344
583.94        29.38426
584.37        29.28401
584.81        29.04509
585.24        28.96546
585.68        29.00477
586.11        28.76927
586.54        28.42183
586.98        28.47635
587.41        28.83705
587.85        28.35691
588.28        28.18235
588.71        28.16142
589.15        28.26031
589.58        28.05243
590.01        28.35525
590.45        28.28325
590.88        27.80509
591.31        27.71041
591.75        27.91446
592.18        28.08274
592.61        28.18162
593.05        28.27623
593.48        28.53843
593.91        28.08487
594.35        28.29494
594.78        28.57323
595.21        28.76904
595.65        28.82771
596.08        28.63073
596.51        29.08455
596.94        29.18835
597.38        29.58266
597.81        29.99217
598.24        29.90045
598.68        30.58352
599.11        30.84202
599.54        31.20261
599.97        31.46378
600.41        32.07319
600.84        32.46293
601.27        32.73123
601.70        32.96473
602.14        33.18066
602.57        33.73302
603.00        34.22168
603.43        34.82864
603.87        35.33175
604.30         35.6335
604.73        36.19511
605.16         36.6509
605.60        37.16291
606.03        37.68607
606.46         38.1718
606.89        38.67035
607.32        38.99162
607.76        39.74536
608.19        39.85336
608.62        40.14793
609.05        40.42392
609.48         40.8744
609.92        41.39833
610.35        41.96957
610.78        42.08276
611.21        42.07478
611.64        42.66874
612.07        42.90864
612.50        43.05603
612.94        43.24328
613.37        43.50861
613.80        43.85545
614.23        44.09575
614.66        44.45266
615.09        44.82703
615.52        45.17759
615.96        45.51994
616.39        45.51514
616.82        45.98506
617.25        46.13841
617.68        46.34319
618.11        46.49192
618.54        46.65867
618.97         46.9023
619.40        47.14738
619.84        47.39545
620.27        47.47623
620.70        47.44176
621.13         47.2515
621.56        47.87466
621.99         48.1085
622.42         48.1119
622.85        47.93325
623.28        48.11707
623.71        48.40129
624.14        47.99147
624.57         48.4786
625.00        48.01905
625.43        48.05384
625.86        47.95609
626.29        48.04718
626.72        47.57983
627.15        47.54284
627.58        47.30102
628.01        47.21749
628.44        46.71023
628.87        46.47295
629.30        46.55962
629.73        46.22879
630.16        45.56703
630.59        45.51766
631.02        45.19868
631.45        44.92147
631.88        44.58546
632.31        44.20744
632.74        43.60399
633.17        43.22848
633.60        42.71087
634.03        42.28267
634.46        41.85449
634.89        41.44135
635.32        41.00117
635.75          40.525
636.18        40.05382
636.61        39.59339
637.04         39.1067
637.47        38.62087
637.89        38.23817
638.32        37.93064
638.75        37.59599
639.18        37.22947
639.61        36.89572
640.04        36.58903
640.47        36.27837
640.90        35.96611
641.33        35.64902
641.76         35.3443
642.18        35.16824
642.61        34.99051
643.04        34.90967
643.47        34.87252
643.90         34.8589
644.33        34.85928
644.76        34.88305
645.18        34.92768
645.61         34.9843
646.04        35.05488
646.47        35.13525
646.90        35.25354
647.33        35.45799
647.75        35.76594
648.18        36.16457
648.61         36.5938
649.04        37.02574
649.47        37.42609
649.89        37.61966
650.32        37.74406
650.75        38.31415
651.18        39.25657
651.61        39.99613
652.03        40.39726
652.46        40.71646
652.89        41.14379
653.32        41.50985
653.74        42.03093
654.17        43.63721
654.60         43.4653
655.03        44.15727
655.46         44.5999
655.88        45.06233
656.31        46.66004
656.74        48.90794
657.16        48.84359
657.59        48.97527
658.02        48.12464
658.45        48.62705
658.87        48.78632
659.30          49.591
659.73        49.31585
660.15        49.67007
660.58        49.69416
661.01        50.20006
661.44         50.8934
661.86        51.25673
662.29        51.28646
662.72        51.31783
663.14        51.45731
663.57        51.72295
664.00        52.09004
664.42        52.33676
664.85        52.45702
665.27         52.6569
665.70        52.93542
666.13        53.03331
666.55        53.19495
666.98        53.26463
667.41        53.35284
667.83        53.47041
668.26        53.61834
668.69         53.9173
669.11        54.10347
669.54        54.30216
669.96        54.44091
670.39        54.46988
670.82        54.45599
671.24        54.64685
671.67        54.99013
672.09        55.13653
672.52        55.09747
672.94         55.0848
673.37        55.14373
673.80        55.24443
674.22        55.38826
674.65        55.49353
675.07        55.56919
675.50        55.67037
675.92        55.79696
676.35        55.89753
676.77        55.97453
677.20        56.04631
677.62        56.12768
678.05        56.22625
678.47        56.34359
678.90         56.4782
679.32        56.62476
679.75        56.78812
680.17        56.96371
680.60        57.15571
681.02        57.32317
681.45        57.41187
681.87        57.42995
682.30        57.30183
682.72        57.12722
683.15        57.27195
683.57        57.67647
684.00        57.77983
684.42        57.61247
684.85        57.67901
685.27        57.97921
685.70        58.21887
686.12        58.35207
686.54        58.46796
686.97         58.5424
687.39        58.55427
687.82        58.54134
688.24        58.45358
688.66         58.5911
689.09        58.69486
689.51        58.83217
689.94        58.93336
690.36        58.99517
690.78        59.03187
691.21        59.06485
691.63         59.1231
692.06        59.21556
692.48        59.32521
692.90        59.43923
693.33        59.52967
693.75        59.59747
694.17        59.66319
694.60        59.71643
695.02        59.78222
695.44        59.86235
695.87        59.88921
696.29        59.91145
696.71        60.15348
697.14        60.53736
697.56        60.70545
697.98        60.64927
698.41        60.70823
698.83        60.87217
699.25        60.96277
699.68        60.96456
700.10        61.00159
700.52        61.07348
700.94        61.15272
701.37        61.22552
701.79        61.30125
702.21        61.36165
702.64        61.42335
703.06        61.48404
703.48        61.55563
703.90        61.64719
704.33        61.75064
704.75        61.86549
705.17        61.97142
705.59        62.05979
706.01        62.10891
706.44         62.1404
706.86        62.28431
707.28        62.36626
707.70        62.56771
708.12         62.7849
708.55         62.7921
708.97        62.63418
709.39        62.65379
709.81         62.8549
710.23        62.95594
710.66        62.94521
711.08        63.01582
711.50        63.13567
711.92         63.1863
712.34         63.1648
712.76        63.10851
713.19        63.05368
713.61        63.10433
714.03        63.25836
714.45         63.4752
714.87        63.71155
715.29        63.90611
715.71        64.04029
716.13        64.13456
716.56        64.16692
716.98        64.18862
717.40        64.19495
717.82        64.13129
718.24        64.05161
718.66        64.16936
719.08        64.43991
719.50        64.55815
719.92        64.52402
720.34        64.58842
720.76        64.75132
721.19        64.83247
721.61        64.83878
722.03        64.86223
722.45        64.89137
722.87        64.84666
723.29        64.76157
723.71        64.70719
724.13         64.6927
724.55        64.76807
724.97        64.95448
725.39        64.84149
725.81        65.14487
726.23        65.27135
726.65        65.42523
727.07        65.57391
727.49         65.7118
727.91        65.82812
728.33         65.9006
728.75        65.91679
729.17        65.87807
729.59        65.79839
730.01        65.70195
730.43        65.63775
730.85        65.62383
731.27        65.62196
731.69        65.61712
732.10        65.76453
732.52        65.94415
732.94         66.0902
733.36         66.0443
733.78        66.63299
734.20         66.2263
734.62          66.359
735.04        65.76534
735.46        66.37293
735.88        66.53664
736.30        66.57565
736.72        66.18969
737.13        66.11463
737.55         66.3507
737.97        66.62774
738.39        66.84706
738.81        66.68424
739.23        66.27235
739.65        66.42203
740.06        67.00932
740.48        67.23386
740.90        67.03556
741.32        66.94188
741.74        66.91231
742.16        66.91895
742.57        66.95889
742.99        67.05177
743.41        67.14647
743.83        67.24403
744.25        67.11496
744.67        67.06499
745.08        67.08305
745.50         67.1618
745.92        67.32535
746.34         67.5634
746.75        67.75729
747.17        67.93199
747.59        67.66566
748.01         67.3151
748.42        66.92659
748.84        66.80108
749.26        66.96291
749.68        67.28137
750.09        67.62333
750.51        67.71325
750.93        67.55406
751.35        67.60526
751.76        67.88409
752.18        67.82845
752.60        67.37971
753.01         67.8584
753.43        67.43036
753.85        67.52039
754.27        67.56036
754.68        67.97913
755.10        68.05991
755.52        68.23834
755.93        68.32505
756.35        68.32871
756.77        68.25455
757.18        68.31623
757.60        68.57997
758.02        68.60519
758.43        68.28143
758.85        69.23507
759.26        68.85997
759.68        68.77365
760.10         68.5078
760.51         68.2785
760.93        68.11459
761.34         68.5128
761.76        68.90149
762.18        69.07673
762.59        68.92804
763.01        68.88017
763.42        69.02251
763.84        69.06309
764.26        69.06281
764.67        69.11599
765.09        69.23512
765.50        69.43465
765.92           69.63
766.33        69.41334
766.75         68.8344
767.16        68.59299
767.58        68.72499
768.00        68.86108
768.41        68.98031
768.83        69.17357
769.24        69.37013
769.66        69.50681
770.07        69.53728
770.49         69.3888
770.90        69.15474
771.32        69.16474
771.73        69.40886
772.15        69.49108
772.56        69.40623
772.97        69.46217
773.39        69.61552
773.80        69.57308
774.22        69.37505
774.63        69.46907
775.05        69.79734
775.46        69.99215
775.88        69.99255
776.29        70.04655
776.70        70.14927
777.12        70.19956
777.53        70.21524
777.95        70.20248
778.36        70.18119
778.77        70.17803
779.19        70.22946
779.60        70.28021
780.02        70.28815
780.43        70.46696
780.84        70.84247
781.26        70.40361
781.67        70.75459
782.09        70.98872
782.50        71.32063
782.91        71.72684
783.33        70.38628
783.74        70.61176
784.15        70.43606
784.57        70.50577
784.98         70.3784
785.39        70.50259
785.81        70.81291
786.22        70.90944
786.63        70.79689
787.04        70.83885
787.46         71.0729
787.87        71.12676
788.28        70.92448
788.70        71.38703
789.11        71.02701
789.52        70.92921
789.93        70.75683
790.35        70.97159
790.76        71.49403
791.17         71.6181
791.58        71.37923
792.00        71.45965
792.41        71.82653
792.82        71.84067
793.23        71.54211
793.65        71.42024
794.06        71.61789
794.47        72.03403
794.88        72.42689
795.29        73.07839
795.71        72.62465
796.12        72.35689
796.53        72.01695
796.94        71.86871
797.35        71.97452
797.76        72.06387
798.18        72.06683
798.59        72.24363
799.00        72.63846
799.41          71.947
799.82        72.34831
800.23        72.14281
800.64        71.99878
801.06        71.82342
801.47        71.69959
801.88        71.64794
802.29        71.65833
802.70        71.74532
803.11        71.88158
803.52         72.0173
803.93         72.1407
804.34         72.2604
804.75        72.36646
805.17        72.48476
805.58        72.65305
805.99        72.68692
806.40        72.62065
806.81         72.8844
807.22        73.29486
807.63        73.02825
808.04         72.2414
808.45        71.94946
808.86        72.25986
809.27        72.62011
809.68        72.88962
810.09        73.06628
810.50        73.09299
810.91         72.9739
811.32        72.79935
811.73        72.73734
812.14         72.8329
812.55        72.98816
812.96        73.15086
813.37        73.33847
813.78        73.46671
814.19        73.33341
814.60        73.00518
815.01        72.78621
815.42        72.71396
815.83        72.62735
816.24        72.54573
816.65        72.58102
817.05        72.74344
817.46        72.97011
817.87        73.21555
818.28        73.35782
818.69        73.37006
819.10        73.27701
819.51        73.15228
819.92         73.1314
820.33        73.25315
820.74        73.47538
821.14        73.70921
821.55         73.8552
821.96        73.86671
822.37        73.77541
822.78        73.65015
823.19        73.60995
823.60        73.69209
824.00        73.88608
824.41        74.06594
824.82        74.11697
825.23        74.01205
825.64        73.79728
826.04         73.6007
826.45        73.59231
826.86        73.81916
827.27        74.21435
827.68        74.64868
828.08         74.9409
828.49        74.96107
828.90         74.8026
829.31        74.54608
829.72        74.33276
830.12        74.23691
830.53        74.17176
830.94        74.13287
831.35         74.0766
831.75        74.01292
832.16        73.93016
832.57        73.85585
832.97         73.7903
833.38        73.73143
833.79        73.67636
834.20        73.65266
834.60        73.70055
835.01        73.83563
835.42        74.04369
835.82         74.2838
836.23        74.40478
836.64        74.39902
837.04        74.31312
837.45        74.19366
837.86        74.22076
838.26        74.43879
838.67        74.78046
839.08        75.13987
839.48        75.32318
839.89        75.28593
840.29        75.09495
840.70        74.86588
841.11         74.7868
841.51        74.92159
841.92        75.16438
842.33        75.44894
842.73        75.65968
843.14        75.70377
843.54        75.65739
843.95        75.53177
844.35        75.36285
844.76        75.16827
845.17        74.94166
845.57        74.74614
845.98        74.64845
846.38        74.68929
846.79        74.83582
847.19         75.0323
847.60        75.12357
848.00        75.09237
848.41        74.93485
848.81        74.75784
849.22        74.66812
849.62        74.72623
850.03        74.86508
850.43        75.01014
850.84         74.9595
851.24        74.72245
851.65        74.30479
852.05        73.89623
852.46        73.72476
852.86        73.85849
853.27         74.2296
853.67        74.61466
854.07        74.89535
854.48        74.99116
854.88        74.97569
855.29        74.82374
855.69        74.69757
856.10        74.55485
856.50        74.44951
856.90        74.30985
857.31        74.05854
857.71        73.74522
858.12        73.35683
858.52        73.05828
858.92        72.97993
859.33         73.1298
859.73        73.49266
860.13        73.90231
860.54        74.08693
860.94        73.99656
861.34        73.67085
861.75        73.20184
862.15        72.80531
862.55        72.52614
862.96        72.33629
863.36         72.1964
863.76        72.02977
864.17        71.81341
864.57        71.59067
864.97        71.44476
865.38         71.4749
865.78        71.73701
866.18        72.17403
866.58        72.60727
866.99        72.74142
867.39        72.53684
867.79        72.05126
868.19        71.52319
868.60        71.27631
869.00        71.37369
869.40        71.75718
869.80        72.24562
870.21        72.50102
870.61        72.48876
871.01        72.25835
871.41        71.97301
871.81        71.86177
872.22        71.95023
872.62        72.18866
873.02        72.47997
873.42        72.64262
873.82        72.61591
874.22         72.4762
874.63        72.31514
875.03        72.22699
875.43        72.24681
875.83        72.32907
876.23        72.44698
876.63        72.56326
877.03        72.65054
877.44        72.70576
877.84        72.71454
878.24        72.62374
878.64          72.428
879.04        72.14781
879.44        71.83514
879.84        71.55377
880.24        71.32919
880.64        71.17475
881.04        71.07104
881.44         70.9799
881.84        70.89674
882.24         70.8141
882.65         70.7967
883.05        71.04934
883.45        71.53407
883.85         72.1786
884.25        72.75987
884.65        72.95892
885.05        72.72784
885.45        72.16015
885.85        71.49857
886.25        71.17326
886.65        71.29955
887.05         71.7411
887.45        72.26719
887.85        72.51917
888.25        72.40033
888.65        72.02678
889.04        71.52595
889.44        71.14857
889.84        70.96082
890.24        70.88744
890.64        70.86937
891.04        70.82153
891.44        70.72187
891.84        70.62251
892.24        70.54436
892.64        70.50658
893.04        70.51437
893.44        70.54116
893.83        70.62289
894.23        70.75625
894.63        70.95638
895.03        71.21754
895.43        71.46038
895.83        71.55473
896.23        71.48656
896.63        71.30163
897.02        71.11687
897.42        71.14847
897.82         71.4191
898.22        71.86575
898.62        72.36379
899.01        72.71394
899.41        72.82742
899.81        72.76241
900.21         72.6019
900.61        72.48785
901.00        72.45937
901.40        72.50042
901.80        72.54282
902.20        72.49137
902.59        72.34572
902.99        72.13995
903.39        71.98003
903.79        72.01305
904.18        72.25619
904.58         72.6483
904.98        73.07152
905.38        73.37078
905.77         73.4886
906.17        73.45759
906.57        73.32927
906.96        73.21623
907.36        73.13651
907.76         73.1043
908.15        73.05088
908.55        72.79015
908.95         72.3418
909.34        71.74651
909.74        71.27309
910.14        71.26937
910.53        71.78543
910.93        72.68328
911.33        73.61627
911.72        73.99791
912.12        73.68041
912.52        72.89171
912.91        71.96027
913.31        71.37672
913.70        71.25382
914.10          71.437
914.49        71.81585
914.89        72.12804
915.29        72.28635
915.68        72.36844
916.08        72.40829
916.47        72.44258
916.87        72.50385
917.26        72.53889
917.66        72.55299
918.05        72.53833
918.45        72.49139
918.84        72.45336
919.24        72.42105
919.64        72.46495
920.03        72.61039
920.42        72.82487
920.82        73.07186
921.21         73.2843
921.61        73.42716
922.00        73.52527
922.40        73.59876
922.79        73.76318
923.19        73.99587
923.58        74.29187
923.98        74.52151
924.37          74.555
924.77        74.35484
925.16        73.94344
925.55        73.46954
925.95        73.18446
926.34        73.15736
926.74        73.32129
927.13        73.52875
927.52        73.43428
927.92        73.00856
928.31        72.36637
928.70        71.76025
929.10        71.56384
929.49        71.84933
929.89        72.44729
930.28        73.20232
930.67        73.71743
931.07        73.84139
931.46        73.72382
931.85        73.40739
932.24         73.0005
932.64        72.57753
933.03        72.10721
933.42        71.72971
933.82        71.67561
934.21        71.97915
934.60        72.59077
934.99        73.29933
935.39        73.70634
935.78        73.73419
936.17        73.46949
936.56        73.08543
936.96        72.88893
937.35        73.01923
937.74        73.32964
938.13        73.70452
938.53        73.99066
938.92        74.13686
939.31        74.18143
939.70        74.13607
940.09        74.00999
940.49        73.79593
940.88        73.53325
941.27         73.2206
941.66        72.86169
942.05        72.48555
942.44        72.13829
942.84        71.89979
943.23         71.8258
943.62        71.95757
944.01        72.25563
944.40        72.68706
944.79        73.18529
945.18        73.66857
945.57        74.08926
945.97        74.32727
946.36        74.30175
946.75         73.9762
947.14        73.39576
947.53        72.64867
947.92        71.90725
948.31        71.28105
948.70        70.78549
949.09        70.46796
949.48        70.36685
949.87        70.47376
950.26        70.77496
950.65        71.20292
951.04        71.64366
951.43         72.0415
951.82        72.38319
952.21        72.63853
952.60        72.78372
952.99        72.80629
953.38        72.69792
953.77        72.48636
954.16        72.22179
954.55        71.92918
954.94        71.62125
955.33        71.30803
955.72        70.99306
956.11        70.68945
956.50        70.41747
956.89         70.2093
957.28        70.09943
957.66        70.13004
958.05        70.28435
958.44        70.51621
958.83        70.75697
959.22        70.95097
959.61        71.02216
960.00        71.05665
960.39         71.2038
960.78        71.46867
961.16        71.88221
961.55         72.0461
961.94        71.40106
962.33        69.92679
962.72         67.8998
963.11        66.04076
963.49         65.3867
963.88        66.12247
964.27        67.94608
964.66         70.2096
965.04        71.71606
965.43         71.9695
965.82        71.35577
966.21        70.34781
966.60        69.70248
966.98        69.65189
967.37        69.89138
967.76        70.29841
968.15        70.64422
968.53        70.82619
968.92        70.99007
969.31        71.05607
969.69        70.83676
970.08        70.33414
970.47        69.59093
970.86        68.95018
971.24        69.04731
971.63        69.91611
972.02        71.31543
972.40        72.82469
972.79        73.72713
973.17        73.97546
973.56         73.7074
973.95        73.18618
974.33        72.84242
974.72        72.82513
975.11        72.97904
975.49        73.18717
975.88         73.3043
976.26        73.27458
976.65        73.15264
977.04        72.92446
977.42        72.52846
977.81        71.92174
978.19         71.0973
978.58        70.30142
978.96        69.90206
979.35         69.9865
979.74        70.54592
980.12        71.30188
980.51        71.55869
980.89        71.27044
981.28         70.4782
981.66        69.70268
982.05        69.91705
982.43        71.29185
982.82        73.44398
983.20         75.5717
983.59        76.31008
983.97        75.47187
984.35        73.38995
984.74        70.88182
985.12        69.40383
985.51        69.41086
985.89        70.50848
986.28        71.99997
986.66         72.9474
987.04        73.07214
987.43        72.61877
987.81        72.01563
988.20        71.88564
988.58        72.43575
988.96        73.42095
989.35        74.26094
989.73        74.19429
990.12        72.98514
990.50        70.75217
990.88        68.21983
991.27        67.07111
991.65        67.87848
992.03        70.09379
992.42        72.38653
992.80        73.38644
993.18          72.748
993.56        70.81062
993.95        68.27407
994.33        66.85792
994.71        67.42542
995.10        69.09021
995.48        71.02542
995.86         72.3529
996.24         72.9624
996.63        73.12746
997.01         72.9669
997.39         72.5545
997.77        72.00089
998.15        71.28408
998.54        70.45332
998.92        69.59791
999.30        68.74613
999.68         67.9855
1000.06        67.50249
1000.45        67.51729
1000.83        68.12575
1001.21        69.14214
1001.59        70.36422
1001.97        71.52797
1002.35        72.58572
1002.73        73.67517
1003.12         74.5935
1003.50        74.81337
1003.88        74.28576
1004.26         73.0989
1004.64        72.01332
1005.02        72.03233
1005.40        73.23365
1005.78        75.39246
1006.16        77.54635
1006.54         77.9231
1006.92        76.08881
1007.30        72.61176
1007.69        68.83152
1008.07        66.90309
1008.45        67.49151
1008.83        69.88995
1009.21        72.92912
1009.59        74.94555
1009.97        75.46658
1010.35        74.87355
1010.73        73.64801
1011.11        72.96931
1011.49        73.41316
1011.86        74.62335
1012.24        75.83522
1012.62        76.33244
1013.00        76.01777
1013.38        75.25776
1013.76        74.54051
1014.14        74.61105
1014.52        75.68074
1014.90        77.46246
1015.28        79.57767
1015.66        81.26671
1016.04        82.08797
1016.41        82.25101
1016.79        81.61002
1017.17        80.34036
1017.55        78.64791
1017.93        76.71094
1018.31        74.80779
1018.69        73.32172
1019.06        72.46951
1019.44         72.2037
1019.82        72.87038
1020.20        74.96342
1020.58        78.13403
1020.95        81.62487
1021.33        84.46768
1021.71        85.54048
1022.09        84.69758
1022.46        82.27654
1022.84        78.53379
1023.22        73.80812
1023.60        68.40221
1023.97        62.07014
1024.35        55.99996
1024.73        52.50227
