SpectraSmart Spectrum 2.9.0.0
--------- Device Information -----------
Spectrum Name :  反射率_0
Saving Time :  2024/04/27 22:15:06
Spectro-Module Model Name : SE2030-DUVN
Spectro-Module Serial Number : OS361AC55029948
Wavelength Start : 200
Wavelength End : 1025
Wavelength Unit : Wavelength(nm)
Spectrum Unit : Reflectance(%)
-----------Spectrum Setting ------------
Integration Time : 20ms
Average : 10
Boxcar : 0
Background removal :  enabled
linearity correction :  enabled
SC :  disabled
Intensity correction :  disabled
DWT denoise :  enabled
savitzky-golay :  disabled
FFT :  disabled
Running average :  disabled
Kalman :  disabled
High pass :  disabled
---------------BEGIN--------------------
Wavelength(nm)             Reflectance(%)
200.29               0
200.75       -62.47171
201.21       -10.48867
201.67        34.68687
202.13        56.57343
202.58        63.30567
203.04        63.15237
203.50        60.76208
203.96        61.46133
204.42        65.54364
204.88        70.23196
205.34        73.76013
205.80        74.83977
206.26        73.09484
206.72        68.03659
207.18        58.84189
207.64        49.89084
208.10        47.74087
208.55        51.50507
209.01        53.79996
209.47        50.92804
209.93        40.61158
210.39        11.99746
210.85       -73.93752
211.31       -168.6616
211.77       -37.11714
212.23        43.65751
212.69         69.9561
213.14        74.67398
213.60         67.4345
214.06        48.53009
214.52        14.86656
214.98       -9.846269
215.44       0.8379972
215.90        24.51857
216.36        44.63143
216.81        56.76023
217.27        63.37374
217.73        68.09593
218.19        70.49239
218.65        68.73615
219.11        62.56999
219.57        51.73455
220.02        38.78502
220.48        32.47049
220.94         35.4962
221.40        44.38294
221.86        54.64699
222.32        61.69987
222.77        65.07049
223.23        66.39252
223.69        66.07021
224.15         64.2512
224.61        61.25488
225.06        56.80684
225.52        52.45076
225.98         51.0074
226.44        52.65491
226.90        55.67684
227.36        58.38649
227.81        59.46362
228.27        59.01492
228.73         57.4604
229.19        55.10029
229.65        52.67244
230.10        50.59971
230.56        49.04686
231.02         47.8362
231.48         46.7975
231.93        45.83088
232.39        45.10601
232.85        44.88246
233.31        45.52564
233.77        46.93078
234.22        48.91767
234.68         50.6716
235.14        51.23307
235.60        50.44529
236.05        48.36991
236.51        45.96658
236.97        45.37556
237.43        47.40081
237.88        51.63504
238.34        56.00497
238.80        58.42019
239.26        58.34018
239.71        55.39436
240.17        49.97702
240.63        47.94534
241.08        53.57071
241.54        62.11841
242.00        68.21835
242.46        69.64735
242.91        66.67624
243.37        57.66243
243.83        37.71221
244.28          10.516
244.74        5.183127
245.20        24.99622
245.66        45.01839
246.11        53.89363
246.57        54.42545
247.03        49.48402
247.48        39.35997
247.94        32.04362
248.40        35.68151
248.85          44.867
249.31        54.43411
249.77         60.9821
250.22         64.3843
250.68        66.04984
251.14        66.88015
251.59         67.5049
252.05        68.24084
252.51        68.77574
252.96        68.14697
253.42        65.56611
253.88         61.4526
254.33        57.81694
254.79        55.69033
255.25        54.43621
255.70        53.64888
256.16        53.62158
256.62        54.43093
257.07        56.21498
257.53        58.65017
257.99        60.79122
258.44        61.99044
258.90        62.09033
259.35        60.99095
259.81        59.47513
260.27         57.6101
260.72        55.52868
261.18        53.74014
261.63        52.03986
262.09        50.73937
262.55        49.81482
263.00        49.13465
263.46        48.74098
263.91        48.46202
264.37         48.3814
264.83        48.36698
265.28        48.35145
265.74        48.24897
266.19        47.75767
266.65        46.94655
267.11        45.87105
267.56          44.721
268.02        43.90141
268.47        43.45309
268.93        43.27349
269.38         43.1895
269.84         42.9501
270.30        42.47396
270.75        41.84502
271.21        41.11427
271.66        40.31212
272.12        39.49605
272.57        38.61319
273.03        37.77143
273.48        37.05849
273.94        36.54165
274.39        36.16529
274.85        35.86346
275.31        35.44791
275.76        34.87074
276.22        34.21461
276.67        33.55448
277.13        33.10331
277.58        32.82674
278.04        32.69459
278.49        32.51323
278.95        32.12356
279.40        31.45517
279.86        30.65359
280.31        29.82507
280.77        29.24275
281.22        28.91314
281.68        28.79415
282.13        28.74039
282.59        28.60548
283.04        28.33083
283.50        27.97537
283.95        27.60611
284.41        27.36488
284.86        27.25615
285.32        27.25079
285.77        27.22514
286.22        27.04312
286.68        26.70654
287.13        26.24191
287.59        25.80401
288.04        25.54723
288.50        25.53019
288.95        25.66328
289.41        25.84754
289.86        25.88868
290.32        25.76576
290.77        25.53268
291.22        25.28901
291.68        25.17447
292.13        25.21712
292.59        25.38914
293.04          25.627
293.50        25.86121
293.95        26.06045
294.40        26.25533
294.86        26.49359
295.31        26.83763
295.77        27.30146
296.22        27.84199
296.68        28.39866
297.13        28.85476
297.58        29.19184
298.04         29.4478
298.49        29.68139
298.95        29.99604
299.40        30.41143
299.85        30.89028
300.31        31.41811
300.76        31.93121
301.21        32.41141
301.67        32.87894
302.12        33.28505
302.58        33.59742
303.03        33.80205
303.48        33.91925
303.94        34.03767
304.39        34.24775
304.84        34.57767
305.30        34.99712
305.75        35.39721
306.20        35.65075
306.66        35.74251
307.11        35.68787
307.57         35.5898
308.02        35.54187
308.47        35.58743
308.93        35.69592
309.38        35.78627
309.83        35.76289
310.29        35.61801
310.74        35.37464
311.19        35.11456
311.65        34.96057
312.10        34.91988
312.55         34.9546
313.00        34.99396
313.46         34.9314
313.91        34.73666
314.36        34.45205
314.82        34.11575
315.27        33.78445
315.72        33.48842
316.18        33.22298
316.63        32.99041
317.08        32.81525
317.53        32.69606
317.99        32.62205
318.44         32.5758
318.89        32.50942
319.35        32.40604
319.80         32.2739
320.25        32.11201
320.70         31.9302
321.16        31.72659
321.61        31.50113
322.06        31.26526
322.51        31.04254
322.97        30.83558
323.42        30.65804
323.87        30.47712
324.32        30.24371
324.78        29.94743
325.23        29.60599
325.68         29.2748
326.13        29.05128
326.59         28.9423
327.04        28.93943
327.49        28.94544
327.94        28.80888
328.39        28.49231
328.85        28.03195
329.30        27.53521
329.75         27.1811
330.20        27.02707
330.66        27.01245
331.11        27.06386
331.56        27.00903
332.01        26.80128
332.46        26.49615
332.92        26.15694
333.37        25.91932
333.82        25.81721
334.27        25.79853
334.72        25.83178
335.17        25.87084
335.63        25.88108
336.08        25.89444
336.53        25.86167
336.98         25.7108
337.43         25.4401
337.88        25.07343
338.34         24.7019
338.79        24.48264
339.24        24.45579
339.69        24.57927
340.14        24.77165
340.59        24.89369
341.05        24.89917
341.50        24.82999
341.95        24.71497
342.40        24.61011
342.85        24.53496
343.30        24.46466
343.75        24.39454
344.20        24.32368
344.66        24.25397
345.11        24.19065
345.56        24.12988
346.01        24.05695
346.46        23.97027
346.91         23.8721
347.36        23.77955
347.81        23.71809
348.26        23.69253
348.72        23.69772
349.17        23.70794
349.62        23.68065
350.07        23.60711
350.52        23.49616
350.97        23.39221
351.42        23.36586
351.87        23.42792
352.32        23.55483
352.77        23.67812
353.22        23.69714
353.67        23.59081
354.13        23.39782
354.58        23.16961
355.03        23.03933
355.48        23.03918
355.93        23.13974
356.38        23.24754
356.83        23.21752
357.28        23.02245
357.73        22.70625
358.18        22.38765
358.63        22.24937
359.08        22.32097
359.53         22.5382
359.98        22.75971
360.43        22.76517
360.88        22.51044
361.33        22.06967
361.78        21.57145
362.23        21.25968
362.68        21.20026
363.13        21.24871
363.58        21.29691
364.03        21.53521
364.48        21.33394
364.93        21.21222
365.38        21.03661
365.83        20.88191
366.28        20.76427
366.73        20.66109
367.18        20.56808
367.63        20.47004
368.08        20.36313
368.53        20.25903
368.98        20.15384
369.43         20.0344
369.88        19.90317
370.33        19.76691
370.78        19.63802
371.23        19.54049
371.68        19.47396
372.13        19.41747
372.58        19.36924
373.03        19.32487
373.48        19.27918
373.93        19.24677
374.38        19.17843
374.83         18.9962
375.28        18.70087
375.72          18.308
376.17        17.96218
376.62        17.85082
377.07        17.99533
377.52        18.31811
377.97        18.65665
378.42        18.75505
378.87        18.56048
379.32        18.17035
379.77        17.70248
380.22        17.33524
380.67        17.12354
381.11         17.0076
381.56        16.97406
382.01        17.00067
382.46        17.06417
382.91        17.17926
383.36        17.28155
383.81        17.26358
384.26        17.11135
384.71        16.85068
385.15        16.56723
385.60        16.43432
386.05        16.47672
386.50        16.64662
386.95        16.85678
387.40        16.96712
387.85        16.94657
388.29        16.83548
388.74        16.71466
389.19        16.65981
389.64        16.68305
390.09        16.73726
390.54        16.79391
390.98        16.80997
391.43        16.77662
391.88        16.71784
392.33        16.60883
392.78         16.4374
393.23        16.22353
393.67        15.90924
394.12        15.58796
394.57        15.57019
395.02        15.59046
395.47        15.59138
395.91        15.49157
396.36        15.46288
396.81        15.50286
397.26        15.50738
397.71        15.46732
398.15         15.4292
398.60        15.41075
399.05        15.33181
399.50        15.23823
399.95        15.29642
400.39        15.46217
400.84        15.49725
401.29        15.37573
401.74        15.20713
402.18        15.03416
402.63        14.90255
403.08        14.83477
403.53        14.78399
403.97        14.76048
404.42        14.82959
404.87        14.95578
405.32        15.05264
405.76        15.09631
406.21        15.06843
406.66        14.99796
407.11        15.00307
407.55        15.05362
408.00        14.98274
408.45        14.79026
408.90        14.53304
409.34        14.29483
409.79        14.26443
410.24        14.41056
410.68        14.49317
411.13        14.48935
411.58        14.54688
412.03         14.6576
412.47        14.72806
412.92        14.73751
413.37        14.71608
413.81        14.66397
414.26        14.59446
414.71        14.51199
415.15        14.41485
415.60        14.32285
416.05        14.27634
416.49        14.28635
416.94        14.34156
417.39        14.41016
417.83        14.44174
418.28        14.41737
418.73        14.34208
419.17        14.24888
419.62         14.1958
420.07        14.20226
420.51        14.26043
420.96        14.31846
421.41        14.31395
421.85        14.23476
422.30        14.03984
422.74        13.83382
423.19        13.94316
423.64        14.31913
424.08        14.56201
424.53        14.55929
424.98        14.55072
425.42        14.53022
425.87        14.24078
426.31        13.81682
426.76        13.76501
427.21        14.03316
427.65        14.09246
428.10        13.92727
428.54        13.87119
428.99        13.91729
429.44        14.00657
429.88        14.06074
430.33        13.79252
430.77        13.36237
431.22        13.34492
431.66        13.71107
432.11        13.98754
432.56        14.08735
433.00        14.14202
433.45        14.03793
433.89        13.72592
434.34        13.48337
434.78        12.83229
435.23        13.40126
435.67        13.89949
436.12        14.13558
436.57        14.25278
437.01        14.13738
437.46         14.0512
437.90        14.07224
438.35        14.12391
438.79        13.77992
439.24         13.6366
439.68         13.5903
440.13        13.59214
440.57        13.61605
441.02        13.74151
441.46          13.916
441.91         13.8239
442.35        13.56731
442.80        13.73124
443.24        14.19191
443.69        14.15018
444.13        13.64959
444.58        13.40734
445.02        13.43677
445.47         13.3801
445.91         13.2359
446.36        13.18656
446.80        13.23031
447.24        13.30928
447.69        13.40851
448.13        13.54091
448.58        13.67401
449.02        13.73681
449.47        13.73354
449.91        13.73762
450.36        13.75711
450.80        13.74387
451.25        13.70908
451.69        13.69446
452.13        13.69987
452.58        13.70206
453.02        13.69337
453.47        13.66777
453.91        13.62176
454.36        13.58362
454.80        13.53369
455.24        13.42573
455.69        13.29549
456.13        13.17073
456.58        13.09646
457.02        13.18757
457.46        13.36951
457.91        13.39215
458.35        13.30912
458.79        13.28732
459.24         13.3453
459.68        13.36276
460.13        13.34736
460.57        13.29052
461.01         13.2566
461.46        13.25497
461.90        13.22516
462.34        13.21772
462.79        13.43526
463.23        13.51263
463.68          13.503
464.12        13.46368
464.56        13.41088
465.01        13.39023
465.45        13.36361
465.89        13.27074
466.34        13.16298
466.78        13.09958
467.22        13.07387
467.67         13.3493
468.11        13.32132
468.55        13.32792
468.99        13.22218
469.44        13.18693
469.88        13.22854
470.32        13.24096
470.77        13.22822
471.21        13.23927
471.65         13.2789
472.10        13.33769
472.54        13.39632
472.98        13.44352
473.42         13.4782
473.87        13.46373
474.31        13.42824
474.75        13.54275
475.20        13.76261
475.64        13.82075
476.08        13.71053
476.52        13.68733
476.97        13.76824
477.41        13.68223
477.85        13.58041
478.29        13.67824
478.74        13.63675
479.18        13.60377
479.62        13.90147
480.06        13.98372
480.50        13.98716
480.95        13.92461
481.39        13.81281
481.83        13.97716
482.27        14.00769
482.72         13.9989
483.16        14.24725
483.60        14.33299
484.04        14.35235
484.48        14.40802
484.93        14.62444
485.37        14.51282
485.81        14.68017
486.25        15.08194
486.69        14.76156
487.14          14.248
487.58        15.43099
488.02        15.04755
488.46        14.94976
488.90        15.33653
489.34        15.00708
489.79        14.88451
490.23        15.12207
490.67        15.42151
491.11        15.83348
491.55        15.91564
491.99        15.73201
492.43        15.75066
492.88        15.99121
493.32        16.14955
493.76        16.20772
494.20        16.32581
494.64        16.51749
495.08        16.68953
495.52        16.83378
495.96        17.07726
496.41        17.40008
496.85        17.35871
497.29        17.08484
497.73        17.21605
498.17        17.69515
498.61        17.98635
499.05        17.99842
499.49        17.98413
499.93        17.99737
500.37        18.01623
500.82        18.06665
501.26        18.21546
501.70         18.4785
502.14        18.45659
502.58        18.77597
503.02        18.89947
503.46        18.93235
503.90        18.91351
504.34         18.8663
504.78        18.89038
505.22        18.99521
505.66        19.12125
506.10        19.24557
506.54        19.38356
506.98        19.52872
507.42        19.58416
507.86        19.70732
508.30        19.78244
508.74        19.85736
509.18         19.9196
509.62        19.97491
510.06        20.03203
510.50        20.09101
510.94        20.15439
511.38        20.20986
511.82        20.23669
512.26         20.2329
512.70        20.20625
513.14        20.18141
513.58        20.18979
514.02        20.23729
514.46        20.32728
514.90        20.43479
515.34        20.44668
515.78        20.46954
516.22        20.42242
516.66         20.3676
517.10        20.34469
517.54        20.36617
517.98        20.41907
518.42        20.47948
518.86        20.51286
519.30        20.50905
519.74        20.47711
520.18        20.44045
520.62        20.43418
521.06        20.46559
521.50        20.52499
521.93        20.58198
522.37        20.58029
522.81        20.51268
523.25        20.39373
523.69        20.26835
524.13        20.20687
524.57        20.22117
525.01        20.28724
525.45        20.35246
525.89        20.33311
526.32        20.21015
526.76        20.02337
527.20        19.82033
527.64        19.67889
528.08        19.62104
528.52        19.61839
528.96         19.6489
529.40        19.67896
529.83        19.69067
530.27        19.69358
530.71        19.67438
531.15        19.61134
531.59        19.50552
532.03        19.36551
532.46        19.21418
532.90        19.10305
533.34        19.04391
533.78        19.02722
534.22        19.04254
534.66        19.07069
535.09        19.10066
535.53        19.13899
535.97        19.17729
536.41        19.20502
536.85        19.21968
537.28        19.22211
537.72        19.21769
538.16        19.21517
538.60         19.2196
539.04        19.23426
539.47        19.25488
539.91        19.28592
540.35        19.32224
540.79        19.36765
541.22        19.41885
541.66        19.47049
542.10        19.52135
542.54        19.57493
542.97        19.63068
543.41        19.69957
543.85        19.78124
544.29        19.87451
544.72        19.97856
545.16        20.10724
545.60        20.25452
546.04        20.41665
546.47        20.58519
546.91        20.74184
547.35        20.87955
547.79        21.01006
548.22        21.13382
548.66        21.24879
549.10        21.37057
549.53        21.57413
549.97        21.83532
550.41        22.03909
550.84         22.1722
551.28        22.29811
551.72        22.42881
552.15        22.55651
552.59        22.69178
553.03        22.82533
553.46        22.96034
553.90        23.12101
554.34        23.30298
554.77        23.50845
555.21         23.7038
555.65        23.83475
556.08        23.86958
556.52        23.88163
556.96          23.897
557.39        23.99116
557.83        24.15749
558.27         24.2738
558.70        24.33471
559.14        24.42147
559.57        24.52417
560.01        24.62237
560.45        24.69801
560.88         24.7106
561.32        24.71187
561.75        24.76791
562.19        24.88369
562.63        25.05401
563.06        25.21562
563.50        25.18339
563.93        25.00964
564.37        24.99825
564.80        25.16055
565.24        25.34667
565.68        25.52091
566.11        25.68363
566.55        25.82684
566.98        25.96762
567.42        26.10732
567.85        26.17545
568.29        26.22406
568.72        26.32577
569.16        26.47598
569.60        26.67343
570.03        26.93465
570.47        26.94566
570.90        27.02395
571.34        27.56574
571.77        27.54842
572.21        27.57605
572.64        27.92264
573.08        27.82061
573.51        28.03911
573.95        28.15896
574.38         28.3296
574.82        28.22301
575.25        28.35024
575.69        28.27489
576.12        28.36371
576.56        28.65119
576.99        28.79581
577.42        28.62796
577.86        28.76865
578.29        28.82913
578.73         28.5624
579.16        28.51099
579.60        28.48483
580.03        28.36516
580.47        28.13867
580.90        28.21482
581.33        28.01012
581.77         28.1062
582.20        27.84203
582.64        27.39549
583.07        27.47608
583.51        27.39895
583.94         27.4871
584.37        27.42422
584.81        27.19081
585.24        27.03718
585.68        27.05587
586.11        26.60902
586.54        26.53365
586.98        26.53926
587.41        26.75916
587.85        26.27004
588.28        26.38274
588.71         26.2492
589.15        26.63875
589.58        26.18402
590.01        26.63216
590.45         26.6326
590.88        26.04432
591.31        26.01692
591.75        26.32891
592.18        26.42538
592.61        26.26613
593.05        26.45904
593.48        26.43961
593.91        26.25419
594.35        26.27888
594.78         26.6194
595.21        26.90637
595.65        26.97617
596.08        26.72677
596.51        27.14113
596.94         27.2929
597.38        27.66547
597.81        28.00313
598.24        27.98454
598.68        28.49404
599.11         28.8392
599.54        28.88846
599.97        28.96773
600.41        29.86006
600.84        30.24859
601.27        30.38301
601.70        30.63387
602.14        30.76401
602.57        31.37406
603.00        31.96953
603.43        32.43502
603.87         32.8642
604.30         33.1313
604.73        33.70691
605.16        34.51474
605.60         34.7942
606.03          35.342
606.46        35.84211
606.89        36.16471
607.32        36.49884
607.76        37.04784
608.19        37.24874
608.62        37.62554
609.05        38.02203
609.48        38.43693
609.92        38.81505
610.35        39.23212
610.78         39.4685
611.21        39.63161
611.64        40.26284
612.07        40.61701
612.50        40.85546
612.94        41.15252
613.37        41.54815
613.80        41.70373
614.23        42.05775
614.66        42.28289
615.09        42.60953
615.52         42.9304
615.96        43.25955
616.39        43.50138
616.82         44.0428
617.25        44.01794
617.68        44.62366
618.11        44.82856
618.54        44.99997
618.97        45.31174
619.40        45.71781
619.84        46.03423
620.27        46.20975
620.70        46.23722
621.13        46.11296
621.56        46.61684
621.99        46.56558
622.42        46.71679
622.85        46.38476
623.28        46.50966
623.71        46.82001
624.14         46.4964
624.57        46.74471
625.00        47.03177
625.43        46.63179
625.86        46.60638
626.29        46.66983
626.72        46.32118
627.15        46.24679
627.58        46.04605
628.01        46.01324
628.44        45.57219
628.87        45.36953
629.30        45.53449
629.73        45.04733
630.16        44.39419
630.59        44.27491
631.02        43.92251
631.45        43.62306
631.88        43.23757
632.31        42.76463
632.74        42.47313
633.17        41.96352
633.60        41.54547
634.03        41.09802
634.46        40.63779
634.89        40.16378
635.32        39.67462
635.75         39.1783
636.18         38.6978
636.61        38.22909
637.04        37.71693
637.47        37.18436
637.89        36.74022
638.32        36.36972
638.75        35.99384
639.18        35.61405
639.61        35.28488
640.04        34.99417
640.47        34.70197
640.90        34.40487
641.33        34.10146
641.76        33.80381
642.18        33.61629
642.61        33.41424
643.04        33.29385
643.47        33.21172
643.90        33.16166
644.33         33.1381
644.76        33.14646
645.18         33.1813
645.61        33.22717
646.04        33.28315
646.47        33.34961
646.90         33.4482
647.33        33.61162
647.75        33.85156
648.18        34.17298
648.61        34.53796
649.04         34.8946
649.47        35.24352
649.89        35.54975
650.32        35.86767
650.75        36.44576
651.18        37.21125
651.61         37.7289
652.03        37.97672
652.46        38.37685
652.89        39.07121
653.32        39.55721
653.74        39.98076
654.17        41.20337
654.60        41.72427
655.03        41.37461
655.46        42.66856
655.88        43.04914
656.31        44.24603
656.74         44.9874
657.16        44.83927
657.59        45.28544
658.02        45.63182
658.45        46.45575
658.87         46.7354
659.30        47.55836
659.73        47.74247
660.15        47.91271
660.58        48.30325
661.01        48.73589
661.44        49.32545
661.86        49.79547
662.29        50.11866
662.72        50.24614
663.14        50.29293
663.57        50.64183
664.00        51.24432
664.42        51.59618
664.85        51.68308
665.27        51.85787
665.70        52.14752
666.13        52.26872
666.55        52.49422
666.98        52.65739
667.41        52.84945
667.83        53.07052
668.26        53.31463
668.69        53.57798
669.11        53.83906
669.54        54.07291
669.96        54.27898
670.39        54.42863
670.82        54.54071
671.24        54.71043
671.67        54.93581
672.09        54.98885
672.52        55.15262
672.94        55.20684
673.37          55.275
673.80         55.4524
674.22        55.72775
674.65        55.92289
675.07        56.03213
675.50        56.13909
675.92        56.26031
676.35        56.37176
676.77        56.48481
677.20        56.60763
677.62        56.74387
678.05        56.88403
678.47        57.02686
678.90        57.18092
679.32        57.35052
679.75         57.5542
680.17        57.78905
680.60        58.05135
681.02        58.29968
681.45         58.4688
681.87        58.56193
682.30        58.53514
682.72        58.46717
683.15        58.62495
683.57          58.972
684.00        59.10049
684.42        59.04351
684.85        59.15868
685.27        59.43979
685.70        59.73903
686.12        59.97755
686.54        60.02877
686.97        59.93683
687.39         59.9936
687.82        60.19994
688.24        60.32861
688.66        60.38934
689.09         60.4884
689.51        60.64329
689.94        60.77974
690.36        60.89878
690.78        61.00073
691.21        61.08953
691.63        61.17746
692.06        61.26534
692.48        61.32856
692.90        61.37336
693.33        61.41508
693.75        61.46035
694.17        61.52129
694.60        61.59736
695.02        61.67801
695.44         61.7776
695.87        61.97066
696.29        62.22637
696.71        62.45215
697.14        62.60125
697.56        62.65763
697.98        62.65671
698.41        62.76245
698.83        62.97303
699.25        63.21839
699.68        63.44795
700.10        63.66246
700.52        63.83272
700.94        63.96656
701.37        64.03417
701.79        64.02441
702.21         63.9292
702.64        63.77238
703.06        63.62134
703.48        63.59813
703.90        63.73371
704.33        63.99699
704.75        64.30892
705.17        64.51062
705.59        64.55505
706.01        64.45985
706.44        64.32979
706.86        64.40363
707.28        64.51032
707.70        64.91352
708.12        65.44392
708.55         65.4464
708.97        64.96227
709.39         65.4947
709.81        65.70486
710.23        65.95686
710.66        65.80474
711.08        65.97145
711.50        65.94727
711.92        65.97887
712.34        65.94009
712.76        65.87869
713.19        65.83081
713.61        65.90504
714.03        66.10002
714.45        66.37213
714.87        66.65504
715.29         66.8515
715.71        66.93622
716.13          66.936
716.56        66.87383
716.98        66.86623
717.40        66.92113
717.82        67.01481
718.24        67.13467
718.66        67.26144
719.08        67.38282
719.50        67.50284
719.92        67.61522
720.34        67.70615
720.76        67.77109
721.19          67.803
721.61        67.81176
722.03        67.78685
722.45        67.73273
722.87        67.65531
723.29        67.58358
723.71        67.56081
724.13        67.60094
724.55        67.70121
724.97        67.82938
725.39        67.92937
725.81        67.98493
726.23        68.00273
726.65        68.02509
727.07        68.12285
727.49        68.30536
727.91         68.5475
728.33        68.77648
728.75        68.87215
729.17        68.81136
729.59        68.63898
730.01        68.44175
730.43        68.35941
730.85         68.4276
731.27        68.59598
731.69        68.81901
732.10        69.01817
732.52        69.14632
732.94        69.27554
733.36        69.40533
733.78        69.38953
734.20        69.20764
734.62        69.46766
735.04        69.09427
735.46        69.21886
735.88        69.46825
736.30        69.52375
736.72        69.40888
737.13         69.4962
737.55        69.71385
737.97        69.78622
738.39        69.74461
738.81        69.29916
739.23        69.40775
739.65        69.43398
740.06        69.56938
740.48        69.68346
740.90        69.62333
741.32        69.66378
741.74        69.69256
742.16        69.79689
742.57        69.94955
742.99        70.17289
743.41        70.40088
743.83         70.4295
744.25        70.28292
744.67        70.17235
745.08        70.16387
745.50        70.20568
745.92        70.33858
746.34        70.54367
746.75        70.70415
747.17        71.07684
747.59        70.86097
748.01        70.68123
748.42         70.4247
748.84        70.41564
749.26        70.62951
749.68        70.74348
750.09        70.72466
750.51        70.72598
750.93         70.7578
751.35        70.81313
751.76         70.8771
752.18        70.86887
752.60        70.79356
753.01        70.71743
753.43        70.67162
753.85        70.70582
754.27        70.82469
754.68         71.0427
755.10        71.30506
755.52        71.42334
755.93        71.43403
756.35        71.58832
756.77        71.78549
757.18        71.88556
757.60        71.94017
758.02        71.58861
758.43        70.89989
758.85        71.90749
759.26        72.04282
759.68        71.97935
760.10        71.43073
760.51        70.94006
760.93        71.78326
761.34        71.81946
761.76        72.53915
762.18        72.34428
762.59         71.8043
763.01        71.84288
763.42        72.48553
763.84        72.67868
764.26        72.40429
764.67        72.29893
765.09        72.34609
765.50        72.49084
765.92        72.63618
766.33        72.51028
766.75        72.09733
767.16        71.78178
767.58         71.6602
768.00         71.8234
768.41        72.27875
768.83        72.68481
769.24        72.88601
769.66        73.15365
770.07        73.48737
770.49        72.73563
770.90        72.83263
771.32        72.68717
771.73        72.85966
772.15        72.90311
772.56        72.83222
772.97        72.96736
773.39        73.21979
773.80        73.24197
774.22        73.05585
774.63        73.14888
775.05        73.46789
775.46        73.63629
775.88        73.60141
776.29        73.62635
776.70        73.71291
777.12        73.76939
777.53        73.81109
777.95        73.82877
778.36        73.85458
778.77        73.90623
779.19        73.98915
779.60         74.1549
780.02         74.3112
780.43        74.27985
780.84        74.08247
781.26        73.84355
781.67         73.7317
782.09        73.96436
782.50        74.26655
782.91        74.80247
783.33        73.71142
783.74        73.58803
784.15        73.90065
784.57        74.09537
784.98        74.16285
785.39        74.22963
785.81        74.63483
786.22        74.87897
786.63        75.02115
787.04        75.11163
787.46        75.15705
787.87        75.09592
788.28        74.97689
788.70         74.9248
789.11        74.95096
789.52        74.98228
789.93        75.00866
790.35        75.16412
790.76         75.3979
791.17        75.28951
791.58        74.93945
792.00        74.97225
792.41         75.3752
792.82        75.52931
793.23         75.4335
793.65        75.51155
794.06        75.78267
794.47        76.03208
794.88        76.19241
795.29         76.2043
795.71        76.16601
796.12        75.98222
796.53        75.74112
796.94        75.67074
797.35         75.7617
797.76        75.70783
798.18        75.53691
798.59        75.55061
799.00        75.76971
799.41        75.82983
799.82        76.03889
800.23        76.09695
800.64        76.09544
801.06        76.00679
801.47        75.90976
801.88        75.84699
802.29        75.83627
802.70        75.87166
803.11        75.94769
803.52        76.02321
803.93        76.07787
804.34        76.19582
804.75        76.36361
805.17        76.32899
805.58        76.20577
805.99        76.46864
806.40        76.98904
806.81        77.07437
807.22        76.70125
807.63        76.31726
808.04        76.06098
808.45        75.95095
808.86        76.04269
809.27        76.35734
809.68        76.78135
810.09        77.07986
810.50        77.17973
810.91        77.13686
811.32        77.01167
811.73        76.92772
812.14         76.9279
812.55        76.92555
812.96        76.89965
813.37        76.93955
813.78        76.98801
814.19        76.81393
814.60        76.50871
815.01        76.42299
815.42        76.58859
815.83        76.82599
816.24        77.07105
816.65        77.28051
817.05        77.41357
817.46        77.44215
817.87        77.41744
818.28        77.36947
818.69        77.31689
819.10        77.25164
819.51        77.20191
819.92        77.22093
820.33        77.31911
820.74        77.47306
821.14        77.63533
821.55        77.78671
821.96         77.8818
822.37        77.88051
822.78        77.80567
823.19        77.75349
823.60        77.74465
824.00        77.75442
824.41        77.72649
824.82        77.68084
825.23        77.61604
825.64        77.54298
826.04        77.49702
826.45        77.48725
826.86         77.5296
827.27        77.61753
827.68        77.72725
828.08         77.8511
828.49        77.90869
828.90        77.93829
829.31        77.95825
829.72        78.00381
830.12        78.10506
830.53        78.20087
830.94        78.27874
831.35        78.28357
831.75        78.22739
832.16        78.07922
832.57        77.90977
832.97        77.80022
833.38        77.77202
833.79        77.82086
834.20        77.90552
834.60        77.95684
835.01        77.97039
835.42        77.94726
835.82        77.96004
836.23        78.04702
836.64        78.24144
837.04        78.54223
837.45        78.79768
837.86        78.86931
838.26        78.73979
838.67        78.43595
839.08        78.11376
839.48        78.01125
839.89        78.18228
840.29        78.55349
840.70        78.97765
841.11        79.22211
841.51        79.24213
841.92        79.06823
842.33        78.81617
842.73        78.67426
843.14        78.64811
843.54        78.70844
843.95        78.78595
844.35        78.79597
844.76        78.70274
845.17        78.54959
845.57        78.38419
845.98        78.23405
846.38        78.14255
846.79        78.07173
847.19        78.02997
847.60        77.97604
848.00        77.92702
848.41        77.86498
848.81        77.83392
849.22        77.82203
849.62        77.86746
850.03        77.94221
850.43        78.04904
850.84        78.11127
851.24        78.16345
851.65        78.14919
852.05        78.17696
852.46         78.3091
852.86        78.54286
853.27        78.86317
853.67        79.07531
854.07        79.10535
854.48        78.89608
854.88        78.51603
855.29        77.99806
855.69        77.64055
856.10        77.44675
856.50        77.45037
856.90        77.50831
857.31        77.41515
857.71        77.17111
858.12        76.78061
858.52        76.42287
858.92        76.25724
859.33        76.30398
859.73        76.54282
860.13        76.80364
860.54        76.81674
860.94        76.55739
861.34        76.09352
861.75        75.56525
862.15        75.25061
862.55        75.19708
862.96        75.33582
863.36        75.58267
863.76        75.78427
864.17        75.87014
864.57        75.88586
864.97        75.86894
865.38         75.8581
865.78        75.90988
866.18        75.98055
866.58         75.9845
866.99        75.80344
867.39        75.46508
867.79        75.00126
868.19        74.56539
868.60         74.3333
869.00        74.32899
869.40        74.53194
869.80        74.83164
870.21        75.02046
870.61        75.09985
871.01        75.06599
871.41        74.98983
871.81         74.9767
872.22        75.02988
872.62        75.14414
873.02        75.30383
873.42        75.47204
873.82        75.62708
874.22        75.78628
874.63        75.96362
875.03        76.14685
875.43        76.34295
875.83        76.53011
876.23        76.70508
876.63        76.86977
877.03        77.00755
877.44        77.10038
877.84        77.11327
878.24        76.95805
878.64        76.63857
879.04        76.21357
879.44        75.77851
879.84        75.45074
880.24        75.26443
880.64        75.20336
881.04        75.23571
881.44        75.30616
881.84        75.37546
882.24        75.41412
882.65        75.42784
883.05        75.53182
883.45        75.69048
883.85        75.90672
884.25        76.01337
884.65        75.76232
885.05        75.14789
885.45         74.2474
885.85        73.42159
886.25         73.2878
886.65        73.96312
887.05        75.23197
887.45        76.60147
887.85        77.31856
888.25        77.20527
888.65        76.47676
889.04        75.49083
889.44        74.90082
889.84        74.88036
890.24        75.22078
890.64        75.68639
891.04        75.90815
891.44        75.78817
891.84        75.49637
892.24        75.14036
892.64        74.86197
893.04        74.72114
893.44          74.646
893.83        74.69719
894.23        74.91948
894.63        75.31892
895.03        75.87439
895.43        76.41846
895.83         76.6703
896.23         76.5759
896.63        76.21629
897.02        75.78159
897.42        75.60854
897.82         75.7541
898.22        76.13384
898.62        76.58652
899.01        76.85079
899.41        76.82783
899.81        76.60762
900.21        76.33244
900.61        76.23376
901.00        76.35995
901.40        76.64552
901.80        76.94213
902.20        77.03568
902.59        76.88921
902.99        76.56962
903.39        76.21602
903.79        76.03484
904.18        76.08051
904.58        76.29502
904.98        76.58058
905.38        76.80689
905.77        76.92305
906.17         76.9634
906.57        76.96936
906.96        77.03144
907.36        77.14132
907.76        77.29211
908.15        77.40398
908.55        77.27522
908.95        76.91898
909.34        76.38925
909.74        75.91443
910.14        75.78275
910.53        76.05753
910.93        76.62756
911.33        77.28996
911.72        77.69234
912.12        77.71344
912.52         77.4772
912.91        77.11611
913.31        76.85859
913.70        76.75987
914.10        76.74172
914.49        76.79322
914.89        76.83046
915.29        76.84782
915.68        76.87636
916.08        76.92255
916.47        76.98023
916.87        77.05922
917.26        77.12099
917.66        77.16866
918.05        77.18031
918.45        77.13964
918.84        77.07801
919.24        76.96345
919.64        76.82958
920.03        76.71294
920.42        76.61906
920.82        76.56197
921.21        76.54797
921.61        76.56124
922.00        76.59668
922.40        76.69327
922.79        76.99577
923.19        77.45882
923.58        78.06438
923.98        78.55563
924.37        78.60756
924.77        78.16473
925.16        77.31561
925.55        76.38901
925.95        75.95642
926.34        76.17393
926.74        76.86288
927.13        77.72258
927.52        78.16143
927.92        78.05678
928.31        77.57905
928.70        76.99906
929.10        76.72083
929.49        76.84428
929.89        77.18374
930.28        77.62626
930.67        77.86086
931.07        77.77455
931.46          77.519
931.85        77.13638
932.24        76.71037
932.64        76.30384
933.03         75.9031
933.42        75.60867
933.82        75.58367
934.21        75.85427
934.60        76.37682
934.99        77.01831
935.39        77.52036
935.78        77.82789
936.17         77.9722
936.56         78.0097
936.96        78.04346
937.35         78.1662
937.74        78.31925
938.13        78.47405
938.53        78.60217
938.92        78.69873
939.31         78.7567
939.70        78.83424
940.09         79.0168
940.49        79.26804
940.88        79.57665
941.27         79.7692
941.66        79.59147
942.05        79.02509
942.44        78.19214
942.84        77.31837
943.23        76.71564
943.62         76.5184
944.01        76.63714
944.40        77.00134
944.79        77.46618
945.18        77.91513
945.57        78.33167
945.97        78.59364
946.36        78.60165
946.75         78.3089
947.14        77.74509
947.53        76.97163
947.92        76.13268
948.31        75.34212
948.70        74.63694
949.09        74.11771
949.48         73.9005
949.87        73.99797
950.26        74.37822
950.65        74.93993
951.04        75.51388
951.43         76.0167
951.82        76.43365
952.21        76.74177
952.60        76.92877
952.99        76.98807
953.38        76.92226
953.77        76.71619
954.16        76.35822
954.55        75.87606
954.94        75.29477
955.33        74.75711
955.72        74.48607
956.11        74.52878
956.50        74.83961
956.89        75.22551
957.28        75.32491
957.66        75.07487
958.05        74.57792
958.44        74.03765
958.83         73.7813
959.22        73.88506
959.61        74.18858
960.00        74.62709
960.39        75.11176
960.78        75.56455
961.16        76.05193
961.55        76.31117
961.94        76.00535
962.33        75.12889
962.72        73.86568
963.11         72.6254
963.49        72.00659
963.88        72.14616
964.27        72.87544
964.66        73.97903
965.04        75.04887
965.43        75.78662
965.82        76.30536
966.21        76.58805
966.60        76.64937
966.98        76.52511
967.37           76.12
967.76        75.53214
968.15        74.97177
968.53        74.55775
968.92        74.31942
969.31        74.18137
969.69        73.94913
970.08        73.59626
970.47        73.21854
970.86        73.05042
971.24          73.496
971.63         74.5078
972.02        75.84995
972.40        77.23522
972.79        78.17529
973.17        78.65649
973.56        78.76411
973.95        78.57542
974.33        78.19685
974.72        77.70595
975.11        77.06054
975.49        76.44624
975.88         76.2113
976.26        76.43387
976.65        77.03454
977.04        77.69625
977.42        77.82382
977.81        77.20259
978.19        75.98019
978.58         74.6118
978.96        73.87067
979.35        73.96886
979.74        74.73392
980.12        75.79213
980.51        76.30169
980.89        76.16467
981.28        75.53049
981.66        74.81879
982.05        74.78951
982.43        75.62213
982.82        76.97676
983.20        78.43172
983.59        79.21249
983.97        79.21539
984.35        78.60277
984.74        77.65389
985.12        76.87189
985.51        76.44652
985.89        76.27716
986.28        76.22839
986.66        76.16182
987.04        75.99669
987.43        75.76168
987.81         75.5535
988.20        75.42677
988.58        75.43945
988.96        75.55566
989.35        75.55502
989.73        75.18875
990.12        74.38068
990.50        73.18823
990.88        72.00444
991.27        71.71619
991.65        72.58085
992.03        74.23049
992.42        75.94859
992.80        77.19781
993.18        77.76795
993.56        77.78967
993.95         77.3283
994.33        76.50493
994.71        75.63027
995.10        74.77586
995.48        74.00329
995.86        73.13674
996.24        72.09371
996.63        70.83937
997.01        69.77099
997.39         69.6535
997.77        70.71712
998.15        72.65859
998.54        74.60839
998.92        75.42814
999.30        74.91438
999.68        73.37051
1000.06        71.49934
1000.45        70.61066
1000.83        71.20169
1001.21        72.78545
1001.59        74.74352
1001.97        76.20248
1002.35        76.91694
1002.73        77.15858
1003.12        77.03196
1003.50         76.6252
1003.88        76.11858
1004.26        75.46355
1004.64        74.82518
1005.02        74.41634
1005.40        74.25771
1005.78        74.36224
1006.16        74.59519
1006.54        74.67915
1006.92         74.5391
1007.30        74.23085
1007.69        73.98926
1008.07        74.07415
1008.45        74.58861
1008.83        75.39354
1009.21        76.17283
1009.59         76.4903
1009.97        76.22843
1010.35        75.44416
1010.73        74.38694
1011.11        73.73441
1011.49        73.82961
1011.86        74.57233
1012.24        75.43415
1012.62        75.91761
1013.00        75.93559
1013.38        75.72641
1013.76        75.44106
1014.14        75.32931
1014.52        75.46905
1014.90        75.65519
1015.28        76.02197
1015.66        76.82034
1016.04        77.98328
1016.41        79.53961
1016.79        80.60036
1017.17        80.21543
1017.55         78.3614
1017.93        75.46611
1018.31        72.61353
1018.69        71.50476
1019.06        72.64997
1019.44        75.69125
1019.82        79.81271
1020.20        83.05987
1020.58        84.42221
1020.95        84.21852
1021.33        83.12132
1021.71         82.0315
1022.09        81.15656
1022.46        80.13298
1022.84        78.72678
1023.22        76.41873
1023.60        73.09283
1023.97        68.87378
1024.35        64.47282
1024.73        61.11852
