SpectraSmart Spectrum 2.9.0.0
--------- Device Information -----------
Spectrum Name :  反射率_0
Saving Time :  2024/04/27 22:15:24
Spectro-Module Model Name : SE2030-DUVN
Spectro-Module Serial Number : OS361AC55029948
Wavelength Start : 200
Wavelength End : 1025
Wavelength Unit : Wavelength(nm)
Spectrum Unit : Reflectance(%)
-----------Spectrum Setting ------------
Integration Time : 20ms
Average : 10
Boxcar : 0
Background removal :  enabled
linearity correction :  enabled
SC :  disabled
Intensity correction :  disabled
DWT denoise :  enabled
savitzky-golay :  disabled
FFT :  disabled
Running average :  disabled
Kalman :  disabled
High pass :  disabled
---------------BEGIN--------------------
Wavelength(nm)             Reflectance(%)
200.29               0
200.75       -14.41181
201.21        25.37635
201.67        55.06775
202.13        65.37553
202.58        63.46422
203.04          55.083
203.50        47.61509
203.96        50.84421
204.42        63.56174
204.88        79.76184
205.34        93.52665
205.80        100.2391
206.26        99.76702
206.72        92.12208
207.18        76.73821
207.64         64.2129
208.10        64.94539
208.55        73.05267
209.01         78.3113
209.47          75.994
209.93        63.79796
210.39        30.16085
210.85       -75.40726
211.31       -220.0215
211.77        -79.5852
212.23        21.78964
212.69        59.20016
213.14        71.54845
213.60        72.71812
214.06        67.26876
214.52        53.48286
214.98        38.75834
215.44        36.16994
215.90        39.47414
216.36        43.89106
216.81        47.69682
217.27        50.65383
217.73        54.20562
218.19        56.63686
218.65        54.34717
219.11        46.43209
219.57        33.02456
220.02        17.43701
220.48        10.24801
220.94        14.70048
221.40        26.41355
221.86         39.2933
222.32        47.28211
222.77        50.20177
223.23        50.38305
223.69        49.39994
224.15        48.70764
224.61        48.70206
225.06        48.63015
225.52        48.86042
225.98        49.60201
226.44        50.49987
226.90        51.23935
227.36        51.49602
227.81         50.8849
228.27        49.40884
228.73        47.15895
229.19         44.0559
229.65        40.31297
230.10        36.37823
230.56        32.77139
231.02        29.98728
231.48        28.64135
231.93         28.6204
232.39        29.66687
232.85        31.30067
233.31         32.8554
233.77        34.10699
234.22        35.29072
234.68        36.11925
235.14        36.41058
235.60        36.18166
236.05        35.24271
236.51        34.36888
236.97        35.06967
237.43         37.7494
237.88        42.14225
238.34        46.29692
238.80        48.29224
239.26        47.62371
239.71        43.61623
240.17        36.65929
240.63         33.4607
241.08        39.38852
241.54        49.33127
242.00         56.9405
242.46        59.63848
242.91        58.03125
243.37        51.18964
243.83        35.53595
244.28        15.35216
244.74        14.49824
245.20        32.88098
245.66        49.59952
246.11        56.51289
246.57        56.18698
247.03        50.50782
247.48        39.39099
247.94        30.49874
248.40        32.28896
248.85        40.18676
249.31        49.00142
249.77        54.81098
250.22        57.53176
250.68        58.84831
251.14        59.29022
251.59        59.04749
252.05        58.22488
252.51        55.94026
252.96        52.05656
253.42        49.43769
253.88         49.4642
254.33        51.58415
254.79        52.99151
255.25        51.17721
255.70        47.02388
256.16        42.36102
256.62         39.4968
257.07        40.83324
257.53        45.24466
257.99        50.27626
258.44        53.82264
258.90        54.45068
259.35         52.4492
259.81         49.3577
260.27        46.10292
260.72        43.75222
261.18        42.68089
261.63        42.19623
262.09        42.03879
262.55        41.67014
263.00        40.96496
263.46        40.20446
263.91        39.50608
264.37        39.27106
264.83        39.41813
265.28        39.73037
265.74        39.94622
266.19        39.59804
266.65        38.71684
267.11        37.44885
267.56        36.06604
268.02        35.08043
268.47        34.56921
268.93        34.38008
269.38        34.31094
269.84        34.06228
270.30        33.53991
270.75        32.85818
271.21        32.06837
271.66         31.1986
272.12        30.31913
272.57        29.39706
273.03        28.56201
273.48        27.95182
273.94        27.61933
274.39         27.4686
274.85        27.41632
275.31        27.27452
275.76        26.97645
276.22        26.59496
276.67        26.12196
277.13        25.62698
277.58        25.10219
278.04        24.58284
278.49        24.05824
278.95         23.6085
279.40        23.20616
279.86        22.88916
280.31        22.62241
280.77        22.44847
281.22        22.32432
281.68        22.26458
282.13        22.20577
282.59        22.09512
283.04        21.91098
283.50        21.67432
283.95        21.42545
284.41         21.2562
284.86        21.17387
285.32        21.17284
285.77        21.18111
286.22        21.11871
286.68        20.99018
287.13        20.79649
287.59        20.64025
288.04        20.60812
288.50        20.73573
288.95        20.95864
289.41        21.19691
289.86        21.29476
290.32        21.24066
290.77        21.07935
291.22        20.90901
291.68        20.87138
292.13        20.99413
292.59        21.24788
293.04        21.56401
293.50        21.85668
293.95        22.09575
294.40        22.32323
294.86        22.58853
295.31        22.95792
295.77        23.45135
296.22        24.02422
296.68        24.63975
297.13        25.22054
297.58        25.74249
298.04        26.21639
298.49        26.65333
298.95        27.08276
299.40        27.51371
299.85        27.93859
300.31         28.3697
300.76        28.78966
301.21        29.20251
301.67        29.61479
302.12         30.0052
302.58        30.37439
303.03        30.70676
303.48        31.01079
303.94        31.31336
304.39        31.61227
304.84        31.92248
305.30         32.2449
305.75        32.53965
306.20         32.7831
306.66        32.97786
307.11        33.09882
307.57        33.19355
308.02        33.27519
308.47        33.35982
308.93        33.44009
309.38        33.45848
309.83        33.34903
310.29         33.1207
310.74        32.79816
311.19        32.45806
311.65        32.21884
312.10        32.09142
312.55        32.03815
313.00        32.02599
313.46        32.00146
313.91        31.93528
314.36        31.85224
314.82        31.70454
315.27        31.41202
315.72        30.98173
316.18        30.45091
316.63        29.93657
317.08        29.64589
317.53        29.61771
317.99        29.78537
318.44        30.02301
318.89        30.10566
319.35        29.96877
319.80        29.67486
320.25        29.30558
320.70        29.00379
321.16        28.80336
321.61        28.65585
322.06        28.51545
322.51        28.31619
322.97        28.03647
323.42        27.72719
323.87         27.3905
324.32        27.02891
324.78        26.65422
325.23        26.26556
325.68        25.91881
326.13        25.71262
326.59        25.64872
327.04        25.71966
327.49        25.80608
327.94         25.7167
328.39        25.40316
328.85        24.90697
329.30        24.35901
329.75        23.98829
330.20        23.86826
330.66        23.93057
331.11        24.06848
331.56        24.05881
332.01        23.83946
332.46        23.47126
332.92        23.06408
333.37        22.82935
333.82        22.81678
334.27        22.95284
334.72        23.12031
335.17        23.13241
335.63        22.93085
336.08        22.59587
336.53        22.19678
336.98        21.85732
337.43        21.62866
337.88        21.47557
338.34        21.39286
338.79        21.37264
339.24        21.40071
339.69        21.48287
340.14        21.57752
340.59        21.61191
341.05        21.56704
341.50        21.45766
341.95        21.31454
342.40        21.20396
342.85        21.14167
343.30        21.10381
343.75        21.06863
344.20        21.00074
344.66        20.89433
345.11        20.76601
345.56        20.62031
346.01        20.45907
346.46        20.29002
346.91        20.11172
347.36        19.95847
347.81        19.87902
348.26        19.88293
348.72        19.96617
349.17        20.06855
349.62        20.09114
350.07        20.01066
350.52        19.83711
350.97        19.67053
351.42        19.67467
351.87        19.86759
352.32        20.19203
352.77        20.47871
353.22        20.46997
353.67         20.1282
354.13        19.56211
354.58        18.94524
355.03        18.60526
355.48        18.62543
355.93        18.90621
356.38        19.28823
356.83        19.52123
357.28        19.53023
357.73        19.38774
358.18        19.17925
358.63         19.0367
359.08        18.99368
359.53        18.99688
359.98        18.98833
360.43        18.88693
360.88        18.68108
361.33        18.41403
361.78        18.13393
362.23        17.94781
362.68        17.88744
363.13        17.84722
363.58        17.78618
364.03        18.01861
364.48        17.91078
364.93        17.95582
365.38         17.9553
365.83        17.89963
366.28        17.78267
366.73        17.61747
367.18        17.42772
367.63        17.23917
368.08        17.06842
368.53        16.91473
368.98        16.78699
369.43        16.69466
369.88         16.6366
370.33        16.60992
370.78        16.59446
371.23        16.55727
371.68        16.48433
372.13        16.37486
372.58        16.24317
373.03        16.11484
373.48        16.00272
373.93        15.91475
374.38        15.82834
374.83        15.70561
375.28        15.54653
375.72        15.35171
376.17        15.20964
376.62        15.21982
377.07        15.38225
377.52        15.64099
377.97        15.88048
378.42         15.9224
378.87        15.73434
379.32        15.39159
379.77        14.97926
380.22         14.6249
380.67        14.37481
381.11        14.19273
381.56        14.09552
382.01        14.10622
382.46        14.21246
382.91        14.40817
383.36        14.60678
383.81        14.67017
384.26        14.56966
384.71        14.33433
385.15        14.04959
385.60        13.88798
386.05        13.87893
386.50        13.98064
386.95        14.10919
387.40        14.13058
387.85        14.02423
388.29        13.83855
388.74        13.67169
389.19        13.62694
389.64        13.71648
390.09        13.88237
390.54        14.06437
390.98        14.16816
391.43        14.16698
391.88        14.09648
392.33         13.9581
392.78        13.77524
393.23        13.57576
393.67        13.30426
394.12        13.03133
394.57        13.00302
395.02        12.99736
395.47        12.97489
395.91        12.88472
396.36        12.89439
396.81        13.00087
397.26        13.09744
397.71        13.15215
398.15        13.17247
398.60        13.16566
399.05        13.07739
399.50        12.94798
399.95        12.91809
400.39        12.95635
400.84        12.86616
401.29        12.65835
401.74        12.47639
402.18        12.36522
402.63        12.34579
403.08        12.40494
403.53        12.44678
403.97        12.46007
404.42        12.51643
404.87        12.59063
405.32        12.61944
405.76        12.59267
406.21        12.49159
406.66        12.36645
407.11        12.35646
407.55        12.44424
408.00        12.48491
408.45        12.43896
408.90        12.28283
409.34        12.06909
409.79        11.97695
410.24        12.01654
410.68        12.04752
411.13          12.066
411.58        12.17501
412.03        12.33831
412.47        12.42749
412.92        12.41016
413.37        12.33126
413.81        12.21538
414.26        12.10712
414.71        12.01895
415.15        11.93785
415.60        11.86963
416.05        11.82905
416.49        11.81997
416.94        11.84168
417.39        11.87535
417.83        11.88877
418.28         11.8692
418.73        11.81726
419.17        11.75736
419.62        11.73432
420.07        11.76113
420.51         11.8301
420.96        11.89711
421.41        11.90973
421.85        11.85565
422.30        11.69887
422.74        11.52345
423.19        11.59697
423.64        11.87879
424.08        12.04243
424.53        11.99842
424.98         11.9521
425.42        11.90153
425.87        11.63591
426.31        11.27475
426.76         11.2477
427.21        11.51309
427.65        11.63505
428.10        11.57146
428.54        11.56039
428.99        11.58988
429.44        11.61868
429.88        11.61006
430.33        11.37594
430.77        11.05344
431.22        11.09871
431.66        11.46051
432.11         11.6925
432.56        11.70767
433.00        11.63424
433.45        11.41053
433.89        11.05349
434.34        10.81553
434.78        10.30528
435.23         10.8095
435.67        11.25439
436.12         11.4703
436.57        11.58648
437.01        11.50928
437.46        11.44424
437.90        11.45516
438.35         11.4771
438.79        11.16746
439.24        11.02082
439.68        10.95664
440.13        10.93903
440.57         10.9459
441.02        11.03722
441.46        11.17148
441.91        11.09428
442.35        10.89701
442.80        11.06205
443.24        11.49168
443.69         11.5337
444.13        11.19334
444.58        11.01951
445.02        11.01706
445.47        10.90429
445.91        10.70588
446.36        10.61315
446.80        10.63509
447.24        10.71421
447.69        10.82104
448.13         10.9402
448.58          11.038
449.02        11.06846
449.47        11.04366
449.91        11.03644
450.36        11.05579
450.80        11.05503
451.25        11.04004
451.69        11.04211
452.13        11.05811
452.58        11.07115
453.02        11.06728
453.47        11.02905
453.91        10.95373
454.36        10.87008
454.80        10.77824
455.24        10.66792
455.69        10.57345
456.13        10.50758
456.58        10.49261
457.02         10.5993
457.46         10.7616
457.91        10.78332
458.35        10.71267
458.79        10.69061
459.24        10.73559
459.68        10.74875
460.13          10.737
460.57        10.69412
461.01        10.67277
461.46        10.68032
461.90        10.66992
462.34        10.68395
462.79        10.88447
463.23        10.97432
463.68        10.98823
464.12        10.96335
464.56        10.91044
465.01        10.87111
465.45        10.81951
465.89        10.71604
466.34        10.60572
466.78        10.53464
467.22        10.49755
467.67        10.70493
468.11        10.67247
468.55        10.67354
468.99        10.59015
469.44        10.56793
469.88        10.61012
470.32        10.62813
470.77        10.62637
471.21        10.64661
471.65         10.6913
472.10         10.7517
472.54        10.80203
472.98        10.81631
473.42        10.79552
473.87        10.72182
474.31        10.63742
474.75        10.70857
475.20        10.90565
475.64        11.00457
476.08         10.9868
476.52        11.03872
476.97        11.16763
477.41         11.1579
477.85        11.11893
478.29        11.20691
478.74        11.14425
479.18        11.06091
479.62        11.24252
480.06        11.28553
480.50        11.30779
480.95        11.30283
481.39        11.26966
481.83        11.45315
482.27        11.51244
482.72        11.53525
483.16        11.75385
483.60        11.81167
484.04        11.78276
484.48        11.74657
484.93        11.86405
485.37        11.82577
485.81           12.04
486.25        12.69244
486.69        12.05427
487.14        11.70129
487.58        12.81493
488.02        12.62219
488.46        12.76756
488.90        12.92685
489.34        12.48339
489.79        12.31489
490.23        12.64064
490.67        12.93035
491.11        13.22034
491.55        13.30406
491.99        13.23411
492.43        13.32848
492.88        13.59426
493.32        13.79046
493.76        13.88932
494.20         14.0114
494.64        14.16843
495.08        14.28234
495.52        14.36538
495.96        14.55933
496.41        14.86644
496.85        14.88084
497.29        14.70337
497.73         14.8849
498.17         15.3611
498.61        15.61953
499.05        15.59284
499.49        15.56902
499.93        15.60066
500.37        15.63402
500.82        15.67717
501.26         15.7786
501.70        15.95078
502.14        15.85719
502.58        16.06041
503.02        16.13257
503.46        16.17246
503.90         16.2055
504.34        16.23018
504.78        16.29543
505.22        16.39787
505.66        16.49329
506.10        16.58118
506.54         16.7068
506.98        16.87037
507.42        16.97628
507.86        17.13562
508.30        17.20859
508.74         17.2302
509.18        17.20658
509.62        17.17179
510.06        17.17905
510.50        17.24107
510.94        17.34505
511.38        17.46328
511.82        17.54993
512.26        17.59273
512.70        17.60703
513.14        17.61286
513.58        17.63527
514.02        17.68062
514.46        17.74883
514.90        17.82981
515.34        17.84597
515.78        17.89397
516.22        17.89872
516.66         17.8963
517.10          17.891
517.54         17.8876
517.98        17.88355
518.42         17.8791
518.86        17.87875
519.30        17.88107
519.74        17.88229
520.18         17.8824
520.62        17.87946
521.06         17.8738
521.50        17.87167
521.93        17.86226
522.37        17.82054
522.81        17.74858
523.25        17.64853
523.69        17.55939
524.13        17.54285
524.57        17.60362
525.01        17.71937
525.45        17.82405
525.89        17.81266
526.32        17.66382
526.76        17.42247
527.20        17.15635
527.64        16.97727
528.08        16.91484
528.52        16.93051
528.96        16.98647
529.40         17.0224
529.83        17.01527
530.27         16.9872
530.71         16.9326
531.15        16.84039
531.59        16.71688
532.03         16.5645
532.46        16.41538
532.90        16.33655
533.34        16.33645
533.78        16.39624
534.22        16.47925
534.66        16.52641
535.09         16.5211
535.53         16.4845
535.97         16.4312
536.41         16.3875
536.85         16.3637
537.28        16.35034
537.72        16.35125
538.16        16.37143
538.60         16.4105
539.04        16.47317
539.47        16.54102
539.91        16.59438
540.35        16.62538
540.79        16.64261
541.22        16.66262
541.66        16.71292
542.10        16.80015
542.54        16.91847
542.97         17.0471
543.41        17.16464
543.85        17.26203
544.29        17.34348
544.72        17.42736
545.16        17.55707
545.60        17.73147
546.04        17.93744
546.47        18.13772
546.91        18.26844
547.35        18.31909
547.79        18.32225
548.22        18.31939
548.66        18.37116
549.10        18.50414
549.53        18.76219
549.97        19.09646
550.41        19.36065
550.84        19.52605
551.28        19.66136
551.72        19.78276
552.15        19.89277
552.59        20.00678
553.03        20.11224
553.46        20.21968
553.90        20.36408
554.34        20.54451
554.77        20.76196
555.21         20.9787
555.65        21.13101
556.08        21.18605
556.52         21.2121
556.96        21.23843
557.39        21.34266
557.83        21.52031
558.27         21.6569
558.70        21.74092
559.14        21.83454
559.57        21.92766
560.01        22.00941
560.45        22.06638
560.88         22.0663
561.32        22.05828
561.75        22.09854
562.19         22.2012
562.63        22.37784
563.06         22.5713
563.50         22.6095
563.93        22.51349
564.37        22.51795
564.80         22.6282
565.24        22.72468
565.68        22.80324
566.11        22.90735
566.55        23.04082
566.98        23.20533
567.42        23.38914
567.85        23.50695
568.29        23.59628
568.72        23.72955
569.16        23.89869
569.60        24.09557
570.03        24.33601
570.47        24.33778
570.90        24.39992
571.34        24.89494
571.77        24.89742
572.21        24.96494
572.64        25.33252
573.08        25.24512
573.51        25.45047
573.95        25.60624
574.38        25.80708
574.82        25.80423
575.25        25.84168
575.69        25.66936
576.12        25.57963
576.56        26.04277
576.99         26.2609
577.42        26.11535
577.86        26.14931
578.29        26.20012
578.73        26.08887
579.16        26.06049
579.60        25.95073
580.03         25.8409
580.47        25.74632
580.90        25.54661
581.33        25.65648
581.77        25.46016
582.20        25.38008
582.64        25.03048
583.07        24.95888
583.51        24.84626
583.94        24.89419
584.37        24.88052
584.81        24.69669
585.24        24.57015
585.68        24.54549
586.11         24.2484
586.54        24.13364
586.98        24.08545
587.41        24.18575
587.85         23.7527
588.28        23.90043
588.71        24.12242
589.15        24.03432
589.58        23.71997
590.01        23.89754
590.45        23.88296
590.88        23.36959
591.31        23.36884
591.75        23.68574
592.18        23.76193
592.61        23.59525
593.05        23.76394
593.48        24.23262
593.91        23.67002
594.35        23.95995
594.78        24.11539
595.21        24.24778
595.65        24.33349
596.08         24.2458
596.51        24.58758
596.94        24.57164
597.38        24.86104
597.81         25.2498
598.24        25.30518
598.68        25.74843
599.11        26.22796
599.54        26.31664
599.97        26.65687
600.41        27.16698
600.84        27.53631
601.27         27.7763
601.70        28.08467
602.14        28.23695
602.57        28.85932
603.00        29.49639
603.43        29.98803
603.87        30.39691
604.30        30.60481
604.73        31.11092
605.16        31.71248
605.60        32.14157
606.03        32.75056
606.46        33.37094
606.89        33.48056
607.32        33.87084
607.76        34.50609
608.19        34.65332
608.62        35.04628
609.05        35.43345
609.48         35.8576
609.92         36.2806
610.35        36.55141
610.78        37.27267
611.21        37.02319
611.64        37.66032
612.07        37.94268
612.50         38.3241
612.94        38.68534
613.37        39.05961
613.80        39.09883
614.23        39.51295
614.66        39.82077
615.09        40.19965
615.52        40.60523
615.96        41.02914
616.39         41.0746
616.82        41.47612
617.25        41.64655
617.68         41.8767
618.11        42.07932
618.54        42.31083
618.97        42.68701
619.40        43.12168
619.84        43.45903
620.27        43.63463
620.70        43.59864
621.13        43.36793
621.56        43.84956
621.99        44.03543
622.42        44.01753
622.85        43.90288
623.28        44.24865
623.71        44.15055
624.14        44.01406
624.57        44.28608
625.00        44.34085
625.43        44.16761
625.86        44.09998
626.29        44.08789
626.72        44.02272
627.15        43.81423
627.58        43.69751
628.01          43.695
628.44        43.21843
628.87        42.89025
629.30        42.89121
629.73         42.3168
630.16         41.6664
630.59        41.69583
631.02          41.333
631.45        40.87799
631.88        40.49217
632.31        40.20241
632.74        39.68261
633.17        39.32077
633.60        38.86123
634.03        38.42099
634.46        37.97776
634.89        37.52383
635.32        37.03279
635.75        36.50349
636.18        35.97652
636.61        35.47047
637.04        34.96856
637.47        34.49723
637.89        34.14224
638.32        33.86422
638.75        33.54699
639.18        33.17825
639.61        32.82288
640.04        32.47708
640.47        32.11655
640.90        31.74775
641.33        31.36699
641.76        31.00372
642.18        30.78366
642.61        30.59757
643.04        30.52673
643.47        30.50552
643.90         30.4833
644.33        30.44343
644.76        30.40356
645.18        30.37862
645.61        30.38818
646.04        30.44224
646.47         30.5311
646.90        30.66572
647.33        30.86263
647.75        31.12656
648.18        31.46461
648.61        31.84505
649.04        32.22767
649.47        32.61237
649.89        32.95752
650.32        33.30907
650.75        33.90197
651.18        34.67754
651.61        35.21708
652.03        35.49792
652.46        35.98523
652.89        36.76054
653.32        37.18097
653.74        37.44177
654.17        38.64005
654.60        39.13842
655.03        39.34377
655.46        39.97261
655.88        40.89194
656.31        42.20421
656.74        43.10482
657.16        43.17059
657.59        43.55582
658.02         43.2949
658.45        44.07169
658.87        44.90195
659.30        45.33649
659.73        45.24908
660.15        45.42934
660.58        45.92882
661.01        46.57129
661.44        47.24243
661.86        47.57757
662.29         47.6184
662.72        47.74415
663.14        48.04949
663.57        48.46637
664.00          48.926
664.42        49.23207
664.85        49.37604
665.27        49.51726
665.70        49.68679
666.13        49.84873
666.55        50.02025
666.98        50.21848
667.41        50.44984
667.83        50.70963
668.26        50.98315
668.69        51.27616
669.11        51.56088
669.54        51.78823
669.96         51.9544
670.39        52.05531
670.82        52.13245
671.24        52.27025
671.67        52.47531
672.09        52.68018
672.52        52.86739
672.94        53.01161
673.37        53.11794
673.80        53.19644
674.22        53.28249
674.65        53.38773
675.07        53.53453
675.50        53.71133
675.92        53.89675
676.35        54.04057
676.77        54.14055
677.20        54.21822
677.62        54.30054
678.05        54.41557
678.47        54.56689
678.90        54.74274
679.32        54.94036
679.75        55.14861
680.17        55.35604
680.60        55.63206
681.02         55.9094
681.45        55.94473
681.87        55.81008
682.30        55.77293
682.72        55.89642
683.15         56.1853
683.57        56.56189
684.00        56.69529
684.42        56.63401
684.85        56.75145
685.27        57.04132
685.70        57.35291
686.12        57.59597
686.54        57.55539
686.97        57.31091
687.39        57.37043
687.82        57.72765
688.24        57.79795
688.66        57.84769
689.09        57.93038
689.51        58.13325
689.94        58.30064
690.36        58.43534
690.78        58.50204
691.21        58.53506
691.63        58.74057
692.06        59.04812
692.48        59.10265
692.90        58.89568
693.33        58.84332
693.75          58.959
694.17        59.04011
694.60        59.07235
695.02        59.16043
695.44        59.30013
695.87        59.44618
696.29         59.6037
696.71        59.83193
697.14         60.0876
697.56        60.25133
697.98         60.3225
698.41        60.46555
698.83        60.67264
699.25        60.86575
699.68        60.98954
700.10        61.12059
700.52        61.26166
700.94        61.26286
701.37        61.08549
701.79        61.48443
702.21        61.25173
702.64        61.28365
703.06        61.36413
703.48         61.4487
703.90        61.57738
704.33        61.74757
704.75        61.93839
705.17        62.05737
705.59        62.08809
706.01        62.03017
706.44        61.94841
706.86        62.05688
707.28        62.20106
707.70        62.50095
708.12        62.82294
708.55        62.97112
708.97        62.94143
709.39        62.92484
709.81        62.96398
710.23        63.00221
710.66        63.05561
711.08        63.19224
711.50        63.36725
711.92        63.49429
712.34        63.56081
712.76        63.59758
713.19          63.616
713.61        63.67527
714.03        63.76946
714.45        63.87927
714.87        64.00042
715.29        64.12997
715.71        64.26324
716.13        64.40453
716.56        64.51872
716.98        64.61345
717.40        64.66375
717.82        64.67587
718.24        64.68327
718.66        64.73888
719.08          64.852
719.50        65.01397
719.92        65.18842
720.34        65.28779
720.76        65.30904
721.19        65.32715
721.61        65.35941
722.03        65.34839
722.45        65.29908
722.87        65.24557
723.29        65.21843
723.71         65.2271
724.13        65.27554
724.55        65.40791
724.97        65.59891
725.39        65.57427
725.81        65.66286
726.23        65.62793
726.65        65.62418
727.07        65.63311
727.49        65.81974
727.91        66.02507
728.33        66.24448
728.75        66.37419
729.17        66.38295
729.59        66.38091
730.01        66.37179
730.43        66.18284
730.85        65.92678
731.27        66.01141
731.69        66.35595
732.10        66.58382
732.52        66.49828
732.94        66.47607
733.36        66.42501
733.78         66.5563
734.20        66.76496
734.62        66.54059
735.04        66.01105
735.46         67.2905
735.88        67.11562
736.30        67.18821
736.72        66.67397
737.13        66.55433
737.55        66.80573
737.97         67.1017
738.39        67.15784
738.81        67.02178
739.23        66.72918
739.65        66.82746
740.06        67.22319
740.48        67.36758
740.90        67.21403
741.32        67.16428
741.74        67.16194
742.16        67.20456
742.57        67.27818
742.99        67.39462
743.41        67.52869
743.83        67.62195
744.25         67.6611
744.67        67.65099
745.08        67.63575
745.50        67.65153
745.92        67.72144
746.34        67.83186
746.75        67.93547
747.17        67.94878
747.59        67.85817
748.01        67.70177
748.42        67.55629
748.84        67.49075
749.26        67.53291
749.68        67.77303
750.09        68.10763
750.51        68.15137
750.93         67.9631
751.35        68.06689
751.76         68.4084
752.18         68.4671
752.60        68.22935
753.01        67.99415
753.43        67.83047
753.85        67.75615
754.27         67.8016
754.68        67.98038
755.10        68.24375
755.52         68.4057
755.93        68.61964
756.35        68.73198
756.77        68.75134
757.18        68.87433
757.60        69.19557
758.02        69.01627
758.43        68.59562
758.85        69.63002
759.26        69.40624
759.68        68.80035
760.10        68.91588
760.51        68.20628
760.93         68.9567
761.34        69.27928
761.76          69.216
762.18         69.0704
762.59        68.85691
763.01        68.89986
763.42        69.20576
763.84        69.45169
764.26        69.58024
764.67        69.39721
765.09        69.09407
765.50        69.33176
765.92        69.97401
766.33        70.04623
766.75        69.51357
767.16        69.23872
767.58        69.30421
768.00        69.42811
768.41        69.59716
768.83        69.82935
769.24        70.03864
769.66        70.09363
770.07        70.01194
770.49        70.00764
770.90        70.11777
771.32        70.23528
771.73        70.31534
772.15        70.33989
772.56         70.3258
772.97         70.1896
773.39        69.97473
773.80        70.16945
774.22        70.43368
774.63        70.52427
775.05        70.36246
775.46        70.42363
775.88        70.69436
776.29        70.94806
776.70        71.11089
777.12        71.19559
777.53         71.1936
777.95        71.06042
778.36        70.90326
778.77        70.84197
779.19        70.91093
779.60        71.22343
780.02        71.59531
780.43        71.53259
780.84        71.12239
781.26        70.86663
781.67        70.94453
782.09        71.41338
782.50        71.88717
782.91        72.28672
783.33         70.8765
783.74        70.58987
784.15        70.95702
784.57        71.17592
784.98        71.18783
785.39        71.25484
785.81        71.39561
786.22        71.70394
786.63        72.07391
787.04        72.11607
787.46        71.88819
787.87         71.8065
788.28        71.90778
788.70         71.9566
789.11        71.84935
789.52        71.91041
789.93        72.08188
790.35        72.04558
790.76        71.87634
791.17        71.98648
791.58        72.32178
792.00        72.41384
792.41        72.24757
792.82         72.2354
793.23        72.09158
793.65        72.20238
794.06        72.46404
794.47        72.82895
794.88        73.18084
795.29        73.16197
795.71        73.19599
796.12        72.94232
796.53        72.62565
796.94        72.45458
797.35        72.48692
797.76        72.62648
798.18        72.82172
798.59        73.00738
799.00        73.15445
799.41        73.26815
799.82        73.33835
800.23        73.36552
800.64        73.35014
801.06        73.26074
801.47        73.15713
801.88        73.06687
802.29         73.0069
802.70        72.98034
803.11        72.97285
803.52        72.95163
803.93        72.91633
804.34        72.87965
804.75        72.87488
805.17        72.96643
805.58        73.19154
805.99        73.42719
806.40        73.62817
806.81        73.88998
807.22        74.09351
807.63         73.8898
808.04        73.39976
808.45        73.17291
808.86         73.2924
809.27        73.48662
809.68        73.67142
810.09        73.81136
810.50         73.8642
810.91        73.83894
811.32        73.80014
811.73        73.84349
812.14        73.98446
812.55        74.21365
812.96        74.44371
813.37        74.44785
813.78        74.23308
814.19        74.04784
814.60        73.92892
815.01        73.76122
815.42        73.56725
815.83        73.43518
816.24        73.41031
816.65        73.51556
817.05        73.75398
817.46        74.07426
817.87        74.40848
818.28        74.60527
818.69        74.62944
819.10        74.50871
819.51        74.31266
819.92         74.1801
820.33        74.16085
820.74        74.21712
821.14        74.29544
821.55        74.34618
821.96        74.33245
822.37        74.28114
822.78        74.22076
823.19        74.19352
823.60        74.21584
824.00        74.29546
824.41        74.35907
824.82        74.38138
825.23        74.35455
825.64        74.29454
826.04        74.27061
826.45        74.35532
826.86        74.57088
827.27         74.8843
827.68        75.21498
828.08        75.46162
828.49        75.52041
828.90        75.45827
829.31        75.33527
829.72        75.25985
830.12         75.2873
830.53         75.3351
830.94        75.38655
831.35        75.37807
831.75        75.31355
832.16        75.17863
832.57        75.01127
832.97        74.83485
833.38        74.66615
833.79        74.51545
834.20        74.41206
834.60        74.39249
835.01        74.47043
835.42        74.62357
835.82        74.83967
836.23        75.01279
836.64        75.13541
837.04        75.24146
837.45        75.28693
837.86        75.30714
838.26        75.32538
838.67        75.32042
839.08        75.32303
839.48        75.36669
839.89        75.45939
840.29        75.59332
840.70        75.75618
841.11        75.92976
841.51        76.11646
841.92        76.27158
842.33         76.3913
842.73         76.4653
843.14        76.44326
843.54        76.36864
843.95        76.24356
844.35        76.09451
844.76        75.93181
845.17         75.7592
845.57        75.63379
845.98          75.605
846.38        75.70074
846.79         75.8755
847.19        76.06776
847.60        76.11703
848.00        76.01085
848.41        75.76402
848.81        75.47672
849.22        75.24139
849.62        75.13477
850.03        75.10561
850.43        75.15293
850.84        75.18865
851.24        75.23746
851.65        75.26203
852.05        75.33839
852.46        75.47391
852.86        75.64818
853.27        75.84644
853.67        75.93607
854.07        75.91826
854.48        75.75061
854.88        75.49839
855.29        75.11087
855.69        74.72189
856.10        74.30285
856.50        73.92154
856.90        73.62829
857.31        73.52315
857.71        73.65927
858.12        73.95725
858.52        74.32224
858.92        74.46362
859.33        74.29868
859.73        73.93517
860.13        73.49355
860.54        73.23034
860.94        73.26471
861.34        73.47475
861.75          73.744
862.15        73.95516
862.55        74.02663
862.96         74.0199
863.36        73.91273
863.76        73.64871
864.17        73.24169
864.57        72.73126
864.97        72.25092
865.38        71.99767
865.78        72.06229
866.18        72.37342
866.58        72.79041
866.99        73.06006
867.39        73.11832
867.79        72.98993
868.19        72.76781
868.60        72.56118
869.00        72.39736
869.40        72.27778
869.80         72.1644
870.21         72.0079
870.61        71.88969
871.01        71.78969
871.41        71.78109
871.81        71.95983
872.22         72.3013
872.62        72.78296
873.02         73.3046
873.42        73.66381
873.82        73.77702
874.22        73.70486
874.63        73.50952
875.03        73.25581
875.43        72.99683
875.83        72.71848
876.23        72.49089
876.63        72.43258
877.03        72.55963
877.44        72.83125
877.84        73.15572
878.24        73.33176
878.64        73.30366
879.04        73.13493
879.44        72.89376
879.84        72.68076
880.24        72.52874
880.64        72.40341
881.04        72.32661
881.44         72.3374
881.84        72.43403
882.24        72.60964
882.65        72.77007
883.05         72.8531
883.45        72.79992
883.85        72.64797
884.25        72.46724
884.65        72.36714
885.05        72.37328
885.45        72.44428
885.85          72.556
886.25         72.6682
886.65        72.75758
887.05        72.84079
887.45        72.87777
887.85        72.80663
888.25         72.6179
888.65         72.3168
889.04        71.98322
889.44        71.79655
889.84        71.78287
890.24        71.91385
890.64        72.06912
891.04        72.05169
891.44        71.83092
891.84        71.47718
892.24        71.14581
892.64        71.07883
893.04        71.32252
893.44        71.78642
893.83        72.33604
894.23        72.69306
894.63        72.80042
895.03        72.72067
895.43        72.54334
895.83        72.41479
896.23        72.39156
896.63        72.44287
897.02        72.50481
897.42        72.52596
897.82        72.48116
898.22        72.39332
898.62        72.35035
899.01        72.49922
899.41        72.83456
899.81        73.31197
900.21        73.76247
900.61        73.91421
901.00        73.70412
901.40        73.24199
901.80        72.71339
902.20        72.42705
902.59        72.47434
902.99        72.74585
903.39        73.13422
903.79        73.44021
904.18        73.59306
904.58        73.67577
904.98        73.70728
905.38        73.72128
905.77        73.72295
906.17        73.67487
906.57        73.62563
906.96        73.69376
907.36        73.86778
907.76        74.15406
908.15        74.40112
908.55         74.2737
908.95        73.75873
909.34        72.94462
909.74        72.16415
910.14        71.87518
910.53        72.17827
910.93        72.91267
911.33        73.78228
911.72        74.27596
912.12        74.23148
912.52        73.83499
912.91        73.29459
913.31        72.93265
913.70        72.83355
914.10        72.88939
914.49        73.05791
914.89        73.21302
915.29        73.31575
915.68        73.38931
916.08        73.46067
916.47        73.55343
916.87         73.6818
917.26        73.81501
917.66        73.87833
918.05         73.7282
918.45         73.3541
918.84        72.84132
919.24          72.348
919.64         72.2142
920.03        72.52656
920.42         73.1717
920.82         73.9332
921.21        74.46387
921.61        74.64365
922.00        74.55057
922.40        74.33018
922.79        74.32806
923.19        74.58303
923.58        75.02275
923.98        75.36713
924.37        75.25174
924.77        74.61681
925.16        73.60212
925.55         72.5549
925.95        72.06049
926.34        72.27509
926.74        72.98794
927.13        73.92185
927.52        74.52866
927.92        74.67419
928.31        74.51966
928.70        74.21093
929.10        73.96225
929.49        73.85146
929.89         73.7466
930.28        73.74255
930.67        73.90133
931.07        74.19792
931.46        74.65862
931.85        75.06364
932.24        75.09168
932.64        74.69565
933.03         73.9683
933.42        73.18967
933.82        72.81339
934.21        72.96016
934.60        73.52244
934.99        74.23119
935.39        74.60727
935.78        74.54541
936.17        74.14938
936.56        73.69235
936.96        73.62744
937.35         74.1006
937.74        74.90934
938.13        75.70887
938.53        76.01802
938.92        75.74657
939.31        75.03143
939.70        74.18989
940.09        73.77625
940.49        73.91518
940.88         74.4556
941.27        75.05752
941.66        75.20734
942.05        74.79795
942.44        74.03072
942.84        73.17152
943.23        72.58624
943.62        72.42729
944.01        72.56202
944.40        72.90639
944.79        73.30939
945.18        73.67368
945.57        74.03513
945.97        74.28388
946.36        74.32941
946.75        74.13109
947.14        73.68939
947.53        73.14305
947.92        72.76179
948.31        72.63173
948.70        72.71605
949.09        72.86188
949.48        72.80365
949.87        72.50475
950.26        72.07501
950.65         71.7064
951.04        71.70016
951.43          72.112
951.82        72.80401
952.21        73.59803
952.60        74.19341
952.99        74.45358
953.38        74.44653
953.77        74.18581
954.16        73.69937
954.55        73.04153
954.94        72.22718
955.33        71.38051
955.72        70.71464
956.11        70.30093
956.50        70.11691
956.89        70.11462
957.28        70.16566
957.66        70.24204
958.05        70.36679
958.44        70.50652
958.83        70.60571
959.22        70.65005
959.61        70.59975
960.00        70.55846
960.39        70.71641
960.78        71.08528
961.16        71.63033
961.55        72.06819
961.94        72.02141
962.33        71.41805
962.72        70.43279
963.11        69.36562
963.49        68.63941
963.88        68.37255
964.27        68.46616
964.66        68.80039
965.04        69.17197
965.43        69.40638
965.82        69.58679
966.21        69.76213
966.60        70.02606
966.98        70.39104
967.37        70.75007
967.76        70.99982
968.15        70.95272
968.53         70.5929
968.92        70.03751
969.31        69.41532
969.69        68.88369
970.08        68.51151
970.47        68.28159
970.86        68.35995
971.24        69.01434
971.63        70.14947
972.02        71.62208
972.40        73.08807
972.79        73.95956
973.17        74.22181
973.56        73.92779
973.95        73.36867
974.33        73.04226
974.72         73.0985
975.11        73.40403
975.49        73.69356
975.88        73.54846
976.26        72.88895
976.65        71.87775
977.04        70.80671
977.42        70.12694
977.81         69.9445
978.19        70.11066
978.58         70.6023
978.96        71.28281
979.35        72.01221
979.74        72.85177
980.12        73.61604
980.51        73.79543
980.89        73.41306
981.28        72.44144
981.66        71.33405
982.05        70.98463
982.43        71.59245
982.82        72.87589
983.20        74.23826
983.59        74.55358
983.97        73.70071
984.35        72.00506
984.74        70.07341
985.12        68.97698
985.51        69.05042
985.89        69.93687
986.28        71.26723
986.66        72.61407
987.04        73.75175
987.43        74.76787
987.81         75.5464
988.20         75.7706
988.58        75.43694
988.96         74.5956
989.35        73.41055
989.73        72.25841
990.12        71.22343
990.50        70.22569
990.88        69.43152
991.27        69.17329
991.65        69.52078
992.03        70.41109
992.42        71.28231
992.80        71.68452
993.18        71.42212
993.56        70.54523
993.95        69.41596
994.33        68.83025
994.71        69.21928
995.10        70.17271
995.48        71.19978
995.86        71.68416
996.24        71.57026
996.63          70.978
997.01         70.2953
997.39        70.23489
997.77        71.02917
998.15        72.39524
998.54        73.67877
998.92        74.03504
999.30        73.31761
999.68        71.79549
1000.06        70.05204
1000.45        69.14124
1000.83        69.47194
1001.21        70.63472
1001.59        72.11401
1001.97         73.1559
1002.35        73.57091
1002.73        73.66258
1003.12        73.48583
1003.50         73.0255
1003.88        72.46991
1004.26        71.76144
1004.64        71.34177
1005.02        71.82692
1005.40        73.23584
1005.78        75.43958
1006.16        77.72729
1006.54        78.75628
1006.92         78.1373
1007.30        76.22143
1007.69        73.89908
1008.07        72.60586
1008.45          72.812
1008.83        74.04146
1009.21        75.52902
1009.59        76.14851
1009.97         75.5642
1010.35        74.03938
1010.73        71.95033
1011.11        70.33461
1011.49         69.8391
1011.86        70.29774
1012.24        71.16873
1012.62         71.9453
1013.00        72.46006
1013.38        72.89813
1013.76        73.37553
1014.14        74.03922
1014.52        74.93678
1014.90         75.9803
1015.28        76.99453
1015.66        77.68944
1016.04        77.91645
1016.41        77.77757
1016.79        77.36418
1017.17        77.17784
1017.55        77.34634
1017.93        77.88719
1018.31        78.42163
1018.69        78.31642
1019.06        77.45912
1019.44        75.84173
1019.82        74.27972
1020.20        74.44677
1020.58        76.58266
1020.95        79.85474
1021.33        82.62592
1021.71        82.71613
1022.09        79.90288
1022.46        74.92421
1022.84        69.01167
1023.22         64.2636
1023.60        61.54117
1023.97        60.18299
1024.35        60.41619
1024.73        61.71694
