SpectraSmart Spectrum 2.9.0.0
--------- Device Information -----------
Spectrum Name :  反射率_0
Saving Time :  2024/04/27 23:06:05
Spectro-Module Model Name : SE2030-DUVN
Spectro-Module Serial Number : OS361AC55029948
Wavelength Start : 200
Wavelength End : 1025
Wavelength Unit : Wavelength(nm)
Spectrum Unit : Reflectance(%)
-----------Spectrum Setting ------------
Integration Time : 20ms
Average : 10
Boxcar : 0
Background removal :  enabled
linearity correction :  enabled
SC :  disabled
Intensity correction :  disabled
DWT denoise :  enabled
savitzky-golay :  disabled
FFT :  disabled
Running average :  disabled
Kalman :  disabled
High pass :  disabled
---------------BEGIN--------------------
Wavelength(nm)             Reflectance(%)
200.29               0
200.75       -63.34902
201.21       -40.22528
201.67       -16.60365
202.13      -0.1433374
202.58        11.85599
203.04         22.2575
203.50         31.8189
203.96         39.4814
204.42         44.6791
204.88        48.06676
205.34        49.90025
205.80          50.683
206.26        50.51132
206.72        48.24358
207.18        44.06378
207.64        41.76644
208.10        43.65314
208.55        48.34799
209.01        49.59219
209.47         44.0359
209.93        28.38053
210.39       -13.06299
210.85       -140.0704
211.31       -301.9519
211.77       -124.0822
212.23       -2.337447
212.69        41.29248
213.14        54.43898
213.60        53.51249
214.06        42.61633
214.52        19.73479
214.98       0.5947117
215.44        4.626517
215.90        17.50795
216.36        28.90034
216.81        35.78148
217.27        39.20691
217.73        42.00022
218.19        43.30642
218.65        40.78293
219.11        34.15523
219.57        23.40755
220.02        11.83663
220.48        9.356925
220.94        17.94144
221.40        32.53657
221.86        47.01229
222.32        55.64209
222.77        58.50496
223.23        58.17285
223.69        56.04971
224.15        53.29403
224.61        50.31912
225.06        46.41579
225.52        43.12399
225.98        42.98234
226.44        45.76369
226.90         49.8255
227.36        53.07697
227.81        53.84284
228.27        52.34437
228.73        49.07642
229.19        45.06921
229.65        42.56719
230.10        42.32853
230.56        43.89631
231.02         45.7906
231.48        46.10302
231.93        44.54093
232.39        41.96421
232.85        39.55399
233.31        38.94468
233.77        40.26577
234.22        42.85339
234.68        45.42373
235.14        46.42834
235.60        45.55491
236.05        43.06547
236.51        40.04166
236.97        38.89093
237.43        40.56042
237.88        44.48797
238.34        48.53639
238.80        50.48346
239.26        49.63068
239.71        45.46416
240.17        38.02402
240.63        33.14989
241.08        36.60035
241.54        44.40642
242.00        50.69093
242.46         52.5842
242.91        50.20174
243.37        42.13079
243.83        24.22283
244.28        1.164341
244.74      -0.2268928
245.20        20.27651
245.66        37.77363
246.11        41.30291
246.57        32.64553
247.03         12.1751
247.48       -21.03799
247.94       -46.07201
248.40       -39.13956
248.85        -12.7844
249.31         17.4183
249.77        39.60365
250.22         52.4058
250.68        59.76281
251.14        63.10762
251.59        63.36001
252.05        61.07897
252.51        54.82114
252.96        44.23631
253.42        35.18788
253.88        32.43438
254.33        35.08421
254.79        38.23295
255.25        37.66239
255.70        34.19338
256.16        30.12641
256.62        27.78045
257.07        29.46908
257.53        34.09849
257.99        39.31628
258.44        43.20465
258.90         44.4564
259.35        43.33119
259.81        41.11816
260.27        38.68112
260.72        36.99765
261.18        36.35559
261.63         36.1377
262.09        36.00502
262.55        35.35029
263.00        34.13943
263.46        32.76482
263.91        31.51291
264.37        30.97323
264.83        31.11278
265.28        31.62635
265.74        32.21392
266.19        32.41187
266.65        32.19053
267.11        31.68056
267.56        31.00993
268.02        30.45237
268.47         30.0485
268.93        29.71922
269.38        29.41298
269.84        29.07651
270.30        28.68183
270.75        28.26006
271.21        27.79515
271.66        27.21551
272.12        26.54332
272.57        25.78226
273.03        25.03215
273.48        24.37884
273.94        23.89185
274.39        23.52347
274.85        23.25505
275.31        23.00407
275.76        22.72713
276.22        22.44397
276.67        22.15145
277.13        21.91253
277.58        21.69016
278.04        21.49711
278.49        21.22584
278.95        20.80702
279.40         20.2136
279.86        19.54874
280.31        18.90621
280.77        18.50983
281.22        18.36195
281.68          18.409
282.13        18.52673
282.59        18.56358
283.04         18.4717
283.50        18.29391
283.95        18.07446
284.41         17.9028
284.86        17.78916
285.32        17.71363
285.77        17.61734
286.22        17.43757
286.68        17.18453
287.13        16.86864
287.59        16.58085
288.04        16.39326
288.50        16.34353
288.95        16.38177
289.41        16.45812
289.86        16.46737
290.32        16.39752
290.77        16.27461
291.22        16.14905
291.68        16.09433
292.13        16.12116
292.59        16.21053
293.04        16.32673
293.50        16.43331
293.95        16.51624
294.40        16.60691
294.86        16.72184
295.31        16.87809
295.77        17.08938
296.22        17.33201
296.68        17.62882
297.13        17.99602
297.58        18.42756
298.04        18.90287
298.49        19.35945
298.95        19.70457
299.40        19.92657
299.85        20.05117
300.31         20.1658
300.76        20.37835
301.21        20.71986
301.67        21.14857
302.12        21.57864
302.58          21.901
303.03        22.08422
303.48        22.17222
303.94        22.23799
304.39        22.35748
304.84         22.5605
305.30        22.81976
305.75        23.07397
306.20        23.25527
306.66        23.35589
307.11        23.37512
307.57        23.37494
308.02        23.39973
308.47        23.46974
308.93        23.55988
309.38        23.60732
309.83        23.52953
310.29        23.32467
310.74          23.019
311.19        22.68371
311.65        22.42959
312.10        22.27277
312.55        22.18805
313.00        22.14092
313.46        22.07513
313.91        21.97043
314.36        21.85022
314.82        21.70718
315.27        21.52353
315.72        21.30712
316.18        21.06718
316.63        20.84088
317.08        20.70956
317.53        20.68379
317.99        20.73123
318.44        20.80128
318.89        20.79617
319.35        20.68862
319.80        20.50838
320.25        20.28378
320.70        20.06779
321.16        19.87538
321.61        19.69476
322.06        19.52798
322.51         19.3815
322.97        19.25257
323.42         19.1559
323.87        19.06242
324.32        18.92513
324.78        18.73421
325.23        18.49869
325.68        18.26725
326.13        18.12573
326.59         18.0819
327.04        18.12804
327.49        18.18242
327.94        18.11592
328.39        17.89734
328.85        17.56041
329.30        17.19341
329.75        16.95892
330.20        16.90412
330.66        16.97278
331.11        17.08489
331.56        17.07028
332.01         16.8833
332.46        16.57741
332.92        16.22851
333.37        15.97963
333.82        15.87506
334.27        15.86512
334.72        15.90928
335.17        15.94275
335.63        15.93283
336.08        15.91692
336.53        15.86892
336.98        15.74963
337.43        15.56451
337.88        15.32494
338.34        15.10269
338.79         15.0182
339.24        15.09842
339.69        15.30406
340.14        15.55611
340.59        15.72302
341.05        15.76023
341.50          15.704
341.95        15.58183
342.40        15.44956
342.85        15.32915
343.30        15.20232
343.75        15.07286
344.20        14.94825
344.66         14.8392
345.11        14.75937
345.56        14.70278
346.01        14.65067
346.46        14.59655
346.91        14.53014
347.36        14.48797
347.81        14.52581
348.26        14.64675
348.72        14.84051
349.17        15.00969
349.62        14.99727
350.07        14.78176
350.52        14.40585
350.97        14.04062
351.42         13.9608
351.87        14.21109
352.32        14.69688
352.77        15.20143
353.22        15.39143
353.67        15.19852
354.13        14.74764
354.58        14.20452
355.03        13.88604
355.48        13.87981
355.93        14.08804
356.38         14.3811
356.83        14.55838
357.28        14.56159
357.73        14.45986
358.18        14.31999
358.63        14.24034
359.08        14.24288
359.53        14.27546
359.98        14.29919
360.43        14.26473
360.88        14.15876
361.33        14.00846
361.78        13.81347
362.23        13.60678
362.68        13.41614
363.13        13.17245
363.58        12.89904
364.03        13.03289
364.48        12.93197
364.93        13.08379
365.38        13.25748
365.83        13.40827
366.28        13.50345
366.73        13.56093
367.18        13.55911
367.63          13.452
368.08        13.24609
368.53        12.95691
368.98        12.66025
369.43        12.47997
369.88        12.44636
370.33        12.53137
370.78        12.66158
371.23        12.71065
371.68        12.64037
372.13         12.4811
372.58        12.28976
373.03        12.16078
373.48        12.12127
373.93        12.14558
374.38        12.17815
374.83        12.13304
375.28        11.99744
375.72        11.79747
376.17        11.62499
376.62        11.58388
377.07        11.68603
377.52        11.87409
377.97        12.07246
378.42        12.16587
378.87        12.12346
379.32        11.99396
379.77        11.79639
380.22        11.55735
380.67        11.30236
381.11        11.02621
381.56        10.79483
382.01        10.71536
382.46        10.80174
382.91         11.0206
383.36        11.26692
383.81         11.3723
384.26        11.29849
384.71        11.09386
385.15        10.83525
385.60        10.67666
386.05        10.64871
386.50        10.70821
386.95        10.80753
387.40        10.87199
387.85        10.88257
388.29        10.86409
388.74        10.85162
389.19        10.86697
389.64        10.91216
390.09        10.96049
390.54        11.00638
390.98        11.04459
391.43        11.06928
391.88        11.08651
392.33        11.06036
392.78        10.95677
393.23         10.7866
393.67        10.52202
394.12        10.24803
394.57         10.1958
395.02        10.19852
395.47        10.21383
395.91        10.17234
396.36        10.15901
396.81        10.16539
397.26        10.12904
397.71        10.06705
398.15        10.04271
398.60        10.06942
399.05        10.08275
399.50        10.07848
399.95        10.11804
400.39        10.16539
400.84        10.07897
401.29        9.886302
401.74        9.731881
402.18         9.66104
402.63        9.681705
403.08        9.767185
403.53        9.817362
403.97        9.817811
404.42         9.83217
404.87         9.86292
405.32        9.893576
405.76        9.920094
406.21         9.91454
406.66        9.884034
407.11        9.889592
407.55        9.905726
408.00        9.831074
408.45        9.670605
408.90        9.467973
409.34        9.282487
409.79        9.236388
410.24        9.309813
410.68        9.349817
411.13        9.341348
411.58        9.377997
412.03        9.453525
412.47        9.506375
412.92        9.518957
413.37        9.509484
413.81         9.47253
414.26        9.408268
414.71        9.319534
415.15        9.208817
415.60        9.096884
416.05        9.021852
416.49        8.995678
416.94        9.005436
417.39        9.034177
417.83        9.053755
418.28         9.04903
418.73        9.025107
419.17         8.98252
419.62         8.92509
420.07        8.864058
420.51        8.809072
420.96           8.763
421.41        8.742754
421.85        8.746492
422.30        8.721902
422.74        8.702219
423.19        8.850581
423.64        9.124573
424.08        9.285746
424.53        9.254185
424.98        9.178826
425.42        9.060865
425.87        8.743427
426.31        8.350323
426.76         8.25641
427.21         8.43922
427.65        8.568714
428.10        8.580176
428.54        8.595812
428.99         8.59552
429.44        8.568938
429.88        8.505589
430.33        8.298403
430.77        8.056673
431.22        8.097959
431.66        8.387242
432.11        8.603025
432.56        8.678472
433.00        8.705466
433.45        8.616139
433.89        8.377536
434.34        8.172092
434.78        7.722348
435.23        8.016299
435.67        8.278997
436.12        8.399527
436.57        8.467964
437.01        8.414565
437.46         8.38156
437.90         8.41196
438.35         8.45913
438.79         8.26295
439.24        8.178028
439.68        8.141028
440.13        8.128388
440.57        8.123249
441.02        8.171222
441.46        8.246269
441.91        8.161486
442.35        7.997585
442.80        8.123502
443.24         8.46892
443.69        8.548627
444.13        8.347031
444.58        8.246466
445.02        8.245913
445.47        8.145663
445.91        7.972142
446.36        7.885139
446.80        7.896054
447.24        7.955604
447.69        8.046135
448.13        8.166164
448.58        8.288117
449.02        8.377178
449.47        8.418518
449.91        8.431528
450.36        8.417176
450.80        8.349721
451.25        8.265612
451.69        8.241041
452.13        8.282257
452.58        8.358546
453.02        8.423855
453.47        8.408661
453.91        8.298864
454.36        8.138993
454.80        7.957308
455.24        7.792176
455.69        7.685432
456.13        7.632258
456.58        7.641708
457.02        7.754194
457.46        7.915075
457.91        7.981455
458.35        7.979365
458.79        7.998286
459.24        8.050128
459.68        8.062295
460.13        8.046887
460.57        8.011176
461.01        7.998361
461.46        8.009243
461.90        8.006788
462.34        8.019005
462.79        8.164553
463.23        8.223104
463.68        8.218325
464.12        8.175874
464.56        8.105523
465.01        8.044744
465.45        7.976393
465.89        7.876374
466.34        7.780014
466.78        7.717277
467.22        7.692333
467.67        7.872242
468.11        7.900732
468.55        7.972863
468.99        7.976869
469.44        7.985313
469.88        7.994124
470.32         7.94733
470.77        7.875919
471.21        7.856683
471.65        7.904558
472.10        7.999291
472.54        8.100907
472.98        8.156982
473.42        8.157206
473.87        8.095745
474.31         8.01517
474.75        8.058045
475.20        8.205917
475.64        8.286612
476.08        8.270834
476.52        8.276744
476.97        8.308024
477.41        8.211979
477.85         8.10066
478.29        8.135849
478.74        8.124819
479.18        8.144119
479.62         8.36797
480.06        8.441574
480.50        8.438645
480.95        8.372366
481.39        8.271465
481.83        8.363751
482.27        8.411702
482.72        8.460509
483.16        8.663554
483.60        8.736338
484.04        8.718397
484.48        8.680158
484.93         8.76466
485.37        8.722549
485.81        8.797314
486.25         9.37518
486.69        8.689133
487.14        8.271297
487.58        9.403398
488.02        9.136935
488.46        9.329777
488.90        9.407994
489.34        8.963573
489.79        8.879866
490.23        9.234012
490.67        9.470702
491.11        9.601647
491.55        9.601805
491.99        9.528482
492.43        9.579893
492.88        9.766265
493.32        9.922074
493.76         10.0217
494.20        10.13931
494.64        10.27829
495.08        10.38678
495.52        10.46363
495.96        10.58779
496.41        10.77666
496.85        10.72641
497.29        10.54114
497.73        10.65309
498.17        11.02299
498.61        11.27465
499.05        11.33035
499.49         11.3529
499.93        11.36985
500.37        11.35481
500.82        11.33736
501.26        11.38783
501.70        11.52701
502.14          11.501
502.58         11.6976
503.02         11.7768
503.46        11.80278
503.90        11.80242
504.34        11.79494
504.78        11.84868
505.22        11.96652
505.66        12.10294
506.10         12.2298
506.54        12.33769
506.98        12.41863
507.42        12.41947
507.86        12.44737
508.30         12.4408
508.74        12.43901
509.18        12.43474
509.62        12.44415
510.06         12.4915
510.50        12.57692
510.94        12.69269
511.38        12.81184
511.82        12.89016
512.26        12.91628
512.70        12.90326
513.14        12.87014
513.58        12.84396
514.02        12.83653
514.46        12.85142
514.90        12.88758
515.34        12.89749
515.78        12.95168
516.22        12.98985
516.66        13.03683
517.10        13.09307
517.54        13.15596
517.98        13.22187
518.42        13.27002
518.86        13.27164
519.30        13.22346
519.74        13.13518
520.18        13.04151
520.62        12.99572
521.06        13.01084
521.50        13.07573
521.93        13.15578
522.37        13.18552
522.81        13.15197
523.25        13.06944
523.69        12.97925
524.13        12.94713
524.57        12.98319
525.01        13.06313
525.45        13.13427
525.89        13.11434
526.32        12.98699
526.76        12.79251
527.20         12.5842
527.64        12.44799
528.08        12.40666
528.52        12.42816
528.96        12.48614
529.40        12.53929
529.83        12.56855
530.27        12.58649
530.71        12.57778
531.15        12.51615
531.59        12.40466
532.03        12.25309
532.46        12.09996
532.90        12.02041
533.34        12.02764
533.78        12.10102
534.22        12.20615
534.66        12.28807
535.09        12.32889
535.53        12.34403
535.97         12.3429
536.41        12.34224
536.85        12.34836
537.28        12.35441
537.72        12.36001
538.16        12.36488
538.60        12.37158
539.04        12.38835
539.47        12.41358
539.91        12.45063
540.35        12.49575
540.79        12.54732
541.22        12.60694
541.66        12.67737
542.10        12.75602
542.54        12.84235
542.97        12.91946
543.41        12.96969
543.85        12.99064
544.29         12.9903
544.72        12.99197
545.16        13.04493
545.60        13.15222
546.04        13.29896
546.47        13.45851
546.91        13.58152
547.35         13.6558
547.79        13.70442
548.22        13.74004
548.66        13.78253
549.10        13.84869
549.53        13.98002
549.97         14.1636
550.41        14.33191
550.84        14.47305
551.28         14.6245
551.72        14.77687
552.15        14.89661
552.59        14.98488
553.03        15.04358
553.46        15.09035
553.90        15.16542
554.34        15.27373
554.77        15.41063
555.21        15.54834
555.65        15.64244
556.08        15.66732
556.52        15.67241
556.96        15.67708
557.39        15.73281
557.83        15.83642
558.27        15.90985
558.70        15.94083
559.14        15.96907
559.57        15.98958
560.01        15.99534
560.45        16.00042
560.88        16.01747
561.32        16.08262
561.75        16.22332
562.19        16.40699
562.63        16.57759
563.06        16.68045
563.50        16.60962
563.93        16.42579
564.37        16.37333
564.80        16.47031
565.24        16.60346
565.68        16.73687
566.11        16.85136
566.55        16.93617
566.98        17.01368
567.42        17.08718
567.85        17.11281
568.29        17.12609
568.72        17.16937
569.16        17.25651
569.60        17.39941
570.03        17.61195
570.47        17.71101
570.90        17.87334
571.34        18.21749
571.77        18.26373
572.21        18.19064
572.64        18.29383
573.08        18.32279
573.51        18.75479
573.95        18.84984
574.38        18.71115
574.82        18.74866
575.25        18.61937
575.69        18.81152
576.12        18.74243
576.56        19.08586
576.99        19.20284
577.42        19.12277
577.86        19.07173
578.29        19.19987
578.73        18.84956
579.16        18.88217
579.60        18.99991
580.03        19.03607
580.47        18.96435
580.90        18.78087
581.33        18.76699
581.77        18.86221
582.20        18.58083
582.64        18.27122
583.07        18.22198
583.51        18.19232
583.94        18.35147
584.37        18.40268
584.81        18.26587
585.24        18.13556
585.68        18.09131
586.11        17.78401
586.54        17.66907
586.98        17.71628
587.41         17.9841
587.85        17.61781
588.28        17.48346
588.71        17.63861
589.15        17.79042
589.58        17.42744
590.01        17.81865
590.45        17.76069
590.88        17.29141
591.31         17.2221
591.75        17.43082
592.18        17.57869
592.61        17.58138
593.05        17.64646
593.48        17.53197
593.91        17.29464
594.35        17.41928
594.78        17.72869
595.21        17.99753
595.65        17.99337
596.08        17.69016
596.51        17.93184
596.94        18.10298
597.38        18.38794
597.81        18.62031
598.24        18.59563
598.68        19.02171
599.11        19.31133
599.54        19.17108
599.97         19.1585
600.41        19.97144
600.84        20.27799
601.27        20.31834
601.70        20.46505
602.14        20.57659
602.57        21.01035
603.00        21.42664
603.43        21.76957
603.87        22.09394
604.30        22.25352
604.73        22.58371
605.16        23.20159
605.60        23.49746
606.03        23.90471
606.46        24.20652
606.89        24.48641
607.32        24.85187
607.76        25.42624
608.19        25.50295
608.62        25.81822
609.05        26.20866
609.48        26.49884
609.92        26.63484
610.35        27.31489
610.78        27.53873
611.21        27.57026
611.64        28.01468
612.07        28.20066
612.50        28.40031
612.94        28.66352
613.37        29.04154
613.80        29.23638
614.23        29.72476
614.66        29.99144
615.09        30.32661
615.52        30.57119
615.96        30.83062
616.39        30.81638
616.82        31.07172
617.25        31.47086
617.68        31.61587
618.11         31.7672
618.54        31.84185
618.97        32.17248
619.40        32.66714
619.84        33.12501
620.27         33.1498
620.70        33.16146
621.13        33.08523
621.56        33.44809
621.99        33.58468
622.42        33.71252
622.85        33.72845
623.28        34.11673
623.71        34.14611
624.14        33.80508
624.57        34.08178
625.00        34.20659
625.43        33.98966
625.86        34.05777
626.29        34.25859
626.72        33.99761
627.15        33.96092
627.58        33.74379
628.01        33.64157
628.44        33.24689
628.87        33.04627
629.30        33.13987
629.73        32.78419
630.16        32.27629
630.59        32.22612
631.02        31.97677
631.45        31.74766
631.88        31.48925
632.31        31.21465
632.74        30.77406
633.17        30.48176
633.60        30.11089
634.03        29.75496
634.46        29.40549
634.89         29.0476
635.32        28.64467
635.75        28.19251
636.18         27.7271
636.61        27.26971
637.04        26.81921
637.47        26.40055
637.89        26.07738
638.32        25.81788
638.75         25.5329
639.18        25.21325
639.61        24.90974
640.04        24.62033
640.47        24.32687
640.90        24.03329
641.33        23.73517
641.76        23.45149
642.18        23.27271
642.61        23.11481
643.04        23.03938
643.47        22.99859
643.90        22.95788
644.33        22.90512
644.76        22.85124
645.18        22.80529
645.61        22.77972
646.04        22.77986
646.47        22.79825
646.90        22.84436
647.33        22.93098
647.75         23.0668
648.18         23.2661
648.61        23.50033
649.04        23.73587
649.47        23.97241
649.89        24.15607
650.32        24.34533
650.75        24.79102
651.18        25.41256
651.61        25.81561
652.03        25.95982
652.46        26.10738
652.89        26.40793
653.32        26.72737
653.74        27.11996
654.17        28.01028
654.60        28.13749
655.03        28.01668
655.46        28.91909
655.88        29.49732
656.31        30.20147
656.74        30.32112
657.16        30.31991
657.59        30.65403
658.02        31.35588
658.45        31.71292
658.87        32.40762
659.30        32.96911
659.73        32.77079
660.15         32.7356
660.58        33.44869
661.01        33.87957
661.44        34.22651
661.86        34.44718
662.29        34.59474
662.72        34.81129
663.14        35.12162
663.57        35.42679
664.00        35.70952
664.42          35.982
664.85        36.25257
665.27         36.5414
665.70        36.84389
666.13         37.1346
666.55        37.41253
666.98        37.68602
667.41        37.96533
667.83        38.25666
668.26         38.5515
668.69        38.85129
669.11        39.12971
669.54        39.34478
669.96        39.49984
670.39        39.58186
670.82        39.63357
671.24        39.78407
671.67        40.04332
672.09        40.17565
672.52        40.44125
672.94        40.59088
673.37        40.72873
673.80        40.93041
674.22        41.19284
674.65        41.39336
675.07        41.53116
675.50        41.66101
675.92        41.80674
676.35        41.97321
676.77        42.16861
677.20        42.39093
677.62        42.61464
678.05        42.78555
678.47         42.8937
678.90         42.9632
679.32        43.02545
679.75        43.14013
680.17        43.32069
680.60        43.55014
681.02        43.78871
681.45        43.97963
681.87        44.11706
682.30         44.1456
682.72        44.11927
683.15        44.28455
683.57        44.59099
684.00        44.61626
684.42        44.41673
684.85        44.43631
685.27        44.69133
685.70        44.94202
686.12        45.13701
686.54        45.31589
686.97        45.45108
687.39        45.53294
687.82        45.59568
688.24        45.60273
688.66        45.78893
689.09        45.94549
689.51        46.11933
689.94        46.24719
690.36        46.32793
690.78        46.37691
691.21         46.4236
691.63          46.508
692.06        46.64115
692.48        46.80315
692.90        46.97504
693.33        47.12204
693.75        47.24067
694.17        47.34858
694.60        47.43744
695.02        47.53022
695.44        47.63374
695.87        47.67586
696.29        47.70147
696.71        47.95085
697.14        48.34581
697.56        48.47625
697.98        48.37814
698.41        48.51788
698.83        48.85642
699.25        49.19259
699.68        49.45041
700.10        49.68316
700.52         49.8652
700.94        49.98745
701.37        50.05558
701.79        50.10872
702.21         50.1502
702.64        50.18734
703.06         50.2394
703.48         50.3487
703.90        50.52683
704.33        50.76223
704.75        51.02385
705.17        51.23677
705.59        51.37761
706.01        51.44827
706.44        51.49794
706.86        51.64556
707.28        51.74949
707.70        52.01973
708.12        52.38762
708.55        52.28392
708.97        52.43366
709.39        52.50317
709.81        52.69617
710.23        52.79901
710.66        52.80798
711.08         52.8457
711.50        52.90505
711.92        52.95739
712.34        53.00875
712.76        53.07344
713.19        53.15123
713.61        53.27292
714.03        53.42384
714.45        53.59312
714.87        53.76982
715.29        53.94135
715.71        54.10154
716.13        54.25039
716.56        54.37067
716.98        54.49092
717.40        54.59693
717.82        54.69374
718.24        54.78611
718.66        54.88343
719.08        54.98918
719.50        55.09552
719.92        55.21789
720.34         55.3795
720.76        55.57772
721.19        55.79836
721.61        56.00171
722.03        56.09805
722.45        56.07069
722.87        55.94414
723.29        55.79966
723.71        55.75126
724.13        55.83102
724.55         56.0496
724.97        56.33857
725.39        56.39686
725.81         56.4855
726.23        56.40626
726.65        56.33484
727.07        56.40627
727.49        56.64736
727.91        57.00016
728.33        57.35581
728.75         57.5435
729.17        57.51894
729.59        57.34695
730.01        57.11485
730.43        56.96179
730.85        56.93636
731.27        56.99559
731.69        57.12657
732.10        57.31077
732.52        57.51152
732.94        57.77538
733.36        58.06614
733.78        58.19296
734.20        58.11557
734.62        58.36398
735.04        58.04587
735.46        58.13694
735.88        58.33727
736.30        58.35466
736.72        58.22505
737.13        58.35334
737.55        58.67117
737.97        58.81739
738.39        58.77005
738.81        58.61794
739.23        58.46865
739.65        58.66451
740.06        59.08269
740.48        59.25824
740.90        59.14149
741.32        59.07869
741.74        59.04073
742.16        59.06876
742.57        59.16243
742.99        59.31635
743.41        59.49992
743.83         59.6497
744.25        59.74849
744.67        59.80577
745.08        59.85037
745.50        59.90024
745.92        59.97327
746.34        60.05121
746.75        60.11768
747.17        60.16308
747.59        60.19558
748.01        60.18334
748.42        60.14411
748.84        60.24913
749.26        60.46368
749.68        60.40852
750.09        60.15694
750.51        60.33535
750.93        60.82107
751.35        60.84219
751.76        60.47051
752.18        60.39391
752.60        60.64661
753.01        60.86961
753.43        61.00884
753.85         61.1169
754.27         61.1603
754.68        61.35003
755.10        61.27811
755.52        61.30511
755.93        61.32047
756.35        61.34399
756.77        61.35159
757.18        61.36515
757.60        61.43375
758.02        61.35057
758.43        61.13251
758.85        61.44385
759.26        62.21437
759.68        61.59048
760.10        61.18279
760.51        61.18578
760.93         61.6372
761.34        61.46167
761.76        62.43366
762.18         62.3093
762.59        61.82679
763.01        61.86041
763.42        62.45151
763.84        62.60759
764.26        62.31062
764.67        62.17177
765.09         62.2689
765.50        62.33831
765.92        62.40001
766.33        62.56109
766.75        62.74438
767.16        62.78905
767.58        62.69949
768.00        62.86214
768.41        63.25125
768.83        63.39343
769.24        63.25126
769.66         63.1576
770.07        63.10179
770.49        62.83681
770.90        62.49248
771.32        62.56162
771.73        62.97376
772.15        63.23899
772.56        63.35076
772.97        63.43202
773.39        63.36524
773.80        63.95157
774.22        63.35551
774.63        63.36295
775.05        63.43725
775.46        63.52195
775.88        63.58695
776.29        63.77638
776.70        64.05015
777.12        64.22746
777.53        64.29958
777.95        64.30191
778.36        64.27237
778.77        64.25687
779.19        64.27169
779.60        64.30386
780.02        64.35668
780.43        64.44215
780.84        64.53691
781.26        64.69696
781.67        64.92348
782.09        64.93214
782.50        64.67406
782.91        65.05136
783.33        64.65279
783.74        64.70809
784.15        64.61205
784.57        64.67747
784.98        64.81433
785.39        64.70435
785.81        64.45641
786.22        64.66201
786.63        65.22116
787.04        65.45695
787.46        65.36857
787.87        65.39169
788.28        65.52818
788.70         65.5569
789.11        65.47778
789.52        65.33405
789.93        65.22089
790.35        65.33111
790.76        65.83294
791.17         65.9157
791.58        65.69722
792.00        65.68614
792.41        65.91062
792.82        66.19617
793.23        66.41795
793.65        66.21667
794.06        65.79029
794.47        65.90761
794.88          66.425
795.29        66.97721
795.71        66.56801
796.12        66.48193
796.53         66.4932
796.94        66.54853
797.35        66.62325
797.76        66.61234
798.18        66.54517
798.59        66.55558
799.00        66.65542
799.41        66.74071
799.82        66.79552
800.23        66.85396
800.64        66.90797
801.06        66.92863
801.47        66.93362
801.88        66.87802
802.29        66.76907
802.70        66.63391
803.11        66.51639
803.52        66.48525
803.93         66.5532
804.34        66.68703
804.75        66.88112
805.17        67.07944
805.58        67.27383
805.99        67.54777
806.40         67.8045
806.81        67.65489
807.22        67.19299
807.63        66.96606
808.04        67.02797
808.45        67.02616
808.86        66.96756
809.27        67.11824
809.68        67.41879
810.09         67.6077
810.50        67.63807
810.91        67.57632
811.32        67.48359
811.73        67.47346
812.14        67.57813
812.55        67.72874
812.96        67.86573
813.37        67.96715
813.78        67.97893
814.19        67.78256
814.60        67.48847
815.01        67.39611
815.42        67.54806
815.83        67.81216
816.24        68.11905
816.65        68.38216
817.05        68.54905
817.46        68.60336
817.87        68.59718
818.28        68.56828
818.69        68.53196
819.10        68.46972
819.51        68.39115
819.92         68.3187
820.33        68.26434
820.74        68.24017
821.14        68.22057
821.55        68.19087
821.96        68.12844
822.37        68.03697
822.78        67.95909
823.19        67.96857
823.60        68.08291
824.00        68.30474
824.41        68.51167
824.82        68.58875
825.23        68.50903
825.64        68.30709
826.04        68.12072
826.45        68.14553
826.86        68.43269
827.27        68.91768
827.68         69.4418
828.08        69.77164
828.49        69.77134
828.90        69.54414
829.31        69.23094
829.72         69.0726
830.12        69.16218
830.53        69.38899
830.94        69.65565
831.35        69.76727
831.75        69.68998
832.16        69.44839
832.57        69.16908
832.97        69.02793
833.38         69.0724
833.79        69.24831
834.20        69.46767
834.60         69.6015
835.01        69.62605
835.42        69.56863
835.82        69.50573
836.23        69.49138
836.64        69.56927
837.04        69.73253
837.45        69.86534
837.86        69.88091
838.26        69.76821
838.67        69.54583
839.08        69.31953
839.48        69.24034
839.89        69.34666
840.29        69.59612
840.70        69.88928
841.11        70.06814
841.51        70.11283
841.92        70.03564
842.33        69.93507
842.73         69.9726
843.14        70.13265
843.54        70.37019
843.95        70.60773
844.35         70.7448
844.76        70.73874
845.17         70.6376
845.57        70.44885
845.98        70.14475
846.38        69.77424
846.79        69.33499
847.19        68.94749
847.60        68.76089
848.00        68.82668
848.41        69.06803
848.81        69.40379
849.22        69.61737
849.62        69.67674
850.03         69.6105
850.43        69.47284
850.84        69.27885
851.24        69.09746
851.65        68.85833
852.05         68.6845
852.46        68.70127
852.86        68.91924
853.27        69.30921
853.67         69.6536
854.07        69.81552
854.48        69.72833
854.88        69.46674
855.29        69.05808
855.69        68.75858
856.10        68.57919
856.50        68.55643
856.90        68.58977
857.31        68.54202
857.71        68.42663
858.12        68.22347
858.52        68.09352
858.92         68.1701
859.33        68.45875
859.73        68.94266
860.13        69.40022
860.54        69.47079
860.94        69.10507
861.34        68.38963
861.75        67.57394
862.15        67.11417
862.55        67.09661
862.96        67.41717
863.36        67.86352
863.76        68.06681
864.17        67.91514
864.57        67.53267
864.97        67.11019
865.38        66.92735
865.78         67.0998
866.18        67.51436
866.58        67.96905
866.99        68.13076
867.39        67.93902
867.79        67.48417
868.19        66.99178
868.60          66.755
869.00        66.83176
869.40        67.15788
869.80        67.57777
870.21        67.81159
870.61        67.82925
871.01        67.65721
871.41        67.41439
871.81        67.26476
872.22        67.22305
872.62        67.26333
873.02        67.31989
873.42        67.27283
873.82        67.10831
874.22        66.90818
874.63        66.76748
875.03        66.79025
875.43        66.99902
875.83         67.3278
876.23        67.74884
876.63        68.21874
877.03        68.68411
877.44        69.13258
877.84        69.44865
878.24        69.42511
878.64        69.04786
879.04        68.40404
879.44        67.71447
879.84        67.28467
880.24        67.18284
880.64         67.3476
881.04        67.63789
881.44        67.79823
881.84        67.74553
882.24        67.53284
882.65        67.28024
883.05        67.28674
883.45        67.56807
883.85        68.03777
884.25         68.4772
884.65        68.57491
885.05        68.28193
885.45        67.69314
885.85        67.07829
886.25        66.89637
886.65         67.2557
887.05        68.00686
887.45        68.82266
887.85        69.20786
888.25        69.04148
888.65        68.45877
889.04        67.72547
889.44        67.33158
889.84        67.38612
890.24        67.74117
890.64        68.13688
891.04        68.16729
891.44        67.75224
891.84        67.06348
892.24        66.34444
892.64        65.95645
893.04        66.00112
893.44        66.35962
893.83          66.906
894.23        67.37896
894.63        67.70644
895.03        67.93359
895.43         68.1027
895.83        68.27793
896.23        68.47538
896.63         68.6668
897.02         68.7796
897.42        68.75759
897.82        68.59365
898.22        68.32392
898.62        68.08349
899.01        68.09885
899.41        68.39136
899.81        68.89632
900.21        69.42812
900.61        69.67693
901.00        69.55608
901.40        69.18479
901.80        68.70797
902.20        68.37215
902.59        68.26547
902.99        68.29663
903.39        68.43184
903.79        68.60126
904.18        68.76144
904.58        68.94643
904.98        69.11267
905.38        69.19274
905.77        69.17037
906.17        69.05695
906.57        68.91022
906.96         68.8632
907.36        68.92644
907.76        69.08508
908.15        69.26393
908.55        69.26275
908.95        69.07142
909.34        68.72716
909.74        68.38982
910.14        68.24784
910.53        68.34637
910.93        68.60925
911.33        68.91417
911.72        69.04955
912.12         68.9575
912.52        68.75608
912.91        68.53187
913.31        68.42979
913.70        68.48544
914.10         68.6152
914.49        68.87601
914.89        69.30808
915.29        69.88292
915.68        70.56068
916.08        71.11546
916.47         71.1961
916.87          70.772
917.26        69.94089
917.66        69.00925
918.05         68.4304
918.45        68.31893
918.84        68.58354
919.24        69.00272
919.64        69.27464
920.03        69.32229
920.42        69.24657
920.82        69.15398
921.21        69.19678
921.61        69.39842
922.00        69.67638
922.40        69.99979
922.79        70.40223
923.19        70.81113
923.58        71.25953
923.98        71.55437
924.37        71.46045
924.77        70.94604
925.16        70.06596
925.55           69.13
925.95        68.67781
926.34         68.8465
926.74        69.48013
927.13        70.25916
927.52        70.55876
927.92        70.26252
928.31        69.56144
928.70        68.78506
929.10        68.43038
929.49        68.61947
929.89        69.15392
930.28        69.86535
930.67        70.35014
931.07        70.45471
931.46        70.33406
931.85        70.06608
932.24        69.79958
932.64        69.59961
933.03        69.41225
933.42        69.27139
933.82        69.24351
934.21        69.33443
934.60         69.5433
934.99         69.8001
935.39        69.94862
935.78        69.97507
936.17        69.90252
936.56        69.78667
936.96        69.72144
937.35        69.78493
937.74        69.91267
938.13        70.06179
938.53        70.18005
938.92        70.24979
939.31         70.2655
939.70        70.24573
940.09        70.21745
940.49        70.15972
940.88        70.10613
941.27        69.99318
941.66         69.7268
942.05        69.31664
942.44        68.82741
942.84        68.40465
943.23        68.21619
943.62        68.33754
944.01        68.70725
944.40         69.2354
944.79        69.74999
945.18        70.14632
945.57        70.42018
945.97        70.52303
946.36        70.47895
946.75        70.27119
947.14        69.90386
947.53        69.39964
947.92        68.82463
948.31        68.23757
948.70        67.66138
949.09        67.18265
949.48        66.90258
949.87        66.83726
950.26        66.98282
950.65        67.21555
951.04        67.32418
951.43        67.26318
951.82        67.07259
952.21        66.90228
952.60        67.02918
952.99         67.4877
953.38         68.1338
953.77        68.76329
954.16        69.08109
954.55        69.00893
954.94        68.64886
955.33        68.07457
955.72        67.41004
956.11        66.73473
956.50        66.03283
956.89        65.41094
957.28        65.04417
957.66        65.00627
958.05        65.26991
958.44        65.69333
958.83        66.01967
959.22        66.15717
959.61        66.11288
960.00        66.01308
960.39        66.07835
960.78        66.34617
961.16        66.78741
961.55        67.11329
961.94        66.94142
962.33        66.22878
962.72        65.16558
963.11        64.16256
963.49        63.81158
963.88        64.22767
964.27         65.2269
964.66        66.48766
965.04        67.42512
965.43        67.74216
965.82          67.654
966.21        67.33144
966.60        67.06168
966.98         66.9459
967.37        66.81696
967.76        66.73436
968.15        66.80013
968.53        67.03786
968.92        67.49916
969.31        67.93702
969.69        67.92381
970.08        67.41254
970.47        66.52771
970.86        65.78704
971.24         66.1068
971.63         67.5382
972.02        69.66745
972.40        71.84506
972.79        73.06596
973.17        73.21915
973.56        72.52757
973.95         71.3386
974.33        70.24418
974.72        69.49612
975.11        68.93703
975.49        68.48366
975.88        68.02966
976.26        67.54927
976.65        67.15772
977.04        66.87303
977.42        66.64624
977.81        66.42421
978.19        66.14412
978.58        65.99672
978.96         66.2503
979.35        66.91058
979.74        67.92728
980.12        68.94604
980.51        69.18967
980.89        68.61189
981.28        67.29131
981.66        65.84612
982.05        65.45875
982.43        66.39359
982.82        68.24538
983.20        70.21563
983.59        70.90233
983.97        70.09173
984.35        68.15742
984.74        65.80509
985.12        64.28429
985.51        64.02007
985.89        64.66023
986.28        65.74083
986.66        66.68536
987.04        67.25963
987.43        67.61237
987.81        67.87288
988.20        68.14291
988.58         68.4843
988.96        68.79604
989.35        68.84504
989.73        68.41346
990.12        67.42134
990.50        65.86696
990.88        64.18977
991.27         63.3973
991.65          63.831
992.03        65.24369
992.42        66.69843
992.80        67.29642
993.18           66.75
993.56        65.21553
993.95        63.33532
994.33        62.54393
994.71        63.48723
995.10        65.38354
995.48        67.27826
995.86        68.09193
996.24          67.736
996.63        66.47662
997.01        64.85649
997.39        64.03017
997.77        64.48871
998.15        65.83507
998.54        67.29798
998.92        67.86302
999.30        67.30835
999.68        65.97506
1000.06        64.41663
1000.45        63.59449
1000.83        63.89892
1001.21        64.94101
1001.59        66.26007
1001.97        67.20944
1002.35        67.62192
1002.73         67.7439
1003.12         67.6642
1003.50        67.39232
1003.88        67.07423
1004.26        66.61683
1004.64        66.27625
1005.02        66.41332
1005.40        67.04195
1005.78        68.13481
1006.16        69.21886
1006.54        69.41044
1006.92        68.50222
1007.30        66.73506
1007.69        64.89371
1008.07        64.18295
1008.45        64.94929
1008.83        66.75416
1009.21        68.75111
1009.59        69.72458
1009.97        69.32593
1010.35        67.76406
1010.73        65.47356
1011.11         63.7107
1011.49        63.18264
1011.86        63.66319
1012.24        64.45189
1012.62        64.75946
1013.00        64.43649
1013.38        63.90907
1013.76        63.41939
1014.14        63.31598
1014.52        63.74193
1014.90        64.42828
1015.28        65.57744
1015.66        67.56126
1016.04        70.17409
1016.41        73.20881
1016.79        75.46432
1017.17         75.6139
1017.55        73.57344
1017.93        69.93939
1018.31        65.85873
1018.69        63.10918
1019.06        62.28812
1019.44        63.03632
1019.82        65.02802
1020.20        67.36118
1020.58        69.32584
1020.95        70.89046
1021.33        71.87723
1021.71        72.09616
1022.09        71.57275
1022.46        70.26862
1022.84        68.25135
1023.22        65.56089
1023.60         62.3149
1023.97        58.38194
1024.35         54.6313
1024.73         52.4528
