SpectraSmart Spectrum 2.9.0.0
--------- Device Information -----------
Spectrum Name :  反射率_0
Saving Time :  2024/04/27 23:02:21
Spectro-Module Model Name : SE2030-DUVN
Spectro-Module Serial Number : OS361AC55029948
Wavelength Start : 200
Wavelength End : 1025
Wavelength Unit : Wavelength(nm)
Spectrum Unit : Reflectance(%)
-----------Spectrum Setting ------------
Integration Time : 20ms
Average : 10
Boxcar : 0
Background removal :  enabled
linearity correction :  enabled
SC :  disabled
Intensity correction :  disabled
DWT denoise :  enabled
savitzky-golay :  disabled
FFT :  disabled
Running average :  disabled
Kalman :  disabled
High pass :  disabled
---------------BEGIN--------------------
Wavelength(nm)             Reflectance(%)
200.29               0
200.75        90.88189
201.21        100.6584
201.67        106.5152
202.13        106.1834
202.58        101.6908
203.04        95.48331
203.50        90.25492
203.96        90.20959
204.42        94.92033
204.88        101.4522
205.34        107.7966
205.80        112.8844
206.26        117.0872
206.72        121.6703
207.18        126.0615
207.64        125.3104
208.10        118.7193
208.55        111.6546
209.01        106.5147
209.47        102.7914
209.93        98.79886
210.39        91.11488
210.85        73.66221
211.31        73.70557
211.77        114.2023
212.23         128.545
212.69        131.0515
213.14        130.1624
213.60        126.5774
214.06        119.1765
214.52        105.6981
214.98         92.8755
215.44        92.00923
215.90        97.45387
216.36        103.6578
216.81        108.4371
217.27        112.3989
217.73        116.7274
218.19        120.2302
218.65        120.4269
219.11        116.6823
219.57        108.9986
220.02        100.2144
220.48        98.20992
220.94        105.0837
221.40        117.5748
221.86        129.8509
222.32        136.4052
222.77        137.5088
223.23        135.6679
223.69        134.2759
224.15        137.3155
224.61        145.1119
225.06         156.497
225.52        167.7583
225.98        170.8236
226.44          165.39
226.90        156.5256
227.36        149.0978
227.81        146.5216
228.27        148.8623
228.73        154.5338
229.19        161.8769
229.65        167.2951
230.10        169.0467
230.56        168.3798
231.02        166.7545
231.48        166.3354
231.93        167.4106
232.39        169.4536
232.85        171.2119
233.31        171.3657
233.77        169.8005
234.22        167.0376
234.68        164.4215
235.14        163.3865
235.60        164.1982
236.05        166.7861
236.51        169.5119
236.97        169.3113
237.43        165.1172
237.88        157.9821
238.34        150.4825
238.80        146.1675
239.26         145.679
239.71        149.7705
240.17        156.4744
240.63        156.5003
241.08        144.6523
241.54         129.072
242.00        117.7378
242.46        112.1562
242.91        110.5771
243.37        111.8985
243.83        117.8093
244.28        128.5025
244.74        134.1536
245.20        131.9721
245.66        127.1984
246.11        123.6718
246.57        120.9779
247.03        116.3907
247.48        110.2929
247.94         108.345
248.40        114.6419
248.85        125.8769
249.31        134.2958
249.77        132.9568
250.22        124.8593
250.68        115.1285
251.14        107.2555
251.59          103.98
252.05        105.4781
252.51        111.0488
252.96        120.9959
253.42        132.0052
253.88        138.3773
254.33        139.6581
254.79        138.7582
255.25         137.073
255.70        134.9066
256.16        133.2092
256.62         131.833
257.07        130.8704
257.53         131.096
257.99         131.681
258.44         132.208
258.90        133.3253
259.35        134.1567
259.81        135.3311
260.27        136.1303
260.72        135.8539
261.18        135.2559
261.63        133.9854
262.09        132.9714
262.55        132.3019
263.00        131.7663
263.46        131.5659
263.91        131.1408
264.37        130.5575
264.83        129.6507
265.28        128.4474
265.74        127.3178
266.19        126.1028
266.65        125.0181
267.11        123.9252
267.56        122.8203
268.02        121.9023
268.47        121.0982
268.93        120.4246
269.38        119.7391
269.84        118.9152
270.30        117.8924
270.75        116.6902
271.21        115.4001
271.66        114.0509
272.12        112.7154
272.57        111.2964
273.03        109.8708
273.48        108.3829
273.94        106.9557
274.39        105.5146
274.85        104.1602
275.31        102.7622
275.76        101.2663
276.22        99.83651
276.67        98.41623
277.13        97.24202
277.58        96.17402
278.04        95.24849
278.49        94.26328
278.95        93.23367
279.40        92.00507
279.86        90.74358
280.31         89.3213
280.77        87.85117
281.22         86.2714
281.68        84.74426
282.13        83.25751
282.59        82.01903
283.04        80.93539
283.50        80.00826
283.95        79.12039
284.41        78.25452
284.86        77.32981
285.32        76.44632
285.77        75.48772
286.22        74.41724
286.68        73.27307
287.13         72.0117
287.59        70.82883
288.04        69.87035
288.50        69.22425
288.95        68.76558
289.41        68.39363
289.86        67.83153
290.32        67.07664
290.77        66.16919
291.22        65.24595
291.68        64.49075
292.13        63.91543
292.59        63.49115
293.04        63.12818
293.50        62.75554
293.95        62.32687
294.40        61.88778
294.86        61.48626
295.31        61.16697
295.77        60.95453
296.22        60.81215
296.68        60.71056
297.13        60.57631
297.58        60.40362
298.04        60.22664
298.49        60.06461
298.95        59.99433
299.40        60.00037
299.85        60.05911
300.31        60.15115
300.76        60.20408
301.21        60.21075
301.67        60.20638
302.12        60.14897
302.58        60.06241
303.03        59.91711
303.48        59.73533
303.94        59.58919
304.39        59.50787
304.84        59.52308
305.30        59.62972
305.75        59.72511
306.20        59.72631
306.66        59.63187
307.11        59.43139
307.57        59.22795
308.02         59.0877
308.47        59.05093
308.93        59.09703
309.38        59.12862
309.83        59.05414
310.29         58.8667
310.74         58.5802
311.19        58.27784
311.65        58.08315
312.10        57.99936
312.55        57.98724
313.00        57.98465
313.46        57.89803
313.91        57.69361
314.36        57.41698
314.82        57.08672
315.27        56.72883
315.72        56.36928
316.18        56.01228
316.63        55.69161
317.08        55.48829
317.53        55.40806
317.99        55.41859
318.44        55.45705
318.89        55.39906
319.35        55.21132
319.80        54.93272
320.25        54.60424
320.70        54.30329
321.16        54.05048
321.61        53.83212
322.06        53.64553
322.51        53.49297
322.97        53.35937
323.42        53.26638
323.87        53.17426
324.32         53.0246
324.78         52.7995
325.23        52.52895
325.68        52.24734
326.13        52.02945
326.59        51.87996
327.04        51.80431
327.49         51.7573
327.94        51.68122
328.39        51.55386
328.85        51.37597
329.30        51.18855
329.75        51.00626
330.20        50.84766
330.66        50.70204
331.11        50.58787
331.56        50.46582
332.01        50.33376
332.46        50.19321
332.92        50.08475
333.37        50.13989
333.82        50.34694
334.27         50.6605
334.72        50.95829
335.17        51.04128
335.63        50.85559
336.08         50.5008
336.53        50.06973
336.98        49.74556
337.43        49.59808
337.88         49.5721
338.34        49.66813
338.79        49.89713
339.24        50.22242
339.69        50.64107
340.14         51.0256
340.59        51.16487
341.05        51.02441
341.50        50.67311
341.95          50.262
342.40        50.05291
342.85        50.11411
343.30        50.36344
343.75        50.70861
344.20        50.99403
344.66        51.16378
345.11        51.26233
345.56        51.28777
346.01        51.23227
346.46        51.11015
346.91        50.91718
347.36        50.71719
347.81        50.61479
348.26        50.63232
348.72        50.75227
349.17        50.90343
349.62        50.96928
350.07        50.91831
350.52        50.77669
350.97        50.61955
351.42        50.56678
351.87        50.64191
352.32        50.80642
352.77        50.95642
353.22        50.93994
353.67        50.72548
354.13        50.36437
354.58         49.9584
355.03        49.72428
355.48        49.70627
355.93        49.84795
356.38        49.98257
356.83        49.84843
357.28        49.40514
357.73        48.75115
358.18        48.08589
358.63        47.71552
359.08        47.69972
359.53        47.92427
359.98         48.2126
360.43        48.29066
360.88        48.07982
361.33        47.66329
361.78        47.13264
362.23        46.66066
362.68        46.31098
363.13        45.98981
363.58        45.65892
364.03        45.51241
364.48        45.13438
364.93         44.8758
365.38        44.63491
365.83        44.44156
366.28        44.28853
366.73        44.15578
367.18         44.0149
367.63        43.81604
368.08        43.54957
368.53        43.23663
368.98        42.89117
369.43        42.53591
369.88        42.18898
370.33        41.84945
370.78        41.54889
371.23        41.33702
371.68        41.21455
372.13        41.15886
372.58        41.11844
373.03        41.00618
373.48        40.79897
373.93        40.52798
374.38        40.21274
374.83        39.88639
375.28        39.57066
375.72        39.24562
376.17        38.97596
376.62        38.81491
377.07        38.76018
377.52        38.78102
377.97        38.80714
378.42        38.72591
378.87         38.5131
379.32        38.21269
379.77        37.86211
380.22        37.51791
380.67          37.206
381.11        36.91238
381.56         36.6667
382.01        36.52084
382.46        36.47723
382.91        36.51906
383.36        36.57711
383.81        36.53916
384.26        36.37885
384.71         36.1262
385.15        35.82535
385.60        35.58978
386.05        35.43601
386.50        35.33694
386.95         35.2677
387.40        35.18967
387.85        35.09419
388.29        34.97968
388.74        34.89104
389.19        34.80943
389.64        34.72737
390.09        34.62225
390.54        34.50839
390.98        34.40755
391.43        34.34258
391.88        34.31018
392.33        34.23997
392.78        34.08584
393.23        33.86609
393.67         33.4599
394.12        33.01629
394.57        33.14022
395.02        33.26226
395.47         33.2719
395.91        33.02886
396.36        32.96758
396.81        33.09788
397.26        33.17308
397.71        33.15622
398.15        33.11874
398.60        33.09529
399.05         32.9376
399.50        32.73388
399.95        32.82227
400.39        33.10991
400.84        33.08495
401.29        32.74884
401.74        32.43243
402.18        32.23708
402.63         32.2212
403.08        32.33412
403.53        32.30585
403.97        32.12284
404.42        31.99325
404.87         31.9349
405.32        31.90969
405.76        31.91614
406.21        31.88047
406.66        31.83225
407.11        31.97355
407.55        32.21872
408.00        32.22009
408.45        31.97063
408.90        31.57648
409.34        31.20181
409.79         31.2427
410.24        31.60964
410.68        31.74905
411.13        31.61482
411.58        31.54969
412.03        31.57907
412.47        31.57545
412.92        31.52898
413.37        31.48953
413.81        31.43649
414.26        31.36165
414.71        31.25912
415.15        31.13555
415.60         31.0211
416.05          30.992
416.49        31.06397
416.94        31.20655
417.39        31.35652
417.83        31.41726
418.28        31.35932
418.73         31.1994
419.17        31.00455
419.62        30.88991
420.07        30.89593
420.51        30.99739
420.96        31.11593
421.41        31.16463
421.85        31.11605
422.30         30.8633
422.74        30.55012
423.19        30.77068
423.64        31.40038
424.08        31.58984
424.53        31.24563
424.98        31.10365
425.42        31.20531
425.87        30.93369
426.31        30.43568
426.76        30.58091
427.21         31.2092
427.65        31.20493
428.10        30.65553
428.54        30.49123
428.99        30.73513
429.44        31.13814
429.88        31.46399
430.33        31.04865
430.77        30.18629
431.22        30.04971
431.66        30.61869
432.11        31.11837
432.56        31.40246
433.00        31.46901
433.45         31.1125
433.89        30.73082
434.34        30.75084
434.78        29.30466
435.23        30.14754
435.67        30.94737
436.12        31.33893
436.57        31.28081
437.01        30.63399
437.46        30.32837
437.90         30.5596
438.35        31.07292
438.79        30.78716
439.24        30.77148
439.68        30.73572
440.13        30.63308
440.57        30.49294
441.02        30.62087
441.46        30.94338
441.91        30.78698
442.35        30.31075
442.80        30.61948
443.24         31.4828
443.69        31.43625
444.13        30.57474
444.58          30.233
445.02        30.43546
445.47        30.49983
445.91        30.38093
446.36         30.3505
446.80        30.39244
447.24        30.41487
447.69         30.4209
448.13         30.4805
448.58        30.55402
449.02        30.47772
449.47        30.29617
449.91        30.21327
450.36        30.25382
450.80        30.29812
451.25        30.33922
451.69        30.40841
452.13        30.48885
452.58        30.54288
453.02        30.55925
453.47        30.53859
453.91        30.47919
454.36        30.42685
454.80        30.35763
455.24        30.19883
455.69        30.02746
456.13        29.89928
456.58        29.86262
457.02        30.09965
457.46        30.43085
457.91        30.32199
458.35        29.96758
458.79        29.85847
459.24        30.05002
459.68        30.22903
460.13        30.35366
460.57        30.32013
461.01        30.24781
461.46        30.19426
461.90        30.03028
462.34        29.88866
462.79        30.24692
463.23        30.26983
463.68        30.12971
464.12        30.02048
464.56        29.98746
465.01        30.10328
465.45        30.22371
465.89        30.11131
466.34        29.86177
466.78        29.64301
467.22        29.48154
467.67        30.04532
468.11        29.99806
468.55        30.07792
468.99        29.92734
469.44        29.91983
469.88        30.05662
470.32        30.10412
470.77        30.07777
471.21        30.10247
471.65        30.18699
472.10        30.30252
472.54        30.38688
472.98        30.39327
473.42        30.32427
473.87        30.11775
474.31        29.86757
474.75        29.98861
475.20        30.39309
475.64        30.47574
476.08        30.22634
476.52        30.21098
476.97        30.45683
477.41        30.36352
477.85        30.22096
478.29        30.43606
478.74        30.24231
479.18        29.99464
479.62        30.46712
480.06        30.53296
480.50        30.50902
480.95        30.44962
481.39        30.35331
481.83        30.58784
482.27        30.67618
482.72        30.50218
483.16        30.87817
483.60        30.93497
484.04        30.91111
484.48        30.98985
484.93        31.37329
485.37        31.06534
485.81        31.43065
486.25        31.97801
486.69         31.6668
487.14        30.85639
487.58         31.7726
488.02        31.95752
488.46        31.74681
488.90        31.69386
489.34        31.39865
489.79        30.99707
490.23        31.69367
490.67        32.01843
491.11        32.24504
491.55        32.17978
491.99        31.92909
492.43        31.91042
492.88        32.14559
493.32        32.36058
493.76        32.49394
494.20        32.64328
494.64        32.80827
495.08        32.90203
495.52          32.959
495.96        33.17968
496.41        33.53816
496.85         33.5979
497.29        33.42767
497.73        33.55766
498.17        33.92909
498.61        34.21446
499.05        34.31535
499.49        34.33757
499.93        34.33784
500.37        34.33641
500.82        34.35052
501.26        34.52278
501.70        34.87142
502.14        34.57804
502.58        34.88097
503.02        34.92802
503.46        34.94242
503.90        34.94673
504.34        34.92523
504.78        34.97173
505.22        35.07372
505.66         35.1427
506.10        35.18764
506.54        35.31583
506.98        35.53264
507.42        35.64003
507.86        35.86319
508.30        35.89378
508.74        35.80538
509.18        35.61512
509.62        35.42041
510.06        35.37477
510.50        35.50828
510.94         35.7765
511.38        36.07807
511.82        36.24786
512.26        36.24495
512.70        36.12477
513.14        35.96547
513.58        35.88052
514.02        35.90372
514.46        36.01651
514.90        36.18712
515.34        36.23852
515.78         36.3565
516.22        36.39549
516.66        36.41775
517.10        36.41337
517.54        36.38839
517.98        36.33833
518.42        36.28152
518.86        36.25781
519.30        36.27458
519.74        36.32263
520.18         36.3805
520.62        36.41067
521.06        36.40515
521.50        36.37807
521.93        36.34433
522.37        36.31844
522.81         36.3092
523.25        36.30296
523.69        36.30102
524.13        36.30789
524.57        36.31787
525.01        36.32897
525.45        36.31649
525.89         36.2394
526.32        36.09295
526.76         35.9077
527.20        35.71843
527.64        35.58572
528.08        35.52562
528.52        35.51476
528.96        35.54343
529.40        35.59418
529.83        35.64951
530.27        35.71885
530.71        35.76151
531.15        35.71746
531.59        35.58263
532.03        35.37565
532.46        35.16044
532.90         35.0582
533.34        35.08923
533.78        35.21732
534.22        35.37625
534.66        35.46263
535.09         35.4472
535.53        35.37233
535.97        35.27259
536.41        35.20943
536.85        35.20249
537.28        35.23169
537.72        35.28187
538.16        35.32617
538.60        35.35684
539.04        35.39186
539.47        35.42628
539.91        35.47073
540.35        35.51788
540.79        35.57055
541.22        35.62164
541.66        35.66515
542.10        35.70044
542.54        35.73367
542.97        35.77185
543.41        35.84502
543.85        35.95266
544.29        36.09026
544.72        36.23962
545.16        36.39497
545.60        36.54023
546.04        36.67168
546.47        36.79863
546.91        36.93375
547.35        37.07343
547.79        37.23193
548.22        37.37373
548.66        37.43032
549.10        37.42403
549.53        37.50569
549.97        37.69128
550.41        37.87496
550.84        38.05226
551.28        38.29751
551.72        38.56574
552.15        38.73974
552.59        38.81267
553.03        38.80841
553.46        38.77813
553.90        38.82988
554.34        38.97783
554.77        39.20527
555.21        39.44965
555.65        39.61182
556.08        39.63181
556.52        39.63319
556.96        39.64867
557.39        39.78483
557.83        40.02225
558.27        40.15783
558.70        40.18418
559.14        40.24189
559.57        40.32189
560.01        40.39584
560.45        40.43891
560.88        40.39054
561.32        40.33797
561.75        40.38376
562.19        40.54826
562.63        40.83764
563.06        41.14396
563.50        41.15247
563.93        40.91335
564.37        40.86652
564.80        41.02404
565.24         41.1622
565.68         41.2587
566.11        41.37541
566.55        41.51761
566.98        41.67732
567.42        41.84602
567.85        41.93393
568.29        41.99073
568.72        42.05813
569.16        42.16711
569.60        42.34659
570.03        42.61359
570.47        42.60621
570.90        42.84862
571.34        43.15829
571.77        43.40683
572.21        43.27963
572.64        43.60415
573.08        43.58963
573.51        43.77218
573.95        43.91539
574.38        43.97519
574.82         44.2668
575.25        44.07125
575.69        43.92756
576.12        43.96552
576.56        44.38709
576.99        44.30959
577.42        44.18984
577.86        44.35507
578.29        44.68061
578.73         44.2975
579.16        44.33716
579.60        44.39228
580.03        44.41108
580.47        44.35754
580.90        44.06269
581.33        44.10289
581.77        44.30693
582.20        44.25899
582.64        44.04636
583.07        43.88115
583.51        43.60834
583.94         43.4809
584.37         43.3852
584.81        43.36218
585.24        43.23591
585.68         43.0805
586.11        43.19719
586.54        43.12443
586.98        43.21833
587.41        43.32019
587.85        42.81887
588.28        42.90108
588.71        42.62041
589.15         43.0865
589.58        42.46035
590.01        43.01555
590.45        43.01527
590.88        42.30389
591.31        42.20955
591.75        42.50536
592.18        42.59039
592.61        42.49715
593.05        42.76684
593.48        43.49735
593.91        42.74714
594.35        42.97814
594.78        43.12144
595.21        43.14251
595.65        43.21643
596.08        43.08399
596.51        43.66325
596.94        43.44196
597.38        43.75729
597.81        44.21715
598.24        44.13538
598.68        44.55888
599.11        45.03957
599.54        44.99842
599.97        45.37441
600.41        45.87066
600.84        46.24058
601.27        46.43631
601.70        46.66405
602.14        46.85614
602.57        47.28671
603.00        47.48623
603.43        48.03076
603.87        48.66125
604.30        48.85745
604.73        49.09685
605.16        49.61604
605.60        49.93094
606.03        50.57566
606.46         51.2755
606.89        51.39134
607.32        51.66465
607.76        52.41705
608.19        52.39784
608.62        52.71786
609.05        52.99086
609.48          53.286
609.92        53.56852
610.35        53.93368
610.78        54.36957
611.21        54.32388
611.64        55.02092
612.07         55.2259
612.50        55.34332
612.94        55.52301
613.37         55.8026
613.80        56.14643
614.23        56.47722
614.66        56.57549
615.09        57.08732
615.52        57.34919
615.96        57.60634
616.39        57.58013
616.82        57.88729
617.25         58.2787
617.68        58.34004
618.11        58.59196
618.54        58.87952
618.97        59.18443
619.40        59.41818
619.84        59.86074
620.27        59.87807
620.70        59.98219
621.13        59.89021
621.56        60.40657
621.99        60.14484
622.42        60.02625
622.85        60.14183
623.28         60.7418
623.71          60.605
624.14        59.99375
624.57        60.63644
625.00        60.77638
625.43        60.39175
625.86        60.38115
626.29        60.61821
626.72        60.13582
627.15        60.17584
627.58        59.92833
628.01         59.8764
628.44        59.36876
628.87        59.28153
629.30        59.38552
629.73        59.07482
630.16        58.30077
630.59        58.38568
631.02          58.121
631.45        57.91698
631.88        57.68986
632.31        57.45825
632.74        56.95539
633.17        56.73712
633.60        56.34124
634.03        55.93573
634.46        55.51767
634.89        55.09742
635.32         54.6689
635.75        54.23294
636.18        53.82964
636.61        53.45635
637.04        53.04296
637.47        52.61763
637.89        52.32661
638.32        52.12617
638.75         51.8593
639.18        51.51563
639.61        51.18532
640.04        50.87537
640.47        50.57117
640.90        50.28085
641.33         49.9878
641.76        49.70044
642.18         49.5564
642.61        49.36227
643.04        49.26614
643.47        49.19271
643.90        49.11309
644.33        49.01964
644.76        48.92909
645.18        48.85821
645.61        48.82288
646.04        48.83401
646.47        48.88499
646.90        48.99101
647.33        49.17018
647.75        49.42548
648.18         49.7661
648.61        50.14558
649.04        50.48592
649.47        50.78057
649.89        51.02443
650.32        51.27605
650.75         51.7184
651.18        52.30692
651.61        52.76968
652.03        53.03917
652.46        53.27685
652.89        53.64297
653.32        53.85728
653.74        54.24929
654.17        55.34992
654.60         55.9053
655.03        55.82504
655.46        56.64597
655.88        57.24026
656.31        59.03176
656.74        60.99183
657.16        60.29035
657.59        59.55623
658.02        59.04263
658.45        60.03839
658.87        60.23512
659.30        60.75272
659.73        60.77181
660.15        61.03235
660.58        60.98581
661.01        61.54103
661.44        62.39339
661.86        62.83839
662.29        62.84866
662.72        62.83444
663.14        62.94351
663.57        63.28845
664.00        63.81657
664.42        64.14557
664.85        64.26382
665.27         64.4604
665.70        64.73396
666.13        64.92629
666.55        65.03831
666.98        65.12798
667.41        65.25348
667.83        65.46172
668.26        65.74574
668.69        66.22724
669.11         66.5881
669.54        66.88139
669.96        67.01343
670.39        67.05571
670.82        66.98685
671.24         67.1107
671.67        67.40627
672.09        67.63754
672.52        67.78587
672.94        68.00534
673.37        68.24816
673.80        68.23884
674.22        68.06454
674.65        68.06236
675.07        68.29013
675.50         68.5564
675.92         68.8204
676.35        69.06904
676.77        69.28452
677.20         69.4751
677.62         69.6422
678.05        69.76679
678.47        69.84974
678.90        69.90401
679.32         69.9633
679.75        70.07796
680.17        70.25246
680.60        70.53508
681.02        70.84928
681.45        70.93127
681.87         70.8305
682.30        70.82814
682.72        70.97668
683.15        71.18533
683.57        71.43362
684.00        71.61171
684.42        71.72292
684.85        71.90942
685.27        72.15721
685.70        72.35341
686.12         72.4845
686.54        72.63849
686.97        72.79738
687.39        72.91899
687.82        73.00188
688.24          73.016
688.66        73.14964
689.09        73.23668
689.51        73.34203
689.94        73.47057
690.36        73.63824
690.78        73.75426
691.21        73.83596
691.63        74.10785
692.06        74.47388
692.48        74.46549
692.90         74.1769
693.33        74.14442
693.75        74.40446
694.17        74.68105
694.60        74.90221
695.02        75.05988
695.44        75.13259
695.87        75.24097
696.29        75.38555
696.71        75.41458
697.14        75.35364
697.56        75.45364
697.98        75.68546
698.41         75.8783
698.83        76.00293
699.25        76.18117
699.68        76.38454
700.10        76.56007
700.52        76.68154
700.94        76.83661
701.37        76.87167
701.79         76.9153
702.21        76.91339
702.64        76.88518
703.06        76.84683
703.48        76.84783
703.90        76.91241
704.33        77.03207
704.75        77.19126
705.17        77.33527
705.59        77.44252
706.01        77.48669
706.44        77.52465
706.86        77.75115
707.28        77.94568
707.70         78.3651
708.12        78.81052
708.55        78.78198
708.97        78.37704
709.39         78.3209
709.81        78.63655
710.23        78.75732
710.66        78.67303
711.08        78.77015
711.50        79.00381
711.92        79.14502
712.34        79.18143
712.76        79.16726
713.19         79.1385
713.61        79.24142
714.03        79.48051
714.45        79.67546
714.87        80.00354
715.29        80.19403
715.71        80.30375
716.13        80.33514
716.56        80.30567
716.98        80.39524
717.40        80.61385
717.82        80.66509
718.24          80.982
718.66        81.15469
719.08        81.29966
719.50        81.41159
719.92         81.4885
720.34          81.516
720.76        81.49407
721.19        81.42926
721.61        81.34743
722.03        81.25639
722.45        81.17047
722.87        81.09343
723.29        81.06237
723.71        81.12957
724.13        81.30264
724.55        81.57006
724.97        81.86564
725.39        82.07915
725.81         82.1815
726.23        82.19256
726.65        82.18439
727.07        82.28069
727.49        82.50394
727.91        82.80857
728.33        83.10908
728.75        83.26286
729.17         83.2365
729.59        83.08798
730.01        82.88778
730.43        82.74903
730.85        82.71027
731.27        82.72923
731.69        82.80922
732.10        82.97001
732.52        83.20278
732.94        83.50205
733.36        83.76942
733.78        83.95956
734.20        84.07777
734.62        83.82407
735.04        83.42016
735.46         83.8821
735.88        84.34022
736.30        84.28848
736.72        83.64021
737.13        83.58588
737.55        84.10859
737.97        84.59041
738.39         84.8581
738.81         84.7233
739.23        84.28921
739.65        84.24458
740.06         84.5438
740.48        84.59293
740.90        84.35424
741.32         84.3188
741.74        84.39385
742.16        84.52865
742.57        84.68465
742.99        84.89027
743.41        85.11442
743.83        85.28416
744.25        85.38409
744.67        85.41431
745.08        85.42433
745.50        85.45876
745.92        85.54498
746.34        85.65765
746.75        85.76055
747.17        85.79244
747.59        85.75202
748.01        85.66588
748.42        85.57246
748.84        85.56364
749.26        85.65398
749.68        85.70253
750.09        85.72357
750.51        85.96178
750.93         86.3244
751.35        86.44225
751.76         86.3274
752.18        86.27502
752.60        86.27946
753.01        86.21681
753.43        86.17513
753.85        86.14208
754.27        86.08086
754.68        87.02187
755.10        87.31474
755.52        87.21596
755.93         87.0576
756.35        87.02352
756.77         87.2715
757.18        87.48287
757.60        87.76221
758.02        87.78877
758.43        87.27386
758.85        88.88853
759.26        87.70968
759.68        87.32999
760.10        87.24173
760.51        87.42883
760.93        87.49377
761.34        87.83385
761.76        88.30545
762.18        88.29313
762.59        87.97164
763.01        88.08179
763.42        88.64683
763.84        88.80635
764.26        88.59096
764.67        88.42921
765.09         88.4183
765.50        88.58433
765.92        88.87312
766.33        88.61161
766.75        88.21308
767.16        88.03772
767.58        88.21653
768.00         88.3351
768.41         88.4202
768.83        88.70542
769.24        89.12846
769.66        89.34232
770.07         89.3204
770.49        89.26852
770.90        89.24231
771.32        89.23112
771.73        89.24302
772.15        89.19527
772.56        89.11195
772.97        89.06693
773.39        89.05591
773.80        89.13943
774.22        89.26764
774.63        89.40675
775.05        89.50739
775.46        89.64955
775.88        89.78457
776.29        89.91395
776.70        89.99705
777.12        90.00871
777.53        89.97403
777.95        89.87141
778.36        89.78829
778.77        89.84149
779.19        90.06077
779.60        90.41975
780.02        90.79443
780.43        91.07549
780.84        91.21046
781.26        91.02152
781.67        90.87518
782.09        91.06946
782.50        91.36909
782.91        92.00128
783.33        90.68721
783.74        90.51516
784.15        90.82296
784.57        91.13544
784.98        91.33611
785.39        91.26233
785.81        91.03985
786.22         91.2974
786.63        91.92248
787.04        92.17776
787.46        92.04331
787.87        91.91696
788.28        91.86158
788.70        91.80755
789.11        91.76638
789.52        91.71394
789.93        91.67876
790.35        91.85628
790.76        92.19304
791.17        92.23657
791.58        92.04212
792.00        92.07058
792.41        92.33536
792.82        92.55388
793.23        92.66815
793.65        92.61002
794.06        92.54618
794.47          92.897
794.88        93.43994
795.29         94.0444
795.71        93.57693
796.12        93.28506
796.53        92.99408
796.94        92.97938
797.35        93.23294
797.76        93.38971
798.18        93.41244
798.59        93.49459
799.00        93.62411
799.41        93.63157
799.82        93.53203
800.23        93.46706
800.64        93.45738
801.06          93.431
801.47        93.43037
801.88        93.43189
802.29        93.43224
802.70        93.44174
803.11        93.46661
803.52        93.50694
803.93        93.57337
804.34        93.67093
804.75        93.78857
805.17        93.94157
805.58         94.1695
805.99        94.28758
806.40        94.33144
806.81        94.70596
807.22        95.22199
807.63         95.1006
808.04        94.45892
808.45        94.18207
808.86        94.35803
809.27         94.4961
809.68        94.51223
810.09        94.48862
810.50        94.40733
810.91        94.26173
811.32        94.11823
811.73        94.09873
812.14        94.23434
812.55        94.43426
812.96        94.65524
813.37        94.95988
813.78        95.24444
814.19        95.20583
814.60        94.92613
815.01        94.81056
815.42        94.90276
815.83         94.9982
816.24        95.05827
816.65        95.11072
817.05        95.14886
817.46        95.13351
817.87         95.1329
818.28        95.18188
818.69        95.28889
819.10         95.4409
819.51        95.61945
819.92        95.78633
820.33        95.92022
820.74        96.02328
821.14        96.08675
821.55        96.13763
821.96        96.16173
822.37        96.15245
822.78        96.11497
823.19        96.06139
823.60        95.99993
824.00        95.96482
824.41        95.89468
824.82        95.79857
825.23        95.68143
825.64        95.55778
826.04        95.49213
826.45        95.52827
826.86        95.69006
827.27        95.95127
827.68        96.24946
828.08        96.51638
828.49        96.64336
828.90         96.6926
829.31        96.69591
829.72        96.71623
830.12        96.80209
830.53        96.86559
830.94        96.92625
831.35        96.97343
831.75        97.03094
832.16        97.04878
832.57        97.03165
832.97        96.93492
833.38        96.75123
833.79        96.52068
834.20        96.31242
834.60        96.21932
835.01        96.27625
835.42         96.4417
835.82         96.6959
836.23        96.89278
836.64        97.02096
837.04        97.12938
837.45        97.16754
837.86        97.17499
838.26        97.18348
838.67        97.16659
839.08        97.16087
839.48        97.20984
839.89        97.31461
840.29         97.4566
840.70        97.63557
841.11        97.85316
841.51        98.11362
841.92        98.36887
842.33          98.555
842.73        98.56408
843.14        98.32433
843.54        97.91264
843.95        97.45284
844.35        97.18016
844.76        97.14082
845.17         97.2888
845.57        97.52445
845.98        97.61788
846.38        97.54102
846.79        97.31949
847.19        97.07198
847.60        96.91682
848.00        96.92329
848.41        97.00468
848.81        97.12455
849.22         97.1324
849.62        97.04462
850.03        96.89409
850.43        96.76868
850.84          96.702
851.24        96.77824
851.65        96.88089
852.05        97.11617
852.46        97.47905
852.86        97.92199
853.27        98.43697
853.67        98.76542
854.07        98.80824
854.48        98.50055
854.88        97.93359
855.29        97.17005
855.69        96.64423
856.10        96.38329
856.50        96.41914
856.90        96.57461
857.31        96.58958
857.71        96.45118
858.12         96.1814
858.52        95.95322
858.92         95.9025
859.33        96.03366
859.73        96.32349
860.13        96.63015
860.54        96.75074
860.94        96.67669
861.34        96.43692
861.75        96.07053
862.15        95.69747
862.55        95.33986
862.96         94.9778
863.36        94.66631
863.76        94.46613
864.17        94.38105
864.57        94.42556
864.97        94.52616
865.38        94.53223
865.78        94.45668
866.18        94.29065
866.58        94.08455
866.99        93.95417
867.39        93.98004
867.79        94.09632
868.19         94.2211
868.60        94.18556
869.00         93.9546
869.40        93.60454
869.80        93.27541
870.21        93.23204
870.61        93.61407
871.01         94.2288
871.41        94.87067
871.81        95.25982
872.22        95.29484
872.62        95.10142
873.02        94.77617
873.42         94.5008
873.82        94.36507
874.22        94.33247
874.63        94.41011
875.03        94.54601
875.43        94.73788
875.83        94.98936
876.23        95.28253
876.63        95.57446
877.03        95.83253
877.44        96.03259
877.84        96.13905
878.24        96.05785
878.64        95.78872
879.04        95.37734
879.44        94.94154
879.84        94.64131
880.24        94.50751
880.64        94.50628
881.04        94.56989
881.44        94.57002
881.84        94.47453
882.24        94.32867
882.65        94.15623
883.05        94.11826
883.45        94.19582
883.85         94.3338
884.25        94.50439
884.65        94.67972
885.05        94.83572
885.45         94.9736
885.85        95.04537
886.25        94.97149
886.65         94.7519
887.05         94.4342
887.45        94.08806
887.85        93.81582
888.25        93.65008
888.65        93.56503
889.04        93.57266
889.44         93.7121
889.84        93.95631
890.24        94.29116
890.64        94.61547
891.04        94.77218
891.44        94.73279
891.84        94.53801
892.24        94.29765
892.64        94.19628
893.04        94.27646
893.44        94.47766
893.83        94.74159
894.23        94.90092
894.63        94.93477
895.03        94.89032
895.43        94.79278
895.83        94.67844
896.23        94.57714
896.63        94.48634
897.02        94.41808
897.42        94.45417
897.82        94.58489
898.22         94.8074
898.62        95.09334
899.01        95.40395
899.41        95.68328
899.81        95.93603
900.21        96.16499
900.61        96.38728
901.00        96.58304
901.40        96.73869
901.80        96.80849
902.20         96.7382
902.59        96.54018
902.99        96.23971
903.39        95.89867
903.79        95.59859
904.18        95.37511
904.58        95.24434
904.98        95.21333
905.38        95.30139
905.77        95.48207
906.17        95.73767
906.57        96.00726
906.96        96.21271
907.36        96.28539
907.76        96.27998
908.15         96.1986
908.55        95.96651
908.95        95.63796
909.34        95.20145
909.74        94.85514
910.14        94.84747
910.53        95.21594
910.93        95.86596
911.33        96.53199
911.72         96.7478
912.12        96.41102
912.52        95.71201
912.91        94.91424
913.31         94.4576
913.70        94.42232
914.10        94.66354
914.49        95.10278
914.89        95.48603
915.29        95.74136
915.68        95.93597
916.08        96.05619
916.47        96.08037
916.87        96.03789
917.26        95.88934
917.66        95.72332
918.05         95.6566
918.45        95.70307
918.84        95.86559
919.24        96.03184
919.64        96.09647
920.03        96.05785
920.42        95.96439
920.82         95.8802
921.21        95.89305
921.61        96.00268
922.00        96.17468
922.40        96.42784
922.79        96.90501
923.19        97.54131
923.58        98.33846
923.98        98.98892
924.37        99.08382
924.77        98.55774
925.16        97.49965
925.55        96.36016
925.95          95.924
926.34        96.39466
926.74        97.53156
927.13        98.80122
927.52        99.23501
927.92        98.66297
928.31        97.39368
928.70        96.00771
929.10        95.37273
929.49        95.70818
929.89        96.68967
930.28         97.9754
930.67        98.80674
931.07         98.9038
931.46         98.5265
931.85        97.88315
932.24        97.33714
932.64        97.01855
933.03         96.8102
933.42        96.66048
933.82        96.50018
934.21        96.31709
934.60        96.16643
934.99        96.09745
935.39        96.12707
935.78         96.3049
936.17        96.59612
936.56        96.91399
936.96        97.11361
937.35         97.2094
937.74        97.19747
938.13        97.17787
938.53        97.31342
938.92        97.61658
939.31          98.005
939.70        98.37961
940.09        98.56081
940.49        98.47431
940.88        98.25079
941.27        97.88499
941.66        97.36916
942.05        96.76061
942.44        96.08902
942.84         95.5776
943.23        95.55078
943.62         96.0825
944.01        97.06389
944.40        98.20399
944.79        98.96355
945.18        99.14912
945.57          98.887
945.97        98.33562
946.36        97.81311
946.75        97.40764
947.14        97.04115
947.53        96.72483
947.92        96.48906
948.31        96.34321
948.70        96.32378
949.09        96.39684
949.48        96.47128
949.87        96.52551
950.26        96.57793
950.65        96.64358
951.04        96.76131
951.43        96.93285
951.82        97.11325
952.21        97.30019
952.60        97.50313
952.99        97.69429
953.38         97.8567
953.77        97.90744
954.16        97.71761
954.55        97.28415
954.94        96.67289
955.33         96.0034
955.72        95.47538
956.11        95.16045
956.50        95.01537
956.89        95.03008
957.28         95.1545
957.66        95.39185
958.05        95.75298
958.44        96.14539
958.83        96.40611
959.22        96.48875
959.61         96.3489
960.00         96.2155
960.39         96.4772
960.78        97.17716
961.16        98.26263
961.55        99.16377
961.94        99.05283
962.33        97.79172
962.72        95.72862
963.11        93.62281
963.49        92.56759
963.88        92.81215
964.27        94.06473
964.66        95.77429
965.04        96.94496
965.43        97.12227
965.82        96.63092
966.21        95.91342
966.60        95.65888
966.98        96.07126
967.37        96.87946
967.76        97.74928
968.15        98.05633
968.53        97.64025
968.92        96.72118
969.31        95.74706
969.69        95.33891
970.08        95.63078
970.47        96.43788
970.86        97.46953
971.24        98.23637
971.63         98.5088
972.02        98.47414
972.40        98.32168
972.79        98.21891
973.17        98.28253
973.56        98.34982
973.95        98.41437
974.33        98.45309
974.72        98.40915
975.11        98.32245
975.49        98.14487
975.88        97.77702
976.26        97.26207
976.65        96.61221
977.04        95.96235
977.42        95.51774
977.81        95.28051
978.19        95.22576
978.58        95.44652
978.96        96.06927
979.35        97.01495
979.74        98.27673
980.12        99.56572
980.51        100.2046
980.89        100.1724
981.28        99.45031
981.66        98.55627
982.05        98.40566
982.43         99.2301
982.82         100.703
983.20        102.1518
983.59        102.3568
983.97        101.1691
984.35        98.90257
984.74        96.29871
985.12         94.7141
985.51        94.55307
985.89        95.42621
986.28        96.68785
986.66         97.4228
987.04        97.39226
987.43        96.85542
987.81        96.18368
988.20        95.88268
988.58        96.17122
988.96        96.80173
989.35        97.45931
989.73        97.81066
990.12         97.7048
990.50        97.32635
990.88        96.86161
991.27        96.73046
991.65        97.10905
992.03        97.71985
992.42        98.32511
992.80         98.8548
993.18        99.19798
993.56        99.41615
993.95         99.2502
994.33        98.24976
994.71        96.55057
995.10        94.65853
995.48        93.07363
995.86        92.14464
996.24        91.82685
996.63        91.90422
997.01         92.5649
997.39        93.84162
997.77        95.52357
998.15        97.45457
998.54         99.0174
998.92        99.44414
999.30        98.66422
999.68        96.82323
1000.06        94.59237
1000.45        93.28214
1000.83        93.42178
1001.21        94.60149
1001.59        96.15118
1001.97        97.02532
1002.35        96.96526
1002.73        96.31786
1003.12        95.34391
1003.50        94.59097
1003.88        94.31945
1004.26        94.20525
1004.64        94.29495
1005.02         94.7112
1005.40        95.38272
1005.78        96.36028
1006.16        97.08929
1006.54        96.54416
1006.92        94.57873
1007.30         91.5517
1007.69        88.54363
1008.07        87.27831
1008.45        88.25635
1008.83        90.91908
1009.21        94.23987
1009.59        96.79105
1009.97        98.17806
1010.35        98.68201
1010.73        98.65884
1011.11        98.90746
1011.49        99.72788
1011.86        100.8603
1012.24        101.5621
1012.62        101.1559
1013.00        99.64079
1013.38        97.37998
1013.76        95.26545
1014.14        94.72753
1014.52        96.11946
1014.90        99.02444
1015.28        102.4909
1015.66        104.5582
1016.04        104.4822
1016.41        102.9711
1016.79        100.5082
1017.17        98.21858
1017.55        96.49281
1017.93        94.98062
1018.31         93.9912
1018.69        94.01219
1019.06        95.16905
1019.44        97.57357
1019.82        100.3721
1020.20        101.6014
1020.58        100.6531
1020.95        97.93358
1021.33        95.11001
1021.71        94.33814
1022.09        95.84222
1022.46         98.9376
1022.84        102.1619
1023.22        102.7421
1023.60        99.68591
1023.97        93.32209
1024.35        85.18446
1024.73        79.21291
