SpectraSmart Spectrum 2.9.0.0
--------- Device Information -----------
Spectrum Name :  反射率_0
Saving Time :  2024/04/27 22:47:04
Spectro-Module Model Name : SE2030-DUVN
Spectro-Module Serial Number : OS361AC55029948
Wavelength Start : 200
Wavelength End : 1025
Wavelength Unit : Wavelength(nm)
Spectrum Unit : Reflectance(%)
-----------Spectrum Setting ------------
Integration Time : 20ms
Average : 10
Boxcar : 0
Background removal :  enabled
linearity correction :  enabled
SC :  disabled
Intensity correction :  disabled
DWT denoise :  enabled
savitzky-golay :  disabled
FFT :  disabled
Running average :  disabled
Kalman :  disabled
High pass :  disabled
---------------BEGIN--------------------
Wavelength(nm)             Reflectance(%)
200.29               0
200.75       -62.27003
201.21       -31.64877
201.67       -7.236897
202.13       0.8272022
202.58       -1.867696
203.04       -10.23394
203.50       -16.04373
203.96       -9.335818
204.42        7.812582
204.88          28.911
205.34        46.07666
205.80        52.87374
206.26        48.83013
206.72        32.40139
207.18        4.250321
207.64        -11.6119
208.10        1.318887
208.55        26.44704
209.01        42.97926
209.47        44.58532
209.93        30.28951
210.39       -15.25617
210.85       -160.2646
211.31       -346.8571
211.77       -143.1227
212.23       -4.314528
212.69        45.07222
213.14        59.47615
213.60        57.56044
214.06        43.70913
214.52        15.25221
214.98       -9.052894
215.44       -5.000151
215.90        10.49821
216.36        24.19829
216.81        31.91768
217.27        34.90557
217.73        36.44343
218.19        36.10352
218.65        32.12265
219.11        24.44451
219.57        13.05996
220.02       0.4645895
220.48       -4.680173
220.94     -0.02790179
221.40        10.42906
221.86        22.74779
222.32        33.16014
222.77        40.78116
223.23         46.3924
223.69        49.29986
224.15        48.44573
224.61        44.30616
225.06        37.27023
225.52        29.85891
225.98        26.94296
226.44        29.10168
226.90        33.43944
227.36         37.5931
227.81        39.86218
228.27        40.25571
228.73        39.48624
229.19        37.48334
229.65        34.22327
230.10        30.11112
230.56        25.71151
231.02        21.80567
231.48        19.48581
231.93        18.81904
232.39        19.47883
232.85        21.11826
233.31         23.1884
233.77        25.38228
234.22        27.84765
234.68        29.95642
235.14        31.10557
235.60        31.25137
236.05        30.27588
236.51        29.18789
236.97        30.00921
237.43        33.30259
237.88        38.59065
238.34        43.62664
238.80        46.15962
239.26        45.64146
239.71         41.4958
240.17        34.07869
240.63        30.30689
241.08        35.96716
241.54        45.81209
242.00        53.57136
242.46        56.79391
242.91         56.2125
243.37        51.55856
243.83        39.85273
244.28        22.42625
244.74         16.6023
245.20        25.67061
245.66        36.19089
246.11        40.94817
246.57        41.07257
247.03         38.9471
247.48        34.87632
247.94        32.92457
248.40        36.23989
248.85        40.97528
249.31        45.90127
249.77        51.02839
250.22        55.60081
250.68        59.30452
251.14        61.19017
251.59        60.01816
252.05        55.69755
252.51        47.50567
252.96        35.65207
253.42        27.60136
253.88        28.39433
254.33        34.94631
254.79        41.74694
255.25        45.10463
255.70        45.61243
256.16        45.22052
256.62        45.14801
257.07         46.5711
257.53        49.20493
257.99        51.76527
258.44        53.35446
258.90        53.56214
259.35        52.39273
259.81        50.69545
260.27        48.79175
260.72        47.07484
261.18        45.91319
261.63        44.94913
262.09        44.18598
262.55        43.30978
263.00        42.25478
263.46        41.25117
263.91        40.36469
264.37         39.9588
264.83        39.95024
265.28          40.125
265.74        40.32013
266.19        40.18875
266.65        39.74156
267.11        39.07053
267.56        38.23058
268.02        37.39862
268.47        36.61016
268.93        35.83759
269.38        35.15526
269.84        34.70291
270.30        34.47076
270.75        34.40462
271.21        34.32161
271.66        33.89254
272.12        33.08009
272.57        31.96201
273.03        30.75447
273.48        29.72417
273.94        29.00042
274.39        28.47166
274.85        28.08454
275.31        27.69281
275.76         27.2386
276.22        26.79118
276.67        26.34394
277.13         25.9584
277.58        25.59957
278.04        25.27988
278.49        24.92368
278.95         24.5248
279.40        24.04597
279.86        23.56076
280.31        23.09098
280.77        22.76864
281.22        22.57524
281.68        22.50104
282.13         22.4683
282.59        22.40145
283.04        22.27075
283.50        22.11077
283.95        21.94469
284.41        21.83762
284.86        21.78795
285.32        21.78256
285.77        21.78228
286.22        21.76083
286.68        21.72473
287.13        21.65965
287.59        21.60075
288.04        21.53042
288.50        21.47972
288.95        21.42983
289.41        21.40283
289.86        21.39377
290.32         21.4174
290.77         21.4635
291.22        21.54095
291.68        21.65677
292.13        21.80372
292.59        21.99512
293.04        22.21201
293.50        22.44619
293.95        22.69121
294.40        22.96314
294.86        23.28629
295.31        23.69154
295.77        24.18926
296.22        24.74839
296.68        25.35242
297.13        25.95261
297.58        26.52639
298.04        27.06784
298.49        27.56144
298.95        27.99908
299.40        28.38616
299.85        28.73857
300.31        29.08834
300.76        29.44751
301.21        29.83509
301.67        30.24829
302.12        30.67882
302.58        31.14921
303.03        31.63137
303.48        32.11234
303.94        32.57566
304.39        32.95272
304.84        33.24835
305.30        33.49321
305.75        33.67008
306.20        33.79227
306.66        33.88465
307.11        33.91801
307.57        33.97195
308.02        34.10426
308.47        34.33239
308.93        34.63354
309.38        34.89304
309.83        34.96079
310.29        34.82238
310.74        34.51291
311.19         34.1558
311.65        33.94642
312.10        33.91447
312.55        34.00788
313.00        34.12821
313.46          34.123
313.91        33.94991
314.36        33.66307
314.82        33.32517
315.27        33.03104
315.72        32.81349
316.18        32.64804
316.63        32.49787
317.08        32.32853
317.53        32.13011
317.99        31.91895
318.44        31.71652
318.89        31.53703
319.35        31.38476
319.80        31.24885
320.25         31.1217
320.70        31.00068
321.16        30.87105
321.61        30.73461
322.06        30.57441
322.51        30.36677
322.97        30.10646
323.42        29.81869
323.87        29.50731
324.32         29.1884
324.78        28.87172
325.23        28.55838
325.68        28.28274
326.13        28.10351
326.59        28.01339
327.04         28.0158
327.49        28.01706
327.94        27.87046
328.39        27.54139
328.85         27.0609
329.30        26.54071
329.75        26.17183
330.20        26.01601
330.66        26.01438
331.11        26.08382
331.56        26.03617
332.01        25.81841
332.46        25.48281
332.92        25.10999
333.37        24.86462
333.82        24.78611
334.27        24.81832
334.72        24.88583
335.17        24.86981
335.63        24.72675
336.08        24.51318
336.53        24.25799
336.98        24.01809
337.43        23.82163
337.88        23.65191
338.34        23.51706
338.79        23.43537
339.24        23.40359
339.69        23.41577
340.14        23.44224
340.59        23.43125
341.05        23.36707
341.50        23.26681
341.95        23.13418
342.40         22.9872
342.85        22.83691
343.30        22.67764
343.75        22.53098
344.20        22.43198
344.66         22.3887
345.11        22.39019
345.56         22.4013
346.01        22.36032
346.46        22.25406
346.91        22.09993
347.36         21.9413
347.81        21.84316
348.26        21.82304
348.72        21.86659
349.17        21.93001
349.62        21.94325
350.07        21.88635
350.52        21.76659
350.97        21.64885
351.42        21.63721
351.87        21.74205
352.32         21.9272
352.77         22.0731
353.22         21.9997
353.67        21.68343
354.13        21.20406
354.58        20.69033
355.03          20.398
355.48        20.39021
355.93        20.59346
356.38        20.87111
356.83        21.00756
357.28        20.94362
357.73         20.7422
358.18        20.49515
358.63        20.34557
359.08        20.32474
359.53        20.37503
359.98        20.42199
360.43        20.35624
360.88        20.15707
361.33        19.87307
361.78        19.55785
362.23        19.32892
362.68          19.225
363.13        19.14182
363.58        19.04414
364.03        19.24944
364.48        19.13523
364.93        19.18517
365.38        19.20262
365.83        19.17444
366.28        19.09049
366.73        18.96248
367.18        18.80256
367.63         18.6197
368.08        18.42752
368.53        18.22909
368.98        18.04926
369.43        17.92401
369.88         17.8596
370.33        17.84785
370.78        17.85298
371.23        17.81597
371.68        17.71544
372.13        17.55609
372.58        17.37052
373.03        17.21378
373.48          17.105
373.93        17.04428
374.38        16.98181
374.83         16.8378
375.28        16.60561
375.72        16.30001
376.17        16.04835
376.62        16.00907
377.07        16.19476
377.52        16.53247
377.97        16.86426
378.42        16.94579
378.87        16.73021
379.32        16.31205
379.77        15.81945
380.22        15.44545
380.67        15.24802
381.11        15.16807
381.56        15.17569
382.01        15.21922
382.46        15.26895
382.91        15.34469
383.36        15.40774
383.81          15.392
384.26        15.28778
384.71        15.10452
385.15        14.89005
385.60        14.75854
386.05        14.72507
386.50        14.76568
386.95        14.83266
387.40        14.84689
387.85        14.79483
388.29        14.70001
388.74        14.61878
389.19        14.59642
389.64        14.63636
390.09        14.70213
390.54        14.77218
390.98        14.81313
391.43        14.81571
391.88        14.79667
392.33        14.72552
392.78        14.58191
393.23         14.3831
393.67        14.08072
394.12        13.77108
394.57        13.74624
395.02        13.77497
395.47        13.80265
395.91        13.74067
396.36        13.71358
396.81        13.71428
397.26        13.66019
397.71        13.56614
398.15        13.50556
398.60        13.49868
399.05        13.46388
399.50        13.41995
399.95        13.48284
400.39        13.60771
400.84        13.59441
401.29        13.43919
401.74        13.26969
402.18        13.13091
402.63        13.05106
403.08        13.03435
403.53        13.01496
403.97        12.99321
404.42        13.03424
404.87        13.11244
405.32        13.15989
405.76         13.1607
406.21        13.09845
406.66        13.00115
407.11         12.9752
407.55        12.99607
408.00         12.9205
408.45        12.75111
408.90        12.53967
409.34         12.3554
409.79        12.35681
410.24        12.51054
410.68        12.59832
411.13        12.59801
411.58        12.64336
412.03        12.72556
412.47        12.76254
412.92        12.73914
413.37        12.68091
413.81          12.607
414.26        12.55663
414.71         12.5356
415.15        12.53533
415.60        12.53846
416.05        12.51806
416.49        12.46968
416.94        12.40192
417.39        12.33287
417.83        12.29088
418.28        12.27571
418.73        12.27023
419.17        12.26494
419.62        12.24759
420.07        12.21965
420.51        12.19856
420.96        12.16696
421.41        12.11205
421.85        12.03404
422.30        11.88115
422.74        11.73198
423.19        11.85208
423.64        12.19476
424.08        12.42572
424.53        12.43951
424.98        12.42693
425.42        12.38266
425.87        12.09455
426.31        11.69273
426.76        11.63424
427.21        11.88088
427.65        11.97645
428.10        11.89724
428.54         11.9148
428.99        12.01459
429.44        12.14546
429.88        12.22601
430.33        11.98713
430.77        11.56979
431.22        11.48211
431.66        11.70838
432.11        11.86088
432.56        11.87591
433.00        11.86349
433.45        11.73486
433.89        11.45128
434.34        11.24793
434.78        10.73538
435.23        11.25552
435.67        11.68889
436.12        11.86602
436.57        11.92222
437.01        11.78488
437.46        11.70376
437.90        11.75125
438.35        11.85181
438.79        11.62864
439.24        11.55525
439.68        11.53566
440.13        11.53727
440.57        11.54289
441.02        11.62807
441.46        11.75384
441.91        11.65129
442.35        11.41284
442.80        11.53659
443.24        11.91831
443.69        11.88741
444.13        11.47462
444.58        11.27257
445.02        11.29047
445.47        11.23178
445.91        11.10139
446.36         11.0643
446.80        11.11977
447.24        11.21328
447.69        11.32511
448.13        11.45831
448.58         11.5812
449.02        11.63646
449.47         11.6253
449.91        11.60761
450.36        11.59124
450.80        11.53744
451.25        11.46394
451.69        11.41908
452.13        11.40599
452.58        11.40355
453.02        11.39732
453.47        11.36872
453.91        11.31135
454.36        11.25237
454.80        11.18437
455.24        11.08381
455.69        10.98337
456.13        10.90122
456.58        10.86251
457.02        10.94444
457.46        11.08185
457.91        11.07164
458.35        10.97484
458.79        10.95203
459.24        11.02103
459.68        11.07346
460.13        11.09714
460.57        11.05543
461.01        10.99764
461.46        10.94284
461.90        10.85847
462.34        10.81403
462.79        10.98249
463.23        11.05623
463.68        11.07106
464.12          11.063
464.56        11.03849
465.01        11.03979
465.45        11.02752
465.89        10.94111
466.34        10.82376
466.78        10.72668
467.22        10.65928
467.67        10.86188
468.11        10.84852
468.55        10.88634
468.99        10.83886
469.44        10.82872
469.88        10.85374
470.32        10.83535
470.77        10.78639
471.21        10.76228
471.65        10.77368
472.10        10.80856
472.54        10.85121
472.98        10.89149
473.42        10.92754
473.87        10.93143
474.31        10.92248
474.75        11.03522
475.20        11.23106
475.64        11.29046
476.08        11.20988
476.52        11.20273
476.97        11.28365
477.41        11.22919
477.85        11.15539
478.29        11.22669
478.74        11.16501
479.18        11.09934
479.62        11.30504
480.06        11.35747
480.50        11.37035
480.95         11.3423
481.39        11.28082
481.83        11.44453
482.27         11.4966
482.72        11.52111
483.16        11.74687
483.60        11.81341
484.04        11.79786
484.48        11.77326
484.93        11.88837
485.37        11.87988
485.81        12.17107
486.25         12.7579
486.69        12.10816
487.14        11.89212
487.58         12.8937
488.02        12.77245
488.46        12.62102
488.90        12.79123
489.34        12.30322
489.79        12.20532
490.23        12.60889
490.67        12.94478
491.11        13.23915
491.55        13.30606
491.99        13.20631
492.43        13.25687
492.88        13.47231
493.32        13.61178
493.76         13.6678
494.20        13.79152
494.64         13.9989
495.08        14.20511
495.52        14.39112
495.96        14.64784
496.41        14.96326
496.85        14.93961
497.29        14.70739
497.73        14.86252
498.17        15.35071
498.61        15.64901
499.05        15.66274
499.49        15.63818
499.93         15.6213
500.37        15.57477
500.82        15.53827
501.26        15.60916
501.70        15.81054
502.14        15.78949
502.58        16.07521
503.02        16.19582
503.46        16.23665
503.90        16.23819
504.34        16.21345
504.78        16.23572
505.22        16.31156
505.66        16.38846
506.10        16.46692
506.54        16.59441
506.98        16.76887
507.42        16.89576
507.86        17.07589
508.30        17.15209
508.74        17.15618
509.18        17.10038
509.62        17.02719
510.06        17.00528
510.50        17.05178
510.94        17.14645
511.38        17.26246
511.82        17.35584
512.26        17.41023
512.70        17.43956
513.14        17.44776
513.58        17.43331
514.02        17.40112
514.46        17.36426
514.90        17.33551
515.34        17.27633
515.78         17.2923
516.22         17.3001
516.66        17.32921
517.10        17.37337
517.54        17.42834
517.98         17.4923
518.42        17.54877
518.86        17.57539
519.30        17.56644
519.74        17.52496
520.18        17.47157
520.62         17.4394
521.06         17.4377
521.50        17.46236
521.93        17.49087
522.37        17.47791
522.81        17.41792
523.25        17.31984
523.69        17.22298
524.13        17.18879
524.57        17.22442
525.01        17.30768
525.45        17.37961
525.89        17.34744
526.32         17.1929
526.76        16.95856
527.20        16.70722
527.64        16.54122
528.08        16.48742
528.52        16.51016
528.96        16.57262
529.40        16.61657
529.83        16.61907
530.27        16.59868
530.71        16.55145
531.15        16.46974
531.59        16.35935
532.03        16.22236
532.46        16.08313
532.90        15.99557
533.34        15.96833
533.78        15.98953
534.22        16.03583
534.66        16.06855
535.09        16.07408
535.53        16.06367
535.97        16.04403
536.41        16.02839
536.85        16.02165
537.28        16.02036
537.72        16.02054
538.16        16.01482
538.60        16.00564
539.04        16.00327
539.47        16.01525
539.91        16.06107
540.35         16.1388
540.79        16.24391
541.22          16.363
541.66        16.47509
542.10        16.57206
542.54        16.65899
542.97        16.73767
543.41        16.82212
543.85        16.91418
544.29        17.01167
544.72        17.11281
545.16        17.22949
545.60        17.35742
546.04        17.49549
546.47        17.64211
546.91        17.78843
547.35        17.92963
547.79        18.07355
548.22        18.21302
548.66         18.3357
549.10        18.45266
549.53        18.63233
549.97        18.85971
550.41        19.04625
550.84        19.18198
551.28        19.31592
551.72        19.45442
552.15        19.58409
552.59        19.71244
553.03        19.83657
553.46        19.95575
553.90        20.08497
554.34        20.22273
554.77        20.37314
555.21        20.52392
555.65        20.65554
556.08         20.7422
556.52        20.83498
556.96        20.93175
557.39        21.06138
557.83        21.21027
558.27        21.28383
558.70        21.29268
559.14        21.33339
559.57         21.4071
560.01        21.48888
560.45        21.56371
560.88        21.59724
561.32        21.63177
561.75        21.72561
562.19         21.8728
562.63        22.05238
563.06        22.20546
563.50        22.17294
563.93        22.00994
564.37        22.00105
564.80        22.15907
565.24        22.34453
565.68        22.52092
566.11        22.68058
566.55        22.81447
566.98        22.94479
567.42        23.06952
567.85        23.11979
568.29         23.1457
568.72        23.21388
569.16         23.3343
569.60        23.54531
570.03         23.8656
570.47        23.96823
570.90        24.10144
571.34        24.74832
571.77        24.68779
572.21        24.72521
572.64        25.01958
573.08        24.90563
573.51         25.1525
573.95        25.32151
574.38        25.44016
574.82        25.80357
575.25         25.4716
575.69        25.36683
576.12        25.40662
576.56        25.86516
576.99        25.89918
577.42        25.79649
577.86        25.76679
578.29        25.92701
578.73        25.77062
579.16        25.72822
579.60        25.57861
580.03        25.44115
580.47        25.33619
580.90        25.28256
581.33        25.22738
581.77         25.2246
582.20        24.90175
582.64        24.59043
583.07        24.51014
583.51        24.41766
583.94        24.47803
584.37        24.43619
584.81        24.26323
585.24        24.15906
585.68        24.16967
586.11        23.77626
586.54        23.60676
586.98        23.54304
587.41        23.62873
587.85        23.46859
588.28        23.40329
588.71        23.26778
589.15        23.56409
589.58        23.21613
590.01        23.45321
590.45        23.46742
590.88         23.0312
591.31        22.97659
591.75        23.12891
592.18        23.26066
592.61        23.33522
593.05        23.37465
593.48        23.56748
593.91        23.17447
594.35        23.40041
594.78        23.67453
595.21        23.86996
595.65        23.99367
596.08        23.92235
596.51        24.15827
596.94        24.21139
597.38        24.48138
597.81        24.87281
598.24        24.86001
598.68         25.4335
599.11         25.6979
599.54        25.96518
599.97        25.80866
600.41        26.79759
600.84        27.15376
601.27        27.32139
601.70        27.62051
602.14        27.82231
602.57         28.4105
603.00        28.93689
603.43        29.36612
603.87        29.77131
604.30        30.01518
604.73        30.51531
605.16        31.14276
605.60        31.72948
606.03        32.25924
606.46        32.62661
606.89        32.94577
607.32        33.37515
607.76        34.01359
608.19        34.10203
608.62         34.4756
609.05        34.94381
609.48        35.21767
609.92        35.24443
610.35        35.94685
610.78        36.22195
611.21        36.17004
611.64        36.91497
612.07        37.17704
612.50        37.38773
612.94        37.67417
613.37        38.09171
613.80        38.32874
614.23        38.67321
614.66        38.96548
615.09        39.27268
615.52        39.47639
615.96        39.62155
616.39        39.76668
616.82        40.19411
617.25         40.4557
617.68        40.95672
618.11        41.17985
618.54         41.2768
618.97         41.4664
619.40        41.72668
619.84        42.11164
620.27        42.15112
620.70         42.2893
621.13         42.3353
621.56        42.67209
621.99        42.56357
622.42        42.55502
622.85        42.45536
623.28        42.76476
623.71        42.64105
624.14         42.5399
624.57        42.53067
625.00        42.81221
625.43        42.46286
625.86        42.50431
626.29        42.65642
626.72        42.30029
627.15        42.31244
627.58        42.07407
628.01        41.90955
628.44        41.56702
628.87        41.22763
629.30        41.27332
629.73        40.65562
630.16        40.20773
630.59         39.9926
631.02        39.75751
631.45        39.55602
631.88        39.26135
632.31        38.86475
632.74        38.40912
633.17        37.94382
633.60         37.4828
634.03        37.04429
634.46        36.62299
634.89        36.20083
635.32        35.74163
635.75        35.24217
636.18        34.73982
636.61        34.25353
637.04        33.76767
637.47         33.3095
637.89        32.96399
638.32        32.69066
638.75        32.37572
639.18        32.00822
639.61        31.64823
640.04        31.30928
640.47        30.99509
640.90        30.71282
641.33        30.45017
641.76        30.19569
642.18         30.0065
642.61        29.76428
643.04         29.5691
643.47         29.4076
643.90        29.31415
644.33        29.29289
644.76        29.33383
645.18        29.41235
645.61        29.48347
646.04        29.53924
646.47        29.59361
646.90        29.67204
647.33        29.82308
647.75        30.06618
648.18        30.36796
648.61        30.70838
649.04        31.14063
649.47        31.62382
649.89        31.94691
650.32        32.17899
650.75        32.70292
651.18        33.47002
651.61        34.06365
652.03        34.43176
652.46        34.79176
652.89        35.25532
653.32        35.70571
653.74        36.34961
654.17        37.25285
654.60        37.65733
655.03        38.19806
655.46        38.63675
655.88        39.92063
656.31        40.97715
656.74        42.84399
657.16         42.9717
657.59        43.00881
658.02        42.53797
658.45        43.05898
658.87        43.05946
659.30        43.24116
659.73        43.78397
660.15        43.69466
660.58        44.24909
661.01        44.71613
661.44        45.35654
661.86        45.70632
662.29        45.79095
662.72        45.96707
663.14        46.27906
663.57        46.59899
664.00        46.90586
664.42        47.16941
664.85        47.39462
665.27         47.6431
665.70        47.90152
666.13         48.1068
666.55        48.25876
666.98        48.37936
667.41        48.50688
667.83        48.69205
668.26        48.93755
668.69        49.23663
669.11        49.53702
669.54        49.74862
669.96        49.85537
670.39        49.86969
670.82        49.86433
671.24        49.94872
671.67        50.14462
672.09        50.42878
672.52        50.71878
672.94        50.82084
673.37        50.75223
673.80        50.65507
674.22        50.61083
674.65        50.68099
675.07        50.86776
675.50        51.01397
675.92        51.11154
676.35        51.26962
676.77        51.48141
677.20        51.65779
677.62        51.79771
678.05         51.9353
678.47        52.07074
678.90        52.19798
679.32        52.31446
679.75        52.43233
680.17        52.55066
680.60         52.6716
681.02        52.79039
681.45        52.88161
681.87        52.95415
682.30        53.00272
682.72        53.04276
683.15        53.13113
683.57        53.26373
684.00         53.3113
684.42        53.31123
684.85        53.45829
685.27        53.62229
685.70        53.92514
686.12        54.24247
686.54        54.28141
686.97        54.11572
687.39        54.23096
687.82        54.60121
688.24         54.7194
688.66        54.81763
689.09        54.64535
689.51        54.67632
689.94        54.66586
690.36        54.74732
690.78         54.8097
691.21        54.86383
691.63        55.07021
692.06        55.35524
692.48        55.41843
692.90        55.29876
693.33        55.27302
693.75         55.3614
694.17        55.48061
694.60        55.57314
695.02         55.5046
695.44        55.34512
695.87        55.38781
696.29        55.65182
696.71        56.00737
697.14        56.35007
697.56        56.49427
697.98        56.44757
698.41        56.51151
698.83        56.68087
699.25        56.76633
699.68        56.76546
700.10        56.83417
700.52        56.97303
700.94        57.14222
701.37        57.28833
701.79        57.35532
702.21        57.31738
702.64        57.21629
703.06        57.10519
703.48          57.082
703.90        57.17405
704.33        57.34235
704.75        57.55427
705.17        57.73679
705.59        57.86364
706.01        57.93385
706.44        57.95637
706.86         58.0596
707.28        58.09229
707.70        58.14985
708.12        58.19109
708.55        58.26237
708.97         58.3375
709.39        58.32857
709.81        58.26464
710.23        58.28437
710.66        58.39965
711.08        58.55272
711.50        58.68723
711.92        58.76278
712.34        58.76962
712.76        58.72169
713.19        58.66085
713.61        58.69841
714.03        58.83774
714.45        59.04308
714.87         59.2685
715.29        59.44424
715.71         59.5484
716.13        59.60521
716.56        59.61163
716.98        59.60732
717.40        59.58374
717.82        59.57228
718.24        59.60389
718.66        59.53726
719.08        59.68318
719.50        59.78476
719.92        59.90521
720.34        59.98659
720.76        60.01785
721.19        60.00585
721.61        59.97253
722.03        59.93605
722.45        59.90575
722.87        59.87801
723.29        59.88342
723.71        59.92493
724.13         59.9994
724.55        60.19143
724.97        60.47984
725.39        60.37914
725.81        60.58081
726.23        60.52735
726.65        60.48765
727.07        60.54095
727.49        60.71112
727.91        60.95766
728.33        61.18311
728.75        61.29519
729.17        61.27254
729.59        61.06325
730.01        60.73169
730.43        60.87691
730.85        60.77603
731.27         60.9655
731.69        61.13835
732.10        61.36976
732.52        61.39725
732.94        61.38968
733.36        61.30965
733.78        61.49487
734.20         61.3488
734.62        61.68252
735.04        61.58387
735.46        61.78165
735.88        61.98014
736.30        61.74853
736.72        61.24374
737.13        61.22551
737.55        61.63372
737.97        61.87799
738.39        61.86264
738.81        61.60898
739.23         61.2635
739.65        61.42966
740.06         61.9698
740.48        62.15652
740.90        61.93193
741.32        61.80276
741.74         61.7511
742.16        61.75819
742.57        61.82282
742.99        61.96428
743.41        62.13268
743.83        62.22733
744.25        62.22872
744.67        62.15825
745.08        62.07915
745.50        62.06419
745.92        62.14008
746.34        62.27266
746.75        62.41193
747.17        62.45319
747.59        62.37477
748.01         62.2842
748.42        62.21674
748.84        62.05272
749.26         61.8928
749.68        62.09708
750.09        62.55742
750.51        62.78166
750.93        62.72132
751.35         62.6426
751.76         62.5928
752.18         62.5244
752.60        62.46159
753.01        62.42463
753.43        62.42074
753.85        62.43377
754.27        62.45455
754.68        62.61188
755.10         62.8952
755.52        62.70537
755.93          62.884
756.35        62.90319
756.77        62.98855
757.18        63.08667
757.60        63.25532
758.02        63.27276
758.43        63.02317
758.85         63.5589
759.26        63.34482
759.68        62.56132
760.10        63.22896
760.51        62.55934
760.93        62.92372
761.34        63.02692
761.76        63.54445
762.18        63.59269
762.59        63.29421
763.01         63.1465
763.42        63.24656
763.84        63.25907
764.26        63.25029
764.67         63.4058
765.09        63.64992
765.50        63.84407
765.92        64.00765
766.33        63.48683
766.75        63.38551
767.16        63.38447
767.58        63.25108
768.00        63.45127
768.41        63.76307
768.83        63.99786
769.24         64.0704
769.66        64.03847
770.07        63.93106
770.49        63.83251
770.90        63.80789
771.32        63.90467
771.73        64.07607
772.15        64.18338
772.56        64.22825
772.97         64.2031
773.39        64.08334
773.80        64.32377
774.22        64.18175
774.63        64.24121
775.05        64.24408
775.46         64.2317
775.88        64.17353
776.29        64.10143
776.70        64.04681
777.12        64.05608
777.53        64.15731
777.95        64.31112
778.36        64.49403
778.77        64.65054
779.19        64.76319
779.60        64.85802
780.02        64.92236
780.43        64.97423
780.84        65.00047
781.26        64.95837
781.67        64.95122
782.09         65.0661
782.50        65.15665
782.91        65.74068
783.33        65.11452
783.74         65.0948
784.15        65.17702
784.57        65.10265
784.98        64.92463
785.39        64.94383
785.81        65.14606
786.22        65.33804
786.63        65.44602
787.04        65.39321
787.46        65.24948
787.87         65.2714
788.28        65.46764
788.70        65.58312
789.11        65.59498
789.52        65.70731
789.93        65.87764
790.35         65.8859
790.76        65.75402
791.17        65.61895
791.58        65.53803
792.00        65.48148
792.41        65.48503
792.82        65.63329
793.23        65.87426
793.65        65.93886
794.06        65.86382
794.47        66.01319
794.88        66.35661
795.29        66.34348
795.71        66.36517
796.12        66.32931
796.53         66.3428
796.94        66.18414
797.35         65.9036
797.76        65.80889
798.18        65.91133
798.59        65.94501
799.00        65.90449
799.41        65.94926
799.82         66.0591
800.23        66.12373
800.64        66.13197
801.06        66.09284
801.47        66.06597
801.88        66.09165
802.29        66.17997
802.70        66.27773
803.11        66.36998
803.52        66.49131
803.93        66.61243
804.34        66.62326
804.75        66.52323
805.17        66.46278
805.58        66.49785
805.99        66.38958
806.40        66.20316
806.81        66.44192
807.22        66.93147
807.63        66.83722
808.04        66.27017
808.45        66.13567
808.86         66.5035
809.27        66.85552
809.68        67.07217
810.09        67.18484
810.50        67.15195
810.91        66.96509
811.32        66.71565
811.73        66.57165
812.14        66.58229
812.55        66.67152
812.96        66.78294
813.37        66.90947
813.78        66.97406
814.19        66.79875
814.60        66.47924
815.01        66.34613
815.42        66.43947
815.83        66.59497
816.24        66.76863
816.65        66.94739
817.05        67.10067
817.46        67.19646
817.87        67.26215
818.28        67.29487
818.69        67.30013
819.10        67.27535
819.51        67.24107
819.92        67.23667
820.33        67.27483
820.74        67.34892
821.14        67.43098
821.55        67.50993
821.96        67.55965
822.37        67.58496
822.78        67.59776
823.19        67.61679
823.60         67.6507
824.00        67.71951
824.41        67.75761
824.82        67.74458
825.23        67.67435
825.64        67.55031
826.04        67.46156
826.45          67.519
826.86        67.74821
827.27        68.11945
827.68        68.48595
828.08        68.63335
828.49        68.44676
828.90        68.02302
829.31        67.55334
829.72        67.36353
830.12        67.55653
830.53        67.99754
830.94        68.50326
831.35        68.73146
831.75        68.60453
832.16         68.1829
832.57         67.6577
832.97        67.32747
833.38        67.28632
833.79        67.44744
834.20         67.6946
834.60        67.85395
835.01        67.88734
835.42        67.84446
835.82        67.80691
836.23        67.83227
836.64        67.96415
837.04        68.18505
837.45        68.38322
837.86        68.48147
838.26         68.4702
838.67        68.36892
839.08        68.25965
839.48        68.25887
839.89        68.39061
840.29        68.60088
840.70        68.83326
841.11        69.00233
841.51        69.09475
841.92        69.11027
842.33        69.04562
842.73        68.89005
843.14        68.61784
843.54        68.26752
843.95        67.93867
844.35        67.80813
844.76        67.90264
845.17        68.17845
845.57        68.51897
845.98        68.68661
846.38         68.6383
846.79        68.41477
847.19        68.12518
847.60        67.91123
848.00          67.842
848.41          67.837
848.81         67.8823
849.22        67.88731
849.62         67.8593
850.03         67.8126
850.43        67.76557
850.84        67.65806
851.24        67.53455
851.65        67.35371
852.05        67.23471
852.46        67.29874
852.86        67.55155
853.27        67.94392
853.67        68.29078
854.07        68.50469
854.48        68.52929
854.88        68.44075
855.29        68.20159
855.69        67.94122
856.10        67.63325
856.50        67.32937
856.90        67.06577
857.31        66.92396
857.71        66.96139
858.12        67.11488
858.52        67.33358
858.92        67.40142
859.33        67.25079
859.73        66.95446
860.13        66.59139
860.54        66.33755
860.94        66.28124
861.34         66.3446
861.75        66.41254
862.15         66.3665
862.55        66.15079
862.96        65.83971
863.36          65.503
863.76        65.24226
864.17        65.09116
864.57        65.02517
864.97        65.05192
865.38         65.1668
865.78        65.39574
866.18        65.72013
866.58        66.03319
866.99        66.15976
867.39        66.07475
867.79        65.77646
868.19        65.41354
868.60        65.18212
869.00        65.11703
869.40        65.21561
869.80        65.32879
870.21        65.19352
870.61        64.83292
871.01         64.2913
871.41        63.81112
871.81        63.72369
872.22        64.06129
872.62        64.76214
873.02        65.57504
873.42        66.01024
873.82        65.92833
874.22        65.49611
874.63        65.01801
875.03        64.92862
875.43        65.31469
875.83        65.99544
876.23        66.78132
876.63        67.36329
877.03        67.61492
877.44        67.63108
877.84        67.41411
878.24        66.94743
878.64        66.30016
879.04        65.51237
879.44        64.77813
879.84        64.36195
880.24        64.30656
880.64        64.56279
881.04        64.97077
881.44        65.23353
881.84        65.25023
882.24        65.07053
882.65         64.8112
883.05        64.77834
883.45        64.99799
883.85        65.38573
884.25        65.74979
884.65        65.81651
885.05        65.54482
885.45        65.02441
885.85        64.49907
886.25        64.37925
886.65        64.75629
887.05        65.48775
887.45        66.27203
887.85        66.65511
888.25          66.525
888.65        66.00874
889.04        65.33731
889.44        64.94325
889.84        64.93186
890.24        65.18482
890.64         65.5012
891.04        65.56657
891.44        65.31418
891.84        64.86897
892.24        64.42177
892.64        64.25655
893.04        64.43645
893.44        64.85188
893.83        65.36221
894.23         65.6853
894.63        65.76282
895.03        65.66641
895.43         65.4817
895.83        65.34686
896.23        65.31244
896.63        65.33707
897.02          65.372
897.42        65.38291
897.82        65.34634
898.22        65.28202
898.62        65.22848
899.01        65.25365
899.41        65.34223
899.81        65.46658
900.21        65.55784
900.61         65.5036
901.00        65.28584
901.40        64.99897
901.80        64.69321
902.20        64.45557
902.59        64.33784
902.99        64.28865
903.39        64.40152
903.79        64.80725
904.18        65.47179
904.58        66.32131
904.98        67.10258
905.38        67.45723
905.77        67.31214
906.17        66.76077
906.57        66.03955
906.96          65.591
907.36         65.5283
907.76        65.76484
908.15        66.08485
908.55         66.0433
908.95        65.57839
909.34         64.8409
909.74        64.13937
910.14         63.8744
910.53        64.14595
910.93        64.79427
911.33        65.59805
911.72        66.18927
912.12        66.41476
912.52        66.38922
912.91        66.22121
913.31        66.09087
913.70        66.04896
914.10         66.0201
914.49        65.98774
914.89        65.89046
915.29        65.72948
915.68        65.54189
916.08        65.36168
916.47        65.21004
916.87        65.11845
917.26        65.07848
917.66        65.07899
918.05        65.06844
918.45        65.02631
918.84        64.97115
919.24        64.94154
919.64        65.08376
920.03        65.42025
920.42        65.88945
920.82        66.32397
921.21        66.46021
921.61        66.23272
922.00        65.71418
922.40        65.12292
922.79         64.9112
923.19        65.15642
923.58        65.76962
923.98        66.40419
924.37        66.58784
924.77        66.21368
925.16         65.4183
925.55        64.54615
925.95        64.18833
926.34        64.49082
926.74        65.23736
927.13        66.12189
927.52        66.56379
927.92        66.44573
928.31        65.96709
928.70        65.36995
929.10        65.00919
929.49        64.99272
929.89        65.16235
930.28        65.51347
930.67        65.93854
931.07         66.3449
931.46        66.77869
931.85        67.09286
932.24        67.08759
932.64        66.74178
933.03        66.10974
933.42        65.38023
933.82        64.86965
934.21        64.67693
934.60        64.75083
934.99        64.96288
935.39        65.05947
935.78        64.99558
936.17        64.83451
936.56        64.71439
936.96        64.84277
937.35        65.29939
937.74        65.95423
938.13         66.5994
938.53        66.96784
938.92        67.00105
939.31        66.73454
939.70        66.35434
940.09        66.18591
940.49        66.28515
940.88        66.60632
941.27        66.86922
941.66        66.64346
942.05         65.8774
942.44        64.74497
942.84        63.63816
943.23        63.12214
943.62        63.37475
944.01        64.21879
944.40        65.32578
944.79        66.09636
945.18        66.30959
945.57        66.12285
945.97        65.70011
946.36        65.38062
946.75        65.23342
947.14        65.15022
947.53        65.08643
947.92        64.98965
948.31        64.84315
948.70        64.70022
949.09        64.56978
949.48        64.43964
949.87        64.30157
950.26        64.13486
950.65        63.94479
951.04        63.74736
951.43        63.54204
951.82        63.33558
952.21        63.08431
952.60        62.72055
952.99        62.26051
953.38        61.75094
953.77        61.31403
954.16        61.12572
954.55        61.20437
954.94        61.47829
955.33        61.82394
955.72        62.03344
956.11        62.04033
956.50        61.91137
956.89        61.68564
957.28         61.4357
957.66        61.24493
958.05        61.09229
958.44        61.06168
958.83        61.28684
959.22        61.76096
959.61        62.39233
960.00        63.07339
960.39        63.64066
960.78        64.00866
961.16        64.22115
961.55        64.13226
961.94        63.61686
962.33        62.72351
962.72        61.59451
963.11         60.4826
963.49        59.72909
963.88        59.43009
964.27        59.51155
964.66        59.94296
965.04        60.65453
965.43        61.45488
965.82        62.31875
966.21        63.07515
966.60        63.50987
966.98        63.57662
967.37        63.27592
967.76        62.67394
968.15        61.93109
968.53        61.20227
968.92        60.54926
969.31        60.08483
969.69        59.92122
970.08        60.07315
970.47         60.5243
970.86        61.30157
971.24        62.41299
971.63        63.67619
972.02        64.99521
972.40        66.14877
972.79        66.72282
973.17         66.7693
973.56        66.32383
973.95        65.65713
974.33        65.22697
974.72         65.1867
975.11        65.41145
975.49        65.70817
975.88        65.77636
976.26        65.52205
976.65        65.05261
977.04        64.44764
977.42        63.81543
977.81        63.18301
978.19        62.48804
978.58        61.93986
978.96        61.81209
979.35        62.13868
979.74        62.89989
980.12        63.80445
980.51        64.14467
980.89        63.87155
981.28        63.04888
981.66        62.13271
982.05        62.03337
982.43        62.92408
982.82        64.44307
983.20        66.01688
983.59        66.60441
983.97        66.07476
984.35        64.72804
984.74        63.00857
985.12        61.69441
985.51        61.11128
985.89        61.07396
986.28        61.48041
986.66        62.28298
987.04        63.32282
987.43         64.5602
987.81        65.78828
988.20        66.52095
988.58        66.65291
988.96        66.30328
989.35        65.48563
989.73        64.35122
990.12        62.94475
990.50        61.10464
990.88        59.33407
991.27        58.76775
991.65        59.67818
992.03        61.76653
992.42         63.7355
992.80        64.22686
993.18        62.88313
993.56          59.912
993.95        56.27686
994.33         54.3951
994.71        55.42189
995.10        58.16638
995.48        61.21062
995.86        62.99968
996.24        63.38602
996.63        62.83112
997.01         61.8145
997.39        61.27183
997.77        61.64168
998.15         62.5921
998.54        63.59885
998.92         64.0463
999.30        63.79974
999.68        63.07602
1000.06         62.3857
1000.45        62.54372
1000.83        63.76567
1001.21        65.64319
1001.59         67.4654
1001.97        68.23374
1002.35        67.72033
1002.73        66.20632
1003.12        64.11881
1003.50        62.29887
1003.88        61.33458
1004.26        61.02681
1004.64        61.25386
1005.02        61.82864
1005.40        62.62704
1005.78         63.7208
1006.16        64.88269
1006.54        65.63635
1006.92        65.82605
1007.30        65.53285
1007.69        64.98984
1008.07        64.52273
1008.45        64.33462
1008.83        64.29981
1009.21        64.38218
1009.59        64.51762
1009.97        64.65553
1010.35        64.86923
1010.73         65.0101
1011.11        64.73008
1011.49        63.95665
1011.86        62.87043
1012.24        61.76287
1012.62        61.26319
1013.00        61.48903
1013.38        62.39845
1013.76        63.50195
1014.14        63.96723
1014.52        63.57703
1014.90        62.40112
1015.28        61.28085
1015.66        61.84308
1016.04        64.37093
1016.41        68.30074
1016.79        71.82414
1017.17        72.69373
1017.55        70.63055
1017.93        66.60413
1018.31        62.12957
1018.69        59.54278
1019.06         59.6292
1019.44        61.81271
1019.82        65.64429
1020.20        69.88599
1020.58        73.42553
1020.95        76.14197
1021.33         77.6723
1021.71        77.62997
1022.09        76.11816
1022.46        73.22342
1022.84        69.21695
1023.22        64.55647
1023.60        59.51157
1023.97        53.76074
1024.35        48.46635
1024.73        45.61454
