SpectraSmart Spectrum 2.9.0.0
--------- Device Information -----------
Spectrum Name :  反射率_0
Saving Time :  2024/04/27 22:39:30
Spectro-Module Model Name : SE2030-DUVN
Spectro-Module Serial Number : OS361AC55029948
Wavelength Start : 200
Wavelength End : 1025
Wavelength Unit : Wavelength(nm)
Spectrum Unit : Reflectance(%)
-----------Spectrum Setting ------------
Integration Time : 20ms
Average : 10
Boxcar : 0
Background removal :  enabled
linearity correction :  enabled
SC :  disabled
Intensity correction :  disabled
DWT denoise :  enabled
savitzky-golay :  disabled
FFT :  disabled
Running average :  disabled
Kalman :  disabled
High pass :  disabled
---------------BEGIN--------------------
Wavelength(nm)             Reflectance(%)
200.29               0
200.75       -64.10172
201.21        -28.3766
201.67         3.94247
202.13         19.2915
202.58        23.36438
203.04        22.62809
203.50        21.76305
203.96         25.7186
204.42        33.93827
204.88        43.27076
205.34         50.9436
205.80        55.19405
206.26        56.12104
206.72        53.58235
207.18        47.84647
207.64        44.05752
208.10        46.12568
208.55        51.57647
209.01        54.03479
209.47        50.86581
209.93        40.02253
210.39        10.53874
210.85       -78.37653
211.31       -181.0695
211.77       -48.31945
212.23        35.70533
212.69        64.44305
213.14        72.25541
213.60        69.73366
214.06        58.77393
214.52        36.72338
214.98        16.72654
215.44        17.78267
215.90        28.63271
216.36        38.93214
216.81        45.04573
217.27        47.75713
217.73        49.31849
218.19        49.71608
218.65        48.13706
219.11        44.61434
219.57        39.28258
220.02        32.56912
220.48        27.95723
220.94        26.82434
221.40        28.03646
221.86        31.92451
222.32        38.67514
222.77        47.06911
223.23        55.96883
223.69        62.66719
224.15        64.20335
224.61          60.739
225.06        53.08753
225.52        44.45102
225.98        40.95125
226.44         43.3884
226.90        48.41473
227.36        52.65447
227.81        53.39577
228.27        50.78986
228.73        45.81184
229.19        39.72812
229.65        35.31184
230.10        33.75273
230.56        34.49427
231.02        36.15641
231.48        36.94832
231.93         36.4575
232.39        35.39517
232.85         34.6475
233.31         35.4064
233.77        37.69055
234.22        40.94262
234.68        43.98161
235.14        45.45315
235.60        45.13918
236.05        43.27993
236.51         41.0071
236.97        40.72803
237.43        43.30371
237.88        48.11309
238.34        52.99706
238.80        55.85683
239.26        56.18254
239.71        53.76244
240.17        48.70783
240.63         45.6348
241.08        48.72084
241.54        54.62001
242.00        59.05527
242.46        59.89399
242.91        57.08435
243.37        49.15115
243.83         31.8823
244.28        8.470771
244.74         4.16428
245.20        21.63207
245.66        38.58979
246.11        44.65578
246.57         41.9834
247.03        32.50559
247.48        16.84172
247.94        8.325074
248.40        18.75919
248.85        38.38973
249.31        57.53188
249.77        69.71232
250.22        75.18056
250.68        76.93414
251.14        76.46797
251.59        74.63346
252.05        71.52392
252.51          65.838
252.96        56.87377
253.42        48.55939
253.88        44.77895
254.33        45.43612
254.79        47.35787
255.25         47.2823
255.70        45.47318
256.16        43.57728
256.62        42.75865
257.07        44.22077
257.53        47.39215
257.99        50.66401
258.44        53.00237
258.90        53.90834
259.35        53.35075
259.81        52.21603
260.27        50.68952
260.72        48.99596
261.18         47.6004
261.63        46.27285
262.09        45.24141
262.55        44.44423
263.00        43.77271
263.46        43.29273
263.91        42.91149
264.37        42.78139
264.83        42.78793
265.28        42.84647
265.74        42.80897
266.19        42.31655
266.65        41.43256
267.11        40.25545
267.56        39.02572
268.02        38.22112
268.47        37.89204
268.93        37.88086
269.38        37.98959
269.84        37.92704
270.30        37.58455
270.75        37.05893
271.21        36.33426
271.66        35.34526
272.12        34.15548
272.57        32.76132
273.03        31.41657
273.48        30.44244
273.94        29.94263
274.39        29.78981
274.85        29.77339
275.31        29.50835
275.76           28.91
276.22        28.12646
276.67        27.31558
277.13        26.78533
277.58        26.53941
278.04        26.50498
278.49        26.46991
278.95        26.23655
279.40        25.72769
279.86        25.08624
280.31        24.43675
280.77        24.05986
281.22        23.95787
281.68        24.06301
282.13        24.19787
282.59        24.16068
283.04        23.90082
283.50         23.5008
283.95        23.07602
284.41        22.83101
284.86        22.79029
285.32        22.89771
285.77        23.01565
286.22        22.97793
286.68        22.77387
287.13        22.44182
287.59         22.1207
288.04        21.94754
288.50        21.97549
288.95        22.11745
289.41         22.2977
289.86        22.36567
290.32        22.30541
290.77         22.1651
291.22        22.00792
291.68          21.919
292.13        21.92172
292.59        22.00532
293.04        22.15944
293.50        22.39222
293.95        22.68976
294.40        23.06159
294.86        23.49457
295.31        23.95651
295.77        24.44252
296.22        24.93917
296.68        25.45549
297.13        25.98564
297.58        26.53019
298.04        27.08219
298.49        27.62479
298.95        28.14966
299.40        28.65375
299.85        29.13561
300.31        29.63805
300.76        30.18682
301.21        30.78654
301.67        31.42678
302.12         32.0167
302.58         32.4618
303.03         32.7359
303.48        32.88121
303.94        33.02237
304.39        33.30066
304.84        33.75434
305.30        34.33721
305.75        34.90169
306.20         35.2642
306.66        35.39835
307.11        35.33252
307.57        35.21619
308.02        35.21638
308.47         35.3819
308.93        35.65058
309.38        35.87663
309.83        35.86665
310.29        35.60195
310.74        35.15307
311.19        34.66369
311.65        34.35387
312.10        34.26422
312.55        34.32601
313.00        34.45735
313.46        34.53365
313.91        34.50374
314.36          34.408
314.82        34.24095
315.27        33.98866
315.72        33.66661
316.18        33.28677
316.63        32.89569
317.08        32.59431
317.53        32.40629
317.99        32.30589
318.44        32.25961
318.89        32.18866
319.35        32.06786
319.80        31.92082
320.25        31.75438
320.70        31.58693
321.16        31.41745
321.61        31.23545
322.06        31.04694
322.51        30.87113
322.97         30.7054
323.42        30.56207
323.87        30.40123
324.32         30.1623
324.78        29.83561
325.23        29.44657
325.68        29.06183
326.13        28.79765
326.59        28.66816
327.04        28.65912
327.49        28.67855
327.94        28.58128
328.39        28.32753
328.85        27.95427
329.30        27.54231
329.75        27.22328
330.20        27.04617
330.66         26.9639
331.11        26.94503
331.56         26.8897
332.01        26.76731
332.46        26.60705
332.92         26.4361
333.37        26.32561
333.82        26.28318
334.27        26.27657
334.72        26.27495
335.17        26.23477
335.63        26.13487
336.08        26.01073
336.53        25.85527
336.98        25.66668
337.43        25.46042
337.88        25.24579
338.34        25.06846
338.79        25.00542
339.24          25.068
339.69        25.22642
340.14        25.42433
340.59        25.56791
341.05        25.62347
341.50        25.61877
341.95        25.55397
342.40        25.44389
342.85        25.30243
343.30        25.12037
343.75        24.94117
344.20        24.83677
344.66        24.82408
345.11        24.88843
345.56        24.96201
346.01        24.92907
346.46        24.76585
346.91        24.50295
347.36        24.23265
347.81        24.09454
348.26        24.11952
348.72        24.27437
349.17        24.45024
349.62        24.47309
350.07        24.30684
350.52         23.9963
350.97        23.69123
351.42        23.63096
351.87         23.8506
352.32        24.25969
352.77        24.65756
353.22        24.74032
353.67        24.45054
354.13        23.91025
354.58        23.28189
355.03         22.8766
355.48         22.7828
355.93        22.90859
356.38        23.13396
356.83        23.27024
357.28         23.2584
357.73        23.16018
358.18        23.02645
358.63        22.93118
359.08        22.89196
359.53        22.86657
359.98        22.82731
360.43        22.74285
360.88         22.6063
361.33         22.4375
361.78        22.23808
362.23         22.0421
362.68        21.86827
363.13        21.64428
363.58        21.37728
364.03         21.4407
364.48        21.24933
364.93        21.25406
365.38        21.24412
365.83        21.17631
366.28        21.03066
366.73        20.83096
367.18        20.59603
367.63        20.34237
368.08        20.08821
368.53        19.83483
368.98        19.60519
369.43        19.43429
369.88        19.32847
370.33        19.27919
370.78        19.25957
371.23        19.22391
371.68        19.15091
372.13        19.04011
372.58        18.90141
373.03        18.75419
373.48        18.60958
373.93        18.47646
374.38        18.33413
374.83        18.14866
375.28        17.92516
375.72        17.66841
376.17        17.47488
376.62        17.45388
377.07        17.60747
377.52        17.87519
377.97        18.13841
378.42        18.21343
378.87        18.06147
379.32        17.75455
379.77        17.36646
380.22        17.00947
380.67        16.72698
381.11        16.48585
381.56        16.31369
382.01        16.25413
382.46         16.3016
382.91        16.44605
383.36        16.59621
383.81        16.60352
384.26        16.43942
384.71        16.14422
385.15        15.80575
385.60        15.59867
386.05        15.55581
386.50        15.63221
386.95        15.75758
387.40        15.82071
387.85        15.79404
388.29         15.7054
388.74        15.62302
389.19        15.60561
389.64        15.65915
390.09        15.74541
390.54        15.82117
390.98         15.8204
391.43        15.73712
391.88        15.60533
392.33        15.44195
392.78         15.2937
393.23         15.1831
393.67        15.03015
394.12        14.87767
394.57        14.95963
395.02        15.00626
395.47         14.9765
395.91        14.81739
396.36        14.73808
396.81        14.75065
397.26        14.74528
397.71        14.69603
398.15        14.62121
398.60        14.53764
399.05        14.38683
399.50        14.23625
399.95        14.27236
400.39        14.45955
400.84        14.56368
401.29        14.53842
401.74        14.45142
402.18        14.32747
402.63        14.21288
403.08        14.13766
403.53        14.07353
403.97        14.03631
404.42        14.08704
404.87          14.179
405.32        14.21006
405.76        14.16104
406.21        14.02843
406.66        13.87499
407.11        13.86293
407.55        13.97396
408.00        14.03541
408.45        14.00638
408.90         13.8684
409.34        13.67807
409.79        13.63742
410.24        13.73539
410.68        13.77446
411.13        13.74681
411.58        13.78133
412.03        13.87995
412.47        13.97229
412.92        14.03706
413.37        14.09773
413.81        14.12822
414.26        14.09977
414.71        14.01023
415.15        13.87108
415.60        13.72236
416.05        13.64183
416.49        13.65274
416.94         13.7297
417.39         13.8363
417.83        13.91464
418.28        13.93992
418.73        13.92232
419.17        13.87533
419.62        13.82455
420.07        13.78636
420.51        13.76168
420.96        13.73553
421.41        13.70345
421.85        13.66175
422.30         13.5509
422.74        13.43364
423.19        13.57188
423.64        13.90655
424.08        14.06678
424.53         13.9732
424.98        13.90372
425.42          13.868
425.87        13.60934
426.31          13.243
426.76        13.23521
427.21        13.52963
427.65        13.62208
428.10        13.49992
428.54        13.49164
428.99        13.59059
429.44        13.73427
429.88        13.83381
430.33        13.58971
430.77        13.15809
431.22        13.11175
431.66        13.43673
432.11        13.69182
432.56        13.80024
433.00        13.89106
433.45        13.83397
433.89        13.53738
434.34        13.26957
434.78        12.58668
435.23        13.10984
435.67        13.59363
436.12        13.85899
436.57        14.04453
437.01        14.00253
437.46        13.93361
437.90         13.9062
438.35        13.86006
438.79        13.42437
439.24        13.25747
439.68        13.27084
440.13        13.39246
440.57        13.54469
441.02        13.72241
441.46        13.85515
441.91        13.66234
442.35        13.29686
442.80        13.39229
443.24        13.83699
443.69         13.8337
444.13        13.39944
444.58        13.20029
445.02        13.23983
445.47        13.17672
445.91        13.02192
446.36        12.97311
446.80        13.03238
447.24        13.13497
447.69        13.25254
448.13        13.37921
448.58        13.48085
449.02        13.49635
449.47        13.44783
449.91        13.43422
450.36        13.46828
450.80        13.49227
451.25        13.50234
451.69         13.5164
452.13         13.5273
452.58        13.52006
453.02        13.49063
453.47        13.43881
453.91        13.36539
454.36        13.29623
454.80         13.2201
455.24        13.10565
455.69         12.9892
456.13        12.89397
456.58        12.85228
457.02        12.95745
457.46        13.13343
457.91        13.14273
458.35        13.04671
458.79        13.02231
459.24        13.09048
459.68          13.125
460.13        13.13521
460.57        13.11622
461.01        13.12791
461.46        13.17807
461.90        13.18745
462.34        13.17527
462.79        13.33881
463.23        13.32475
463.68          13.217
464.12        13.12053
464.56        13.06276
465.01        13.07434
465.45        13.09461
465.89        13.02917
466.34        12.91954
466.78        12.83421
467.22        12.77982
467.67        13.03509
468.11        13.01516
468.55        13.04099
468.99         12.9552
469.44        12.91741
469.88        12.92858
470.32        12.89085
470.77        12.82129
471.21        12.78789
471.65        12.80186
472.10        12.85041
472.54         12.9036
472.98        12.93171
473.42        12.93207
473.87        12.87875
474.31          12.814
474.75        12.92416
475.20         13.1693
475.64        13.28093
476.08        13.23695
476.52        13.26384
476.97        13.37201
477.41         13.3037
477.85        13.20087
478.29        13.26604
478.74        13.17424
479.18        13.07553
479.62        13.29711
480.06        13.34201
480.50         13.3478
480.95        13.31936
481.39        13.25735
481.83        13.45024
482.27        13.49408
482.72        13.48271
483.16        13.70777
483.60        13.76878
484.04        13.76413
484.48        13.81127
484.93        14.01341
485.37        13.86068
485.81         13.9591
486.25        14.29573
486.69        14.04887
487.14        13.63322
487.58        14.69824
488.02        14.41824
488.46        14.49234
488.90        14.64779
489.34        14.09039
489.79        13.99888
490.23        14.54305
490.67        14.77613
491.11        14.80204
491.55         14.8136
491.99        14.86083
492.43        14.95001
492.88        15.08222
493.32        15.19602
493.76        15.28308
494.20        15.41062
494.64        15.59083
495.08        15.75435
495.52        15.88707
495.96        16.10374
496.41        16.38963
496.85        16.31149
497.29        16.00933
497.73        16.12852
498.17        16.60738
498.61        16.88134
499.05         16.8619
499.49        16.83279
499.93        16.84367
500.37         16.8451
500.82        16.86235
501.26        16.97344
501.70        17.19584
502.14        17.15544
502.58        17.43548
503.02        17.53782
503.46        17.56021
503.90        17.53793
504.34        17.49431
504.78        17.52402
505.22        17.63393
505.66        17.76605
506.10        17.89044
506.54        18.00811
506.98        18.11158
507.42        18.11759
507.86        18.18161
508.30        18.21173
508.74        18.25901
509.18        18.30956
509.62        18.36934
510.06        18.44689
510.50        18.53821
510.94        18.64094
511.38        18.73663
511.82        18.79512
512.26        18.81031
512.70         18.7925
513.14        18.75966
513.58        18.73443
514.02        18.72601
514.46        18.74248
514.90        18.78233
515.34        18.77549
515.78        18.82581
516.22        18.84766
516.66        18.87371
517.10        18.90065
517.54        18.92717
517.98        18.94993
518.42        18.95918
518.86        18.94473
519.30         18.9053
519.74        18.84459
520.18        18.77901
520.62        18.73251
521.06        18.71282
521.50        18.71938
521.93        18.73585
522.37        18.72609
522.81        18.68615
523.25        18.62062
523.69        18.56089
524.13        18.55729
524.57        18.61277
525.01        18.70582
525.45        18.78286
525.89        18.76008
526.32        18.62103
526.76        18.40668
527.20        18.17057
527.64        18.00088
528.08        17.92343
528.52        17.90846
528.96        17.93606
529.40        17.97352
529.83        18.00248
530.27        18.03392
530.71        18.04446
531.15        17.99598
531.59        17.88704
532.03        17.72822
532.46        17.56041
532.90        17.46529
533.34        17.45674
533.78        17.51117
534.22        17.59069
534.66        17.63499
535.09        17.62612
535.53        17.58712
535.97         17.5319
536.41        17.48401
536.85        17.45468
537.28        17.43791
537.72        17.43698
538.16        17.45634
538.60        17.49603
539.04        17.55829
539.47        17.63381
539.91        17.71774
540.35        17.80131
540.79        17.88781
541.22         17.9685
541.66        18.03167
542.10        18.07652
542.54        18.10825
542.97        18.13979
543.41        18.20259
543.85        18.29986
544.29        18.42407
544.72        18.55882
545.16        18.69234
545.60          18.813
546.04        18.92547
546.47        19.03501
546.91        19.14502
547.35         19.2562
547.79        19.37498
548.22        19.49361
548.66        19.59826
549.10         19.7003
549.53        19.87241
549.97        20.10091
550.41          20.294
550.84        20.43982
551.28        20.58885
551.72        20.73763
552.15        20.85643
552.59        20.95193
553.03        21.02732
553.46        21.09663
553.90        21.19829
554.34        21.33458
554.77        21.50152
555.21        21.67569
555.65        21.81879
556.08        21.89894
556.52        21.97832
556.96        22.05606
557.39        22.16426
557.83        22.29077
558.27         22.3335
558.70        22.31625
559.14        22.36054
559.57         22.4693
560.01        22.61068
560.45        22.74378
560.88        22.79391
561.32         22.7992
561.75         22.8313
562.19        22.91319
562.63         23.0686
563.06        23.24439
563.50        23.25902
563.93        23.13738
564.37        23.12711
564.80        23.23359
565.24         23.3319
565.68        23.41484
566.11        23.52079
566.55        23.65136
566.98         23.8109
567.42        23.98257
567.85        24.07204
568.29        24.11943
568.72        24.20342
569.16        24.33354
569.60        24.51612
570.03        24.76732
570.47        24.81377
570.90        24.94735
571.34        25.41946
571.77        25.46829
572.21        25.51316
572.64        25.85692
573.08        25.76287
573.51         25.9882
573.95        26.10409
574.38        26.23741
574.82        26.23772
575.25        26.37534
575.69        26.23604
576.12         26.1054
576.56        26.57088
576.99        26.72063
577.42        26.59032
577.86        26.73417
578.29        26.93229
578.73         26.3832
579.16        26.33142
579.60        26.39985
580.03        26.35929
580.47        26.18594
580.90        26.16139
581.33        26.04934
581.77        26.29524
582.20        25.82408
582.64        25.42104
583.07        25.39044
583.51        25.30437
583.94        25.39856
584.37        25.37284
584.81        25.19577
585.24        25.04308
585.68        25.02294
586.11        24.68232
586.54         24.7018
586.98        24.74655
587.41        24.88529
587.85        24.39719
588.28         24.2108
588.71        24.23194
589.15        24.39571
589.58        24.18792
590.01        24.60892
590.45        24.67189
590.88        24.18836
591.31        24.13238
591.75        24.38221
592.18        24.38218
592.61        24.12802
593.05        24.58798
593.48        24.82173
593.91        24.42474
594.35        24.58205
594.78        24.68537
595.21        24.72374
595.65        24.77932
596.08        24.73228
596.51        25.08774
596.94        25.04112
597.38        25.36258
597.81        25.87321
598.24        25.81561
598.68        26.21464
599.11        26.83357
599.54        26.92454
599.97        26.90356
600.41        27.73728
600.84         28.0641
601.27        28.23765
601.70        28.50807
602.14        28.65448
602.57         29.2471
603.00        29.83087
603.43        30.29527
603.87        30.69686
604.30        30.96856
604.73         31.5157
605.16        32.04764
605.60        32.56003
606.03        33.16439
606.46        33.75774
606.89        33.97862
607.32        34.25874
607.76        34.87307
608.19        34.96653
608.62         35.3127
609.05        35.65902
609.48        36.00313
609.92         36.3128
610.35        36.71725
610.78         37.2521
611.21        37.19561
611.64        37.97102
612.07         38.2342
612.50        38.42183
612.94        38.73834
613.37        39.24152
613.80         39.4436
614.23        39.98652
614.66        40.23869
615.09         40.4013
615.52        40.67632
615.96        41.11462
616.39        41.11255
616.82        41.37916
617.25          41.881
617.68        42.09083
618.11        42.28606
618.54         42.3503
618.97        42.73773
619.40        43.33554
619.84        43.88601
620.27        43.86967
620.70          43.866
621.13        43.76017
621.56        44.10186
621.99        44.20674
622.42        44.18774
622.85        44.21621
623.28        44.64868
623.71        44.57365
624.14        44.40016
624.57        44.59121
625.00        44.87871
625.43        44.43391
625.86        44.35108
626.29        44.35905
626.72        44.03282
627.15        43.92018
627.58         43.6813
628.01        43.59278
628.44        43.18828
628.87        43.12421
629.30        43.00715
629.73        42.60542
630.16        42.11919
630.59        41.84303
631.02        41.48718
631.45        41.13797
631.88        40.76702
632.31        40.38387
632.74         39.8051
633.17        39.43979
633.60        38.96459
634.03        38.49538
634.46        38.06135
634.89        37.62864
635.32        37.05218
635.75        36.36144
636.18        35.77391
636.61        35.31091
637.04         34.8149
637.47        34.31051
637.89        33.97395
638.32        33.75404
638.75        33.46877
639.18        33.09896
639.61        32.72636
640.04        32.36896
640.47         32.0383
640.90        31.74668
641.33        31.47471
641.76        31.22239
642.18        31.07034
642.61        30.89605
643.04        30.79571
643.47        30.72735
643.90         30.6798
644.33        30.64885
644.76        30.64039
645.18        30.65695
645.61        30.69885
646.04        30.76828
646.47        30.86098
646.90        30.99408
647.33        31.19095
647.75         31.4619
648.18         31.8178
648.61         32.2145
649.04        32.59898
649.47         32.9709
649.89        33.26616
650.32        33.56321
650.75        34.19757
651.18        35.06648
651.61        35.63631
652.03        35.89052
652.46        36.19737
652.89        36.69287
653.32        37.28358
653.74        38.00117
654.17        38.83065
654.60         39.2715
655.03        39.47159
655.46        40.20605
655.88        41.12397
656.31        42.11555
656.74        43.54589
657.16        43.73112
657.59        43.83178
658.02        43.80662
658.45        44.35794
658.87        44.79029
659.30        45.31925
659.73        45.33086
660.15        45.77776
660.58        46.19786
661.01        46.77365
661.44        47.34774
661.86        47.75183
662.29        47.99418
662.72         48.1862
663.14        48.41279
663.57         48.7704
664.00        49.22554
664.42        49.55455
664.85        49.75578
665.27        49.99285
665.70        50.27255
666.13        50.51871
666.55        50.73651
666.98        50.95313
667.41        51.18349
667.83        51.43851
668.26        51.71327
668.69        52.01163
669.11        52.31193
669.54        52.57946
669.96        52.81067
670.39        52.98315
670.82        53.13583
671.24        53.36842
671.67        53.66479
672.09        53.91566
672.52        54.10003
672.94        54.19013
673.37        54.22343
673.80        54.30324
674.22        54.45387
674.65        54.57432
675.07        54.68196
675.50        54.83549
675.92         55.0309
676.35        55.20972
676.77        55.37005
677.20         55.5332
677.62        55.70059
678.05        55.85751
678.47        56.00487
678.90        56.14905
679.32        56.30907
679.75        56.52956
680.17        56.80787
680.60        57.12997
681.02        57.43597
681.45        57.61518
681.87        57.65954
682.30        57.58431
682.72        57.47343
683.15        57.49559
683.57        57.67254
684.00         57.8391
684.42        57.98399
684.85        58.18122
685.27        58.40499
685.70        58.64347
686.12        58.84419
686.54         58.8931
686.97        58.82007
687.39         58.8243
687.82        58.93762
688.24        58.98001
688.66        59.20386
689.09        59.28422
689.51        59.33464
689.94        59.46178
690.36        59.67382
690.78        59.87538
691.21         60.0295
691.63        60.12191
692.06        60.15011
692.48        60.11944
692.90        60.07869
693.33        60.09642
693.75        60.19334
694.17        60.35731
694.60        60.54873
695.02        60.71402
695.44        60.82462
695.87        60.91661
696.29        61.01444
696.71        61.11043
697.14        61.21938
697.56        61.43937
697.98         61.7023
698.41        61.87761
698.83        61.93701
699.25        61.96229
699.68        61.97638
700.10        62.04426
700.52         62.1717
700.94         62.3396
701.37        62.50425
701.79          62.628
702.21        62.67953
702.64         62.6884
703.06        62.66769
703.48        62.65727
703.90         62.6774
704.33        62.71159
704.75        62.77135
705.17        62.85565
705.59        62.96247
706.01        63.07167
706.44        63.17934
706.86        63.38819
707.28        63.51277
707.70        63.69295
708.12        63.86478
708.55        63.97608
708.97        64.02839
709.39        64.09837
709.81        64.18581
710.23        64.23197
710.66        64.23586
711.08        64.25639
711.50        64.27414
711.92        64.26025
712.34        64.22447
712.76        64.17334
713.19        64.13454
713.61        64.22716
714.03        64.45031
714.45        64.64105
714.87        64.97495
715.29        65.20116
715.71        65.36192
716.13        65.46658
716.56        65.50777
716.98        65.54311
717.40        65.56387
717.82        65.56886
718.24        65.56992
718.66        65.58882
719.08        65.63055
719.50        65.68943
719.92        65.76572
720.34        65.85372
720.76        65.94656
721.19        66.03933
721.61        66.11698
722.03        66.12473
722.45        66.05898
722.87        65.93731
723.29        65.81795
723.71        65.79517
724.13        65.88966
724.55        66.07619
724.97        66.30119
725.39        66.45353
725.81        66.50213
726.23        66.53336
726.65        66.57597
727.07        66.54386
727.49        66.51244
727.91        66.75964
728.33        67.20123
728.75        67.41391
729.17        67.34847
729.59         67.2431
730.01        67.14268
730.43        67.00211
730.85        66.86431
731.27        66.79847
731.69        66.82032
732.10        66.89442
732.52        67.00293
732.94        67.22842
733.36        67.51375
733.78        67.62915
734.20        67.52646
734.62        67.72612
735.04        67.23824
735.46        67.47165
735.88         67.9685
736.30        67.90752
736.72        67.37075
737.13        67.21204
737.55        67.46984
737.97        67.80483
738.39        68.08448
738.81        68.03726
739.23        67.73956
739.65        67.79624
740.06        68.13546
740.48        68.25512
740.90        68.12403
741.32        67.96929
741.74        68.02911
742.16        68.11282
742.57        68.28848
742.99        68.55022
743.41        68.81348
743.83        68.92205
744.25        68.84645
744.67        68.62353
745.08         68.3782
745.50        68.28478
745.92        68.40097
746.34        68.66828
746.75        68.96513
747.17        69.08839
747.59        68.98906
748.01        68.73945
748.42         68.4554
748.84        68.27671
749.26        68.25092
749.68        68.43322
750.09        68.72395
750.51        68.75102
750.93        68.58029
751.35        68.75842
751.76        69.20883
752.18        69.35274
752.60        69.15677
753.01        68.92638
753.43        68.76517
753.85        68.72302
754.27        68.83161
754.68        69.17268
755.10        69.59753
755.52        69.63459
755.93        69.34676
756.35        69.32069
756.77        69.56738
757.18        69.67435
757.60        69.65192
758.02        69.69978
758.43        69.79474
758.85        69.97829
759.26        69.83482
759.68        69.82208
760.10        69.96337
760.51        69.14498
760.93        69.69941
761.34        69.59618
761.76        70.38573
762.18        70.55155
762.59        70.41672
763.01        70.28723
763.42        70.35645
763.84        70.31004
764.26        70.23874
764.67        70.25315
765.09        70.35997
765.50        70.52254
765.92        70.68491
766.33        70.51891
766.75        70.17606
767.16        70.05795
767.58         70.2152
768.00        70.47955
768.41        70.77943
768.83        70.91081
769.24        70.84695
769.66        70.82358
770.07        70.82296
770.49        70.64012
770.90        70.36668
771.32        70.38018
771.73        70.65964
772.15        70.79919
772.56        70.78805
772.97        70.87533
773.39        71.02232
773.80         71.0663
774.22         71.0032
774.63        71.04105
775.05         71.1638
775.46        71.28693
775.88        71.37486
776.29         71.5295
776.70        71.69434
777.12         71.7468
777.53         71.6861
777.95        71.52466
778.36        71.33743
778.77        71.22576
779.19        71.22981
779.60        71.34328
780.02        71.48412
780.43        71.60252
780.84        71.68275
781.26         71.5376
781.67        71.32649
782.09        71.69433
782.50        72.41663
782.91        72.57913
783.33        71.95096
783.74        71.75249
784.15        71.93774
784.57        71.92432
784.98        71.77589
785.39        71.77963
785.81        71.96179
786.22        72.47518
786.63        73.09369
787.04        73.09068
787.46        72.57536
787.87        72.38897
788.28        72.59251
788.70        72.63589
789.11         72.5195
789.52        72.62255
789.93        72.88564
790.35        72.99582
790.76        72.94126
791.17        72.81551
791.58        72.69663
792.00        72.62958
792.41        72.64945
792.82        72.85149
793.23        73.14732
793.65        73.05791
794.06        72.71063
794.47        72.90516
794.88        73.53006
795.29        73.58989
795.71        73.51349
796.12        73.27618
796.53        73.11195
796.94        73.21602
797.35        73.53583
797.76        73.57166
798.18        73.33763
798.59        73.30907
799.00        73.51056
799.41         73.5773
799.82         73.6234
800.23        73.62572
800.64        73.62418
801.06        73.55682
801.47        73.49685
801.88        73.48846
802.29        73.53882
802.70        73.63898
803.11        73.73673
803.52        73.72727
803.93        73.60094
804.34        73.42121
804.75        73.26417
805.17        73.17573
805.58        73.42532
805.99        73.60764
806.40        73.75528
806.81        74.23638
807.22        74.79975
807.63        74.54022
808.04        73.64095
808.45        73.26965
808.86        73.55903
809.27         73.8644
809.68        74.05804
810.09        74.20016
810.50        74.24126
810.91        74.18598
811.32        74.07725
811.73        73.99448
812.14        73.97021
812.55        73.93343
812.96        73.92048
813.37        74.10266
813.78        74.42496
814.19        74.62053
814.60        74.65171
815.01        74.67641
815.42        74.69579
815.83         74.5926
816.24        74.41817
816.65        74.35517
817.05        74.44424
817.46        74.58277
817.87        74.76194
818.28        74.91843
818.69        75.02962
819.10        75.12579
819.51        75.16414
819.92        75.09113
820.33        74.91589
820.74        74.58472
821.14        74.21999
821.55        74.23102
821.96         74.5571
822.37        74.72751
822.78        74.69738
823.19        74.77795
823.60        74.95605
824.00        75.02722
824.41        74.94698
824.82        74.86877
825.23         74.8117
825.64        74.73311
826.04        74.69131
826.45        74.74628
826.86        74.91619
827.27        75.19106
827.68        75.48829
828.08        75.69185
828.49        75.69857
828.90        75.57576
829.31        75.41067
829.72        75.35621
830.12         75.4762
830.53        75.68024
830.94        75.89764
831.35         75.9758
831.75        75.89465
832.16        75.65141
832.57         75.3595
832.97        75.17498
833.38        75.14101
833.79         75.2253
834.20        75.34492
834.60        75.36972
835.01         75.2841
835.42        75.11688
835.82        74.97565
836.23        74.96182
836.64        75.12785
837.04        75.44852
837.45        75.76228
837.86        75.90918
838.26        75.86123
838.67        75.66245
839.08        75.43504
839.48        75.36206
839.89        75.49189
840.29        75.75452
840.70         76.0844
841.11        76.38479
841.51        76.62773
841.92        76.80004
842.33        76.88763
842.73        76.86077
843.14        76.67689
843.54        76.38044
843.95        76.03667
844.35        75.77749
844.76        75.63493
845.17        75.59227
845.57        75.62655
845.98        75.64628
846.38        75.64796
846.79        75.63158
847.19        75.62122
847.60        75.59984
848.00        75.59193
848.41        75.55901
848.81        75.53528
849.22        75.50961
849.62          75.515
850.03        75.52085
850.43        75.54382
850.84        75.52297
851.24        75.49968
851.65        75.43848
852.05        75.40887
852.46        75.41389
852.86        75.45731
853.27         75.5471
853.67        75.60589
854.07        75.70561
854.48        75.80093
854.88        75.91978
855.29        75.93363
855.69        75.81953
856.10        75.47488
856.50        75.00375
856.90        74.47954
857.31        74.05095
857.71        73.81734
858.12        73.70924
858.52        73.70574
858.92        73.63187
859.33        73.43135
859.73         73.1829
860.13        72.96175
860.54        72.92214
860.94        73.13175
861.34         73.4922
861.75        73.83818
862.15        73.98759
862.55        73.86462
862.96        73.54134
863.36        73.12783
863.76          72.795
864.17        72.60311
864.57        72.52811
864.97        72.53412
865.38        72.54336
865.78        72.56797
866.18        72.59575
866.58         72.6233
866.99        72.64937
867.39        72.69765
867.79        72.73718
868.19        72.71157
868.60        72.50702
869.00        72.10223
869.40        71.54856
869.80        71.00901
870.21        70.79315
870.61        71.05408
871.01        71.64027
871.41        72.29771
871.81        72.66287
872.22        72.63219
872.62        72.31828
873.02        71.93249
873.42        71.86105
873.82        72.20575
874.22        72.82988
874.63         73.4875
875.03        73.80784
875.43        73.72852
875.83        73.35708
876.23         72.9129
876.63        72.75488
877.03        72.97429
877.44        73.45216
877.84         73.9641
878.24         74.1091
878.64        73.80206
879.04        73.20001
879.44        72.55768
879.84        72.22228
880.24        72.26347
880.64        72.56939
881.04        72.97237
881.44        73.18816
881.84        73.12418
882.24        72.86293
882.65        72.50608
883.05        72.32653
883.45        72.35461
883.85        72.51684
884.25        72.70924
884.65          72.783
885.05        72.70792
885.45        72.53963
885.85        72.36588
886.25        72.33421
886.65        72.47312
887.05        72.71037
887.45         72.9556
887.85        73.07568
888.25        73.03458
888.65        72.88939
889.04        72.65038
889.44           72.38
889.84        72.09646
890.24        71.77604
890.64        71.50807
891.04        71.43833
891.44        71.57669
891.84         71.8887
892.24        72.19174
892.64        72.18467
893.04        71.82455
893.44        71.22315
893.83         70.6245
894.23        70.35802
894.63        70.53137
895.03        71.01185
895.43        71.64634
895.83        72.17737
896.23        72.50554
896.63        72.71222
897.02        72.78454
897.42        72.74452
897.82        72.61115
898.22        72.37433
898.62        72.15075
899.01        72.16058
899.41        72.42426
899.81        72.89499
900.21        73.41457
900.61        73.70701
901.00        73.68896
901.40        73.45961
901.80        73.12798
902.20        72.88744
902.59        72.80741
902.99        72.80745
903.39        72.86886
903.79        72.94589
904.18        73.01756
904.58        73.13688
904.98         73.2608
905.38        73.32169
905.77        73.30727
906.17        73.22013
906.57        73.16548
906.96        73.35415
907.36        73.78648
907.76        74.40996
908.15        75.01323
908.55        75.16877
908.95        74.82352
909.34        74.09338
909.74        73.29147
910.14        72.85072
910.53        72.89046
910.93        73.26351
911.33        73.79128
911.72        74.15665
912.12        74.23969
912.52        74.17448
912.91        74.01451
913.31        73.86353
913.70        73.75342
914.10        73.60894
914.49        73.51682
914.89        73.58564
915.29          73.835
915.68        74.22468
916.08        74.57041
916.47        74.56781
916.87        74.18689
917.26        73.52152
917.66        72.79102
918.05        72.30523
918.45        72.14527
918.84        72.24237
919.24        72.47626
919.64        72.72396
920.03        72.94172
920.42        73.16807
920.82        73.37404
921.21        73.50354
921.61          73.532
922.00        73.44235
922.40        73.33357
922.79        73.47353
923.19        73.86149
923.58        74.46579
923.98        74.97941
924.37          74.987
924.77        74.41669
925.16        73.39021
925.55        72.29796
925.95        71.81607
926.34        72.11563
926.74        72.96537
927.13        73.99626
927.52        74.51342
927.92        74.36884
928.31        73.78683
928.70        73.05273
929.10        72.58817
929.49        72.52377
929.89         72.6806
930.28        73.03598
930.67        73.44003
931.07        73.79467
931.46        74.17213
931.85        74.46263
932.24        74.52167
932.64        74.33424
933.03        73.92492
933.42        73.43871
933.82        73.12525
934.21        73.05602
934.60         73.1829
934.99        73.38496
935.39        73.42509
935.78        73.27061
936.17         72.9782
936.56        72.67666
936.96        72.56606
937.35        72.74654
937.74        73.11996
938.13        73.52707
938.53        73.75002
938.92        73.74464
939.31         73.5493
939.70        73.32542
940.09        73.34912
940.49        73.64936
940.88        74.16426
941.27        74.64244
941.66        74.71305
942.05        74.31889
942.44        73.60085
942.84        72.84264
943.23        72.44536
943.62        72.55577
944.01        73.05303
944.40        73.73865
944.79        74.25316
945.18        74.44467
945.57        74.38382
945.97        74.15271
946.36        73.95177
946.75        73.80584
947.14        73.67212
947.53        73.45412
947.92        73.01277
948.31        72.35596
948.70        71.57173
949.09        70.88673
949.48        70.62323
949.87        70.83043
950.26        71.40234
950.65        72.07442
951.04        72.42293
951.43        72.33254
951.82         71.9057
952.21        71.34357
952.60         71.0187
952.99        71.03915
953.38        71.27394
953.77        71.56239
954.16        71.65868
954.55        71.50336
954.94        71.20373
955.33        70.82999
955.72        70.49343
956.11        70.22968
956.50        69.96023
956.89        69.73673
957.28        69.64961
957.66        69.73335
958.05        70.00471
958.44        70.23637
958.83        70.04339
959.22        69.38619
959.61        68.35758
960.00         67.4359
960.39        67.38412
960.78        68.33006
961.16         70.0732
961.55        71.90546
961.94        72.68545
962.33        72.10777
962.72        70.55746
963.11        68.73527
963.49        67.67809
963.88        67.65406
964.27        68.37595
964.66        69.44872
965.04        70.18167
965.43        70.24968
965.82        69.92514
966.21        69.51007
966.60        69.44937
966.98        69.86357
967.37        70.55611
967.76        71.28234
968.15         71.5978
968.53         71.3801
968.92        70.79687
969.31        70.13298
969.69        69.78445
970.08        69.86368
970.47        70.27996
970.86        70.93312
971.24        71.65796
971.63        72.28493
972.02        72.83532
972.40        73.36429
972.79          73.818
973.17        74.27464
973.56        74.66515
973.95        74.90527
974.33         74.8254
974.72        74.38832
975.11        73.63058
975.49        72.78275
975.88        72.26033
976.26        72.19207
976.65        72.50796
977.04        72.89787
977.42        72.79317
977.81        72.00292
978.19        70.64837
978.58        69.31388
978.96        68.95976
979.35        69.78587
979.74        71.52235
980.12        73.42789
980.51        74.09619
980.89        73.30386
981.28        71.33781
981.66         69.0201
982.05         67.8973
982.43        68.43163
982.82        70.12166
983.20        72.20827
983.59         73.3576
983.97        73.32467
984.35        72.46051
984.74        71.27961
985.12        70.66403
985.51         70.8734
985.89        71.57956
986.28        72.43373
986.66        73.05404
987.04        73.28841
987.43        73.26822
987.81        73.08159
988.20        72.76305
988.58        72.41254
988.96        72.00476
989.35        71.49477
989.73        70.91273
990.12        70.23211
990.50        69.43352
990.88         68.7206
991.27        68.52705
991.65        68.94704
992.03        69.83602
992.42        70.63451
992.80        70.91763
993.18        70.48699
993.56        69.41436
993.95        68.05624
994.33        67.19948
994.71        67.35778
995.10        68.18181
995.48        69.21532
995.86        69.86567
996.24        70.07578
996.63        69.94513
997.01        69.87447
997.39        70.52913
997.77        72.00781
998.15        73.96051
998.54        75.57621
998.92        75.83115
999.30        74.58279
999.68        72.15449
1000.06        69.32758
1000.45        67.57419
1000.83        67.48279
1001.21        68.56812
1001.59         70.1889
1001.97        71.36513
1002.35        71.82289
1002.73        71.92648
1003.12        71.70314
1003.50        71.09353
1003.88        70.27472
1004.26        69.14806
1004.64        68.23853
1005.02        68.26307
1005.40        69.23932
1005.78        71.05662
1006.16        72.87531
1006.54        73.13245
1006.92        71.46279
1007.30        68.33277
1007.69        65.02489
1008.07        63.60047
1008.45        64.65038
1008.83        67.47381
1009.21        70.82607
1009.59        72.94068
1009.97         73.3423
1010.35         72.4241
1010.73        70.75877
1011.11        69.80036
1011.49        70.24827
1011.86        71.64153
1012.24        73.12035
1012.62        73.83049
1013.00        73.59518
1013.38        72.81233
1013.76        71.81969
1014.14        71.10177
1014.52        70.84073
1014.90        70.83072
1015.28        71.01747
1015.66        71.32309
1016.04        71.65371
1016.41        72.16068
1016.79        72.45346
1017.17        72.30005
1017.55        71.69917
1017.93        70.77058
1018.31        69.88744
1018.69        69.62299
1019.06        70.21308
1019.44        71.63953
1019.82        73.60425
1020.20        75.36974
1020.58        76.47662
1020.95        76.79853
1021.33        76.84249
1021.71        77.35549
1022.09        78.37898
1022.46        79.65331
1022.84        80.34094
1023.22         78.7562
1023.60        74.38771
1023.97         67.3445
1024.35        59.12355
1024.73        53.23341
