SpectraSmart Spectrum 2.9.0.0
--------- Device Information -----------
Spectrum Name :  反射率_0
Saving Time :  2024/04/27 22:30:36
Spectro-Module Model Name : SE2030-DUVN
Spectro-Module Serial Number : OS361AC55029948
Wavelength Start : 200
Wavelength End : 1025
Wavelength Unit : Wavelength(nm)
Spectrum Unit : Reflectance(%)
-----------Spectrum Setting ------------
Integration Time : 20ms
Average : 10
Boxcar : 0
Background removal :  enabled
linearity correction :  enabled
SC :  disabled
Intensity correction :  disabled
DWT denoise :  enabled
savitzky-golay :  disabled
FFT :  disabled
Running average :  disabled
Kalman :  disabled
High pass :  disabled
---------------BEGIN--------------------
Wavelength(nm)             Reflectance(%)
200.29               0
200.75       -64.83583
201.21       -39.60633
201.67       -12.45913
202.13        6.911722
202.58         21.1011
203.04        33.64214
203.50         43.8191
203.96        48.51649
204.42        48.17971
204.88        45.27465
205.34        41.71043
205.80        39.12541
206.26        37.40964
206.72        34.96321
207.18         33.0837
207.64        36.50842
208.10        44.63853
208.55        53.67713
209.01         57.6912
209.47        55.35746
209.93        45.33525
210.39        16.32608
210.85       -73.12186
211.31       -179.2411
211.77       -47.76415
212.23        37.19973
212.69        66.21834
213.14           73.13
213.60        68.56491
214.06        54.11361
214.52        26.74194
214.98           3.837
215.44        8.086967
215.90        23.62252
216.36         38.0132
216.81        47.60801
217.27        53.74139
217.73         59.3156
218.19        63.39734
218.65        63.35033
219.11        58.79178
219.57        50.01626
220.02        39.85122
220.48        37.06586
220.94        43.69882
221.40        55.29163
221.86        67.54758
222.32        76.52488
222.77        81.77564
223.23        84.93207
223.69        85.84293
224.15        84.05786
224.61        80.00499
225.06        73.68056
225.52        67.55746
225.98        66.19064
226.44        69.66946
226.90        75.13527
227.36        79.86361
227.81        81.76721
228.27          81.209
228.73        78.98009
229.19        75.74458
229.65        72.96418
230.10        71.29824
230.56        70.51979
231.02        70.34814
231.48        70.50482
231.93        70.72355
232.39        71.27026
232.85        71.85683
233.31        72.12266
233.77        72.01624
234.22        71.63325
234.68        71.08961
235.14        70.59995
235.60        70.21835
236.05        69.88335
236.51         69.6267
236.97        69.53499
237.43        69.64937
237.88        70.13567
238.34        70.60247
238.80        71.07245
239.26        71.54024
239.71        72.03712
240.17        72.42537
240.63        72.64058
241.08        72.59087
241.54        72.16399
242.00         71.3069
242.46         69.4383
242.91        65.85347
243.37        58.40211
243.83        43.29855
244.28        23.04547
244.74        18.90658
245.20        34.06169
245.66        48.42302
246.11         51.9785
246.57        46.09342
247.03         31.2064
247.48         7.34212
247.94       -8.002025
248.40        2.355557
248.85        26.82509
249.31        51.50257
249.77        66.11636
250.22        71.38425
250.68        72.25311
251.14        71.08369
251.59        69.45545
252.05        67.81777
252.51        64.88584
252.96        61.24747
253.42        61.40628
253.88        66.03945
254.33         72.3153
254.79        76.51279
255.25        75.98001
255.70        72.04867
256.16         67.3216
256.62        63.70708
257.07        63.28478
257.53        65.66216
257.99        68.71433
258.44         71.1891
258.90        72.55798
259.35        72.55978
259.81        72.17583
260.27        71.28782
260.72        69.77763
261.18        68.25792
261.63        66.55249
262.09        65.26812
262.55        64.63143
263.00        64.47045
263.46        64.73636
263.91        65.01128
264.37        65.13541
264.83         64.9463
265.28         64.5113
265.74        63.94625
266.19        63.11003
266.65         62.1376
267.11        61.00802
267.56         59.8606
268.02        59.04465
268.47        58.56804
268.93        58.35677
269.38        58.23757
269.84        57.96909
270.30        57.45934
270.75        56.76822
271.21        55.93594
271.66        54.96769
272.12        53.93086
272.57        52.79176
273.03         51.6723
273.48        50.66505
273.94        49.86261
274.39        49.18767
274.85        48.64597
275.31        48.11483
275.76        47.52977
276.22        46.96294
276.67        46.34929
277.13        45.74247
277.58        45.08182
278.04        44.42019
278.49        43.70561
278.95        43.02191
279.40        42.31332
279.86        41.64342
280.31        40.96371
280.77        40.35356
281.22        39.77116
281.68        39.27998
282.13        38.80456
282.59        38.32323
283.04         37.7928
283.50        37.23544
283.95        36.70391
284.41        36.34567
284.86        36.14557
285.32          36.087
285.77        35.99538
286.22         35.6721
286.68        35.11642
287.13        34.37106
287.59         33.6491
288.04        33.18403
288.50         33.0559
288.95        33.13686
289.41        33.29686
289.86        33.28102
290.32        33.05695
290.77        32.69516
291.22        32.30054
291.68        32.01701
292.13        31.87602
292.59        31.84983
293.04        31.89869
293.50        31.99836
293.95        32.12307
294.40        32.29527
294.86        32.52477
295.31        32.81025
295.77          33.152
296.22        33.52071
296.68        33.90084
297.13        34.24683
297.58        34.55646
298.04        34.85029
298.49        35.13008
298.95        35.41999
299.40        35.72436
299.85        36.03505
300.31        36.40382
300.76         36.8697
301.21        37.43143
301.67        38.06771
302.12        38.65186
302.58        39.04821
303.03        39.21402
303.48        39.20678
303.94        39.16854
304.39        39.26133
304.84        39.53875
305.30        39.95565
305.75        40.36928
306.20        40.60857
306.66        40.65356
307.11        40.53533
307.57        40.40168
308.02        40.40621
308.47         40.5954
308.93        40.90644
309.38        41.19474
309.83        41.27967
310.29        41.13548
310.74        40.81265
311.19        40.43468
311.65        40.19074
312.10        40.11212
312.55        40.14593
313.00        40.21019
313.46        40.18056
313.91        40.01715
314.36        39.76731
314.82        39.47228
315.27        39.19088
315.72        38.94859
316.18        38.73433
316.63        38.52968
317.08        38.33147
317.53        38.13735
317.99        37.95015
318.44        37.78323
318.89        37.63754
319.35        37.51019
319.80        37.39628
320.25        37.27942
320.70        37.14169
321.16        36.97009
321.61        36.77502
322.06        36.56105
322.51        36.34175
322.97        36.11803
323.42        35.90136
323.87        35.68042
324.32        35.44563
324.78        35.19328
325.23        34.93585
325.68        34.68942
326.13        34.48624
326.59        34.31894
327.04        34.20024
327.49        34.08503
327.94        33.90936
328.39        33.65894
328.85        33.34617
329.30        33.02808
329.75          32.784
330.20        32.64198
330.66        32.56692
331.11        32.54038
331.56        32.47733
332.01        32.35248
332.46        32.18631
332.92        31.99267
333.37        31.83409
333.82        31.71361
334.27        31.60543
334.72        31.50006
335.17        31.38451
335.63        31.24666
336.08        31.12366
336.53        30.98046
336.98        30.76966
337.43        30.49549
337.88        30.17332
338.34        29.89481
338.79        29.81569
339.24        29.95932
339.69         30.2737
340.14         30.6232
340.59        30.78589
341.05        30.70498
341.50        30.45186
341.95         30.1276
342.40        29.90637
342.85        29.83887
343.30        29.86519
343.75        29.93865
344.20        29.98615
344.66        29.98145
345.11        29.95088
345.56        29.88808
346.01        29.77419
346.46        29.61394
346.91        29.40842
347.36        29.20179
347.81        29.06416
348.26         29.0117
348.72        29.03379
349.17        29.07917
349.62        29.06236
350.07        28.96217
350.52         28.7945
350.97        28.63098
351.42        28.58611
351.87        28.67675
352.32        28.86453
352.77        29.03616
353.22        29.02265
353.67        28.79455
354.13        28.41708
354.58         28.0006
355.03        27.77367
355.48         27.7879
355.93        27.97751
356.38        28.19867
356.83        28.22633
357.28        28.01175
357.73        27.63096
358.18        27.21637
358.63        26.97124
359.08        26.93982
359.53        27.04774
359.98        27.18478
360.43        27.18306
360.88        26.99927
361.33         26.6886
361.78        26.32049
362.23        26.03796
362.68        25.88606
363.13        25.75991
363.58        25.60183
364.03        25.66583
364.48        25.38037
364.93         25.2137
365.38        25.03435
365.83        24.90419
366.28        24.82668
366.73        24.78411
367.18         24.7409
367.63        24.62953
368.08        24.43819
368.53        24.19093
368.98        23.92548
369.43         23.7017
369.88        23.53829
370.33        23.41739
370.78        23.32014
371.23         23.2166
371.68        23.09174
372.13        22.95083
372.58        22.79824
373.03        22.63792
373.48        22.47798
373.93        22.33031
374.38        22.18404
374.83        22.02176
375.28        21.84734
375.72        21.65317
376.17        21.51762
376.62        21.52202
377.07        21.66247
377.52        21.88972
377.97        22.09592
378.42        22.11483
378.87        21.91629
379.32        21.56865
379.77        21.15378
380.22        20.79482
380.67        20.53524
381.11        20.34079
381.56        20.21997
382.01        20.18459
382.46        20.22079
382.91        20.32367
383.36         20.4253
383.81        20.41516
384.26        20.27176
384.71        20.02475
385.15        19.73196
385.60        19.52232
386.05        19.42174
386.50        19.40421
386.95         19.4364
387.40        19.46355
387.85        19.46805
388.29        19.45154
388.74        19.45336
389.19         19.4858
389.64        19.54179
390.09        19.59327
390.54        19.61205
390.98        19.55504
391.43        19.42995
391.88        19.26932
392.33        19.07547
392.78        18.88045
393.23        18.70961
393.67        18.47507
394.12        18.25698
394.57        18.38237
395.02        18.52725
395.47        18.63067
395.91        18.58122
396.36        18.56693
396.81        18.58577
397.26        18.51765
397.71        18.38583
398.15        18.29666
398.60        18.28243
399.05        18.23878
399.50        18.19063
399.95        18.29187
400.39        18.48077
400.84         18.4825
401.29        18.29823
401.74         18.1125
402.18        17.98446
402.63        17.94657
403.08        17.97779
403.53         17.9437
403.97         17.8409
404.42        17.77954
404.87        17.76597
405.32        17.77146
405.76        17.79103
406.21          17.785
406.66        17.76275
407.11        17.82547
407.55        17.92439
408.00        17.86954
408.45        17.67342
408.90        17.42331
409.34         17.2176
409.79        17.26902
410.24        17.51477
410.68        17.62644
411.13        17.57175
411.58         17.5467
412.03        17.57402
412.47        17.59758
412.92         17.6121
413.37        17.63751
413.81        17.65277
414.26        17.64146
414.71        17.59822
415.15        17.53084
415.60        17.46291
416.05        17.44347
416.49        17.48539
416.94        17.57027
417.39        17.66335
417.83        17.71252
418.28        17.69854
418.73        17.62766
419.17        17.53537
419.62        17.48343
420.07        17.49281
420.51        17.55359
420.96        17.61271
421.41        17.60881
421.85        17.52901
422.30        17.32009
422.74        17.08886
423.19        17.20553
423.64         17.6053
424.08        17.80348
424.53        17.70733
424.98        17.67519
425.42        17.71509
425.87         17.4961
426.31        17.12921
426.76        17.15545
427.21        17.49436
427.65        17.50912
428.10        17.23513
428.54        17.16801
428.99        17.31359
429.44        17.56597
429.88        17.78435
430.33        17.53443
430.77        17.00125
431.22        16.94362
431.66        17.34326
432.11        17.62966
432.56        17.70554
433.00        17.73179
433.45        17.56436
433.89        17.13589
434.34        16.79821
434.78        15.98087
435.23        16.70542
435.67         17.3365
436.12        17.63396
436.57        17.79009
437.01        17.66325
437.46        17.58179
437.90        17.64151
438.35        17.73953
438.79          17.346
439.24        17.21821
439.68        17.22512
440.13        17.30278
440.57        17.38788
441.02         17.5344
441.46        17.67441
441.91        17.43476
442.35        17.00151
442.80        17.17665
443.24        17.81464
443.69        17.89168
444.13        17.41459
444.58         17.2276
445.02        17.33366
445.47         17.2875
445.91        17.09831
446.36        17.01866
446.80        17.05618
447.24        17.12908
447.69        17.22398
448.13        17.36546
448.58        17.51515
449.02        17.58127
449.47        17.57022
449.91         17.5719
450.36        17.59552
450.80        17.58164
451.25        17.53708
451.69        17.50217
452.13        17.47713
452.58        17.43649
453.02        17.38858
453.47        17.35449
453.91        17.33424
454.36        17.35228
454.80        17.36292
455.24        17.27244
455.69        17.11654
456.13        16.94199
456.58        16.81834
457.02        16.91135
457.46        17.13244
457.91        17.15823
458.35        17.05498
458.79        17.03557
459.24        17.12119
459.68        17.15631
460.13          17.153
460.57        17.10382
461.01        17.08973
461.46        17.12371
461.90         17.1104
462.34        17.08954
462.79        17.32031
463.23        17.33523
463.68        17.23984
464.12        17.16189
464.56        17.13021
465.01        17.18272
465.45        17.22832
465.89        17.12311
466.34        16.92388
466.78        16.73331
467.22        16.57918
467.67        16.85595
468.11        16.81919
468.55        16.87492
468.99        16.81621
469.44        16.84265
469.88        16.94785
470.32        17.00241
470.77        17.00293
471.21        16.99974
471.65         16.9993
472.10        16.99506
472.54         16.9763
472.98        16.95264
473.42        16.93329
473.87        16.87124
474.31        16.80565
474.75        16.95182
475.20        17.25122
475.64        17.36476
476.08        17.27384
476.52        17.28665
476.97        17.41949
477.41        17.33027
477.85         17.2051
478.29        17.31088
478.74        17.22144
479.18        17.12993
479.62        17.45285
480.06         17.5221
480.50        17.51255
480.95        17.43055
481.39        17.29683
481.83        17.51428
482.27        17.56858
482.72        17.58626
483.16         17.9146
483.60        17.99762
484.04        17.95086
484.48        17.88461
484.93        18.01567
485.37        17.88053
485.81        18.19199
486.25        18.85092
486.69        18.39411
487.14        17.77736
487.58        18.88971
488.02         18.6476
488.46        18.81071
488.90         19.1547
489.34        18.55033
489.79        18.39061
490.23        18.97241
490.67        19.34112
491.11        19.58629
491.55         19.5545
491.99        19.34755
492.43        19.35385
492.88        19.59913
493.32        19.80595
493.76         19.9274
494.20        20.07831
494.64        20.26543
495.08        20.39595
495.52        20.47867
495.96        20.71148
496.41        21.06923
496.85        21.00058
497.29        20.66073
497.73        20.85078
498.17        21.48192
498.61        21.83173
499.05        21.79186
499.49         21.7371
499.93        21.73582
500.37        21.72419
500.82        21.72635
501.26        21.83469
501.70        22.07057
502.14        21.95683
502.58        22.26631
503.02        22.39873
503.46        22.48441
503.90        22.56002
504.34        22.61021
504.78        22.68162
505.22        22.76761
505.66        22.81367
506.10        22.84212
506.54        22.95286
506.98        23.15479
507.42        23.30618
507.86        23.54222
508.30        23.64071
508.74        23.64121
509.18        23.56337
509.62         23.4607
510.06        23.41706
510.50        23.45569
510.94        23.55426
511.38        23.68121
511.82        23.78517
512.26        23.84828
512.70        23.88692
513.14        23.91393
513.58        23.93873
514.02        23.96578
514.46        24.00593
514.90        24.05547
515.34        24.02683
515.78        24.05756
516.22        24.03956
516.66        24.03066
517.10        24.05131
517.54        24.10508
517.98        24.18305
518.42        24.25573
518.86        24.27936
519.30         24.2455
519.74        24.16925
520.18        24.08446
520.62        24.04362
521.06        24.06019
521.50        24.11926
521.93        24.19466
522.37        24.23501
522.81        24.22799
523.25        24.18245
523.69        24.12059
524.13        24.07788
524.57        24.06023
525.01        24.05517
525.45         24.0327
525.89        23.94623
526.32        23.78888
526.76        23.59246
527.20        23.39673
527.64          23.266
528.08        23.21648
528.52        23.22418
528.96        23.26705
529.40        23.30963
529.83        23.33375
530.27         23.3499
530.71        23.34168
531.15        23.28553
531.59        23.18215
532.03        23.03767
532.46        22.88478
532.90        22.79159
533.34        22.76966
533.78        22.80391
534.22        22.86025
534.66          22.883
535.09        22.85766
535.53        22.80729
535.97        22.75328
536.41        22.73387
536.85        22.75728
537.28        22.80601
537.72        22.86578
538.16        22.91197
538.60        22.93784
539.04         22.9607
539.47        22.97201
539.91        22.97091
540.35        22.95723
540.79        22.93837
541.22         22.9375
541.66        22.99356
542.10        23.11095
542.54        23.27604
542.97        23.45556
543.41        23.61113
543.85        23.72656
544.29         23.8136
544.72         23.8839
545.16        23.97419
545.60         24.0874
546.04        24.21459
546.47        24.34944
546.91        24.47813
547.35        24.59545
547.79        24.71847
548.22        24.84686
548.66        24.97184
549.10        25.10953
549.53          25.347
549.97        25.65519
550.41        25.89812
550.84        26.05831
551.28        26.20805
551.72        26.35847
552.15        26.49662
552.59        26.63555
553.03        26.76824
553.46        26.90103
553.90        27.06661
554.34        27.26043
554.77        27.48066
555.21        27.69328
555.65        27.84318
556.08        27.89204
556.52        27.92323
556.96        27.94745
557.39        28.02238
557.83        28.13741
558.27        28.16175
558.70        28.12173
559.14        28.16304
559.57        28.28619
560.01         28.4517
560.45        28.61013
560.88        28.66953
561.32        28.67823
561.75        28.72638
562.19        28.83662
562.63        29.02814
563.06        29.23357
563.50          29.226
563.93        29.05514
564.37        29.05817
564.80        29.24393
565.24        29.44472
565.68        29.62225
566.11        29.78062
566.55        29.91392
566.98        30.04119
567.42        30.16733
567.85        30.21661
568.29        30.24643
568.72        30.34416
569.16        30.52036
569.60        30.71456
570.03        30.93448
570.47        30.97894
570.90        31.22763
571.34        31.45586
571.77        31.67284
572.21        31.57889
572.64        31.86144
573.08        31.84519
573.51        32.09999
573.95        32.35983
574.38        32.63443
574.82        32.45347
575.25        32.52526
575.69         32.3836
576.12        32.44514
576.56        32.95585
576.99        32.74619
577.42        32.86856
577.86        32.98881
578.29        33.13743
578.73        32.83841
579.16        32.76604
579.60         32.7185
580.03        32.63482
580.47        32.52295
580.90        32.41402
581.33        32.51513
581.77        32.50699
582.20        32.03041
582.64          31.711
583.07        31.71625
583.51        31.67635
583.94        31.73649
584.37        31.65225
584.81        31.40983
585.24        31.16796
585.68        31.07077
586.11        30.67766
586.54        30.87141
586.98        30.79667
587.41        30.93942
587.85        30.62621
588.28        30.58512
588.71        30.49668
589.15        30.71421
589.58        30.45184
590.01        30.69707
590.45        30.74341
590.88        30.13568
591.31        30.07041
591.75        30.32068
592.18        30.48372
592.61        30.51844
593.05        30.68761
593.48        30.89868
593.91        30.44677
594.35        30.62752
594.78        30.91589
595.21        31.11332
595.65        31.16213
596.08         30.9294
596.51        31.39013
596.94        31.46699
597.38        31.83925
597.81        32.20701
598.24        32.16281
598.68        32.75804
599.11        33.01523
599.54        33.19706
599.97        33.39199
600.41        34.06094
600.84        34.44648
601.27        34.66916
601.70        34.98703
602.14        35.09652
602.57        35.77978
603.00         36.4511
603.43        36.82139
603.87        37.04233
604.30        37.20555
604.73        37.85239
605.16        38.57319
605.60        38.89693
606.03        39.45115
606.46        40.11102
606.89        40.58088
607.32        41.02541
607.76        41.28397
608.19        41.71497
608.62        42.07512
609.05         42.5028
609.48        42.71665
609.92          42.695
610.35        43.42294
610.78        43.74286
611.21        43.74279
611.64        44.47818
612.07        44.72066
612.50        44.90032
612.94        45.20669
613.37         45.7136
613.80        45.89952
614.23        46.41327
614.66        46.68005
615.09         46.9268
615.52        47.16334
615.96        47.39095
616.39        47.74469
616.82        48.02769
617.25        48.15069
617.68        48.68063
618.11        48.84312
618.54        48.90854
618.97        49.24041
619.40        49.77227
619.84        50.23568
620.27          50.241
620.70        50.28865
621.13        50.30239
621.56        50.55626
621.99        50.37262
622.42        50.73205
622.85        50.61297
623.28        50.84501
623.71        50.96803
624.14         50.8791
624.57         51.1526
625.00         50.9516
625.43        50.93946
625.86        50.85233
626.29        50.85701
626.72        50.63411
627.15        50.50677
627.58        50.39305
628.01        50.43146
628.44        49.89775
628.87        49.52865
629.30        49.63461
629.73        49.11916
630.16        48.49514
630.59        48.33163
631.02        48.03011
631.45        47.81705
631.88        47.50666
632.31        47.09346
632.74        46.67413
633.17         46.2114
633.60        45.76072
634.03        45.31198
634.46        44.87346
634.89        44.43124
635.32        43.93698
635.75        43.40126
636.18        42.90828
636.61        42.46198
637.04        41.97421
637.47        41.46944
637.89        41.08321
638.32        40.78494
638.75        40.44949
639.18        40.06908
639.61        39.71683
640.04        39.38211
640.47         39.0251
640.90        38.65065
641.33        38.26033
641.76        37.88678
642.18        37.67721
642.61        37.49763
643.04        37.44657
643.47        37.45552
643.90        37.48401
644.33         37.5112
644.76        37.54665
645.18        37.58747
645.61        37.62206
646.04         37.6556
646.47        37.69307
646.90        37.75446
647.33        37.87033
647.75        38.05225
648.18        38.30613
648.61         38.6242
649.04        38.97124
649.47        39.34634
649.89        39.78786
650.32        40.28168
650.75        40.77911
651.18        41.27388
651.61        41.77936
652.03        42.26656
652.46        42.73835
652.89        43.27682
653.32        43.70592
653.74         44.2613
654.17        45.23381
654.60        45.58192
655.03        45.95346
655.46        46.69988
655.88        47.64681
656.31        48.69421
656.74        49.81325
657.16        49.51144
657.59        49.91891
658.02        49.67085
658.45        50.10601
658.87         51.2087
659.30        51.81231
659.73        51.90155
660.15        52.10463
660.58        52.41276
661.01        52.87436
661.44         53.4288
661.86        53.77861
662.29        53.93584
662.72        54.11622
663.14        54.39561
663.57        54.81005
664.00        55.29331
664.42        55.59484
664.85        55.70555
665.27        55.82964
665.70        55.95441
666.13        56.14698
666.55        56.41051
666.98        56.74413
667.41        57.11765
667.83        57.46788
668.26        57.76023
668.69        58.01725
669.11        58.23911
669.54        58.40541
669.96        58.52474
670.39        58.63488
670.82        58.76265
671.24        58.84429
671.67        58.93469
672.09         59.2567
672.52        59.73886
672.94        59.99207
673.37        60.02742
673.80        60.13004
674.22        60.33123
674.65        60.46748
675.07        60.55811
675.50        60.65729
675.92        60.78969
676.35        60.96061
676.77         61.1762
677.20        61.42992
677.62        61.68405
678.05        61.86462
678.47        61.95565
678.90        61.98228
679.32         61.9962
679.75        62.09473
680.17        62.29853
680.60         62.5881
681.02        62.88457
681.45        63.06868
681.87        63.13123
682.30        63.01744
682.72        62.85479
683.15        63.05074
683.57        63.55509
684.00        63.78198
684.42        63.73438
684.85         63.8792
685.27        64.20367
685.70        64.44009
686.12        64.55334
686.54        64.62026
686.97        64.65193
687.39        64.68681
687.82        64.73487
688.24        64.70216
688.66         64.9273
689.09        64.81593
689.51        65.10093
689.94         65.2416
690.36        65.42215
690.78        65.62682
691.21        65.81541
691.63        65.90579
692.06        65.88773
692.48        65.79586
692.90        65.69315
693.33        65.66975
693.75        65.75497
694.17        65.92745
694.60          66.145
695.02        66.36264
695.44        66.54723
695.87        66.70486
696.29        66.84328
696.71        67.00153
697.14        67.15664
697.56          67.254
697.98        67.29713
698.41        67.40238
698.83        67.55976
699.25        67.73633
699.68         67.8956
700.10        68.05016
700.52        68.18034
700.94        68.28839
701.37        68.36098
701.79        68.41497
702.21        68.43814
702.64        68.44263
703.06        68.44495
703.48        68.49264
703.90        68.60086
704.33        68.75315
704.75        68.92749
705.17        69.06002
705.59        69.12878
706.01        69.13922
706.44        69.14909
706.86        69.27229
707.28        69.30803
707.70        69.66454
708.12        70.02602
708.55        69.84465
708.97        70.02668
709.39        70.00577
709.81        70.09212
710.23        70.15216
710.66        70.19923
711.08        70.32072
711.50        70.45711
711.92        70.51953
712.34          70.499
712.76        70.42799
713.19        70.35491
713.61        70.40575
714.03        70.58227
714.45        70.84332
714.87        71.12717
715.29        71.34213
715.71        71.46278
716.13        71.51695
716.56        71.51247
716.98        71.54247
717.40        71.60458
717.82        71.67793
718.24        71.76238
718.66        71.86179
719.08        71.96862
719.50        72.07959
719.92        72.17522
720.34        72.21936
720.76        72.20541
721.19        72.14361
721.61        72.06733
722.03        71.97002
722.45        71.86066
722.87        71.79604
723.29        71.82346
723.71        71.71751
724.13        71.95395
724.55        72.14883
724.97        72.39539
725.39        72.55148
725.81         72.5853
726.23        72.60807
726.65        72.69913
727.07        72.51354
727.49        72.85318
727.91        73.05151
728.33        73.27467
728.75        73.39121
729.17         73.3794
729.59        73.27628
730.01        73.12603
730.43        73.02299
730.85        72.99261
731.27        72.99781
731.69        73.04628
732.10        73.15324
732.52        73.29372
732.94        73.52002
733.36         73.7692
733.78        73.81385
734.20        73.61782
734.62        73.75112
735.04        73.14938
735.46        73.39933
735.88        74.01651
736.30        73.98991
736.72        73.41186
737.13        73.48743
737.55        74.14038
737.97        74.36018
738.39        74.10846
738.81        73.92569
739.23        73.88747
739.65        73.95924
740.06        74.08709
740.48        74.16355
740.90        74.14923
741.32        74.25242
741.74          74.361
742.16        74.48576
742.57        74.58978
742.99         74.6902
743.41        74.77816
743.83        74.81902
744.25        74.81169
744.67        74.75187
745.08        74.71038
745.50         74.7633
745.92        74.93919
746.34        75.21162
746.75        75.47408
747.17        75.56805
747.59        75.46806
748.01        75.16947
748.42        74.81683
748.84        74.77142
749.26        75.02208
749.68        75.20058
750.09        75.24673
750.51        75.32941
750.93        75.43418
751.35        75.49873
751.76        75.53078
752.18        75.53641
752.60        75.52764
753.01        75.52217
753.43        75.52732
753.85          75.581
754.27        75.68815
754.68        75.84711
755.10        76.00652
755.52        76.08222
755.93        76.06462
756.35        75.96185
756.77        75.78625
757.18         75.7977
757.60        76.06927
758.02        76.10795
758.43        75.74371
758.85        76.95747
759.26        76.09125
759.68        76.20844
760.10        76.36367
760.51         75.9435
760.93        76.15518
761.34        76.48878
761.76        76.76897
762.18         76.9215
762.59        76.87312
763.01        77.00028
763.42        77.29593
763.84        77.34608
764.26        77.18327
764.67        76.91309
765.09        76.71691
765.50        76.87493
765.92        77.29279
766.33        77.45686
766.75        77.25182
767.16         76.9423
767.58        76.62556
768.00         76.6023
768.41        76.89967
768.83         77.1398
769.24        77.24873
769.66        77.41221
770.07        77.57243
770.49         77.5637
770.90        77.48127
771.32        77.48087
771.73        77.56749
772.15        77.57465
772.56        77.52912
772.97         77.4303
773.39        77.33063
773.80        77.60662
774.22        78.11514
774.63        78.25842
775.05        78.01405
775.46        77.99023
775.88        78.17953
776.29        78.25884
776.70        78.20786
777.12        78.18822
777.53        78.23127
777.95        78.27094
778.36        78.32968
778.77        78.41842
779.19        78.53751
779.60        78.70325
780.02        78.87101
780.43        79.00018
780.84        79.05459
781.26        79.01397
781.67        79.00777
782.09        79.11295
782.50         79.1777
782.91        79.90897
783.33        79.21835
783.74        79.22749
784.15        79.32133
784.57        79.20974
784.98        78.97984
785.39        79.11627
785.81        79.57427
786.22        79.83745
786.63        79.84167
787.04        79.90417
787.46        80.01382
787.87        79.91114
788.28        79.69778
788.70        79.68559
789.11        79.69595
789.52        79.99858
789.93        80.38858
790.35        80.18652
790.76        79.54523
791.17        79.51021
791.58        80.07285
792.00        80.20344
792.41        79.85027
792.82         80.1141
793.23        80.10693
793.65        80.10367
794.06        79.93379
794.47        80.18966
794.88        80.76249
795.29        80.81242
795.71        80.80877
796.12        80.69391
796.53        80.65407
796.94        80.51744
797.35        80.35423
797.76        80.44051
798.18        80.72971
798.59        80.88031
799.00         80.8672
799.41        80.86756
799.82        80.89027
800.23        80.88131
800.64        80.84703
801.06        80.77237
801.47        80.72499
801.88        80.73407
802.29        80.80656
802.70        80.92747
803.11        81.05267
803.52         81.1068
803.93          81.076
804.34        80.98452
804.75        80.87605
805.17        80.83811
805.58        80.93114
805.99        81.02737
806.40        81.11459
806.81        81.35487
807.22        81.62631
807.63        81.53004
808.04        81.15525
808.45        81.01665
808.86         81.1718
809.27        81.33836
809.68        81.44575
810.09        81.51975
810.50        81.54479
810.91        81.45467
811.32        81.30332
811.73        81.37639
812.14        81.62035
812.55        81.53625
812.96          81.195
813.37        81.23728
813.78        81.64022
814.19        81.84725
814.60          81.807
815.01        81.79689
815.42        81.81564
815.83        81.71067
816.24        81.53204
816.65        81.46212
817.05        81.54485
817.46        81.68742
817.87        81.88513
818.28        82.07288
818.69        82.22688
819.10        82.37294
819.51        82.48983
819.92        82.53317
820.33        82.49914
820.74         82.3933
821.14        82.26958
821.55        82.25269
821.96        82.34834
822.37        82.53452
822.78        82.74628
823.19        82.85794
823.60        82.83517
824.00        82.74336
824.41        82.59476
824.82        82.51312
825.23        82.52883
825.64        82.60096
826.04        82.73936
826.45         82.9137
826.86        83.11419
827.27        83.34937
827.68        83.54585
828.08        83.61275
828.49        83.46251
828.90        83.16133
829.31        82.83178
829.72        82.68706
830.12        82.80592
830.53        83.08046
830.94        83.40572
831.35        83.55981
831.75        83.50191
832.16        83.24054
832.57        82.89727
832.97        82.64567
833.38        82.53778
833.79        82.53261
834.20        82.57465
834.60        82.57378
835.01        82.52299
835.42        82.45187
835.82        82.41837
836.23        82.42697
836.64        82.50901
837.04        82.65248
837.45        82.78542
837.86        82.90282
838.26        83.00628
838.67        83.09782
839.08        83.15535
839.48        83.12278
839.89        83.00445
840.29        82.81812
840.70        82.68859
841.11        82.81786
841.51        83.25462
841.92        83.89724
842.33        84.57033
842.73        84.97344
843.14        84.96642
843.54        84.65434
843.95        84.21137
844.35        83.95601
844.76        83.96258
845.17        84.15143
845.57        84.37434
845.98        84.33992
846.38        84.01173
846.79        83.46492
847.19        82.89804
847.60        82.56142
848.00        82.55647
848.41        82.76994
848.81        83.08945
849.22        83.24852
849.62        83.21508
850.03        83.04185
850.43        82.85938
850.84        82.78419
851.24        82.91229
851.65        83.12594
852.05        83.44442
852.46        83.75261
852.86        83.99071
853.27        84.20384
853.67        84.28778
854.07         84.3018
854.48        84.20676
854.88        84.03121
855.29         83.7205
855.69        83.43073
856.10        83.11024
856.50        82.84859
856.90         82.5948
857.31        82.29001
857.71        81.98261
858.12        81.64468
858.52        81.39809
858.92        81.29871
859.33        81.33975
859.73        81.54266
860.13        81.78965
860.54        81.90269
860.94        81.86905
861.34        81.68406
861.75        81.42831
862.15        81.30112
862.55        81.31688
862.96        81.43665
863.36        81.54251
863.76        81.42186
864.17        81.03301
864.57        80.47173
864.97        79.92148
865.38        79.64581
865.78        79.75372
866.18        80.13786
866.58        80.60358
866.99        80.81487
867.39        80.70355
867.79        80.34377
868.19        79.89371
868.60        79.54515
869.00        79.35042
869.40        79.28226
869.80        79.30382
870.21        79.36037
870.61        79.50155
871.01        79.67808
871.41         79.8884
871.81        80.13036
872.22         80.3623
872.62        80.59414
873.02        80.78632
873.42        80.86423
873.82         80.8137
874.22        80.68463
874.63        80.52631
875.03        80.36774
875.43         80.2371
875.83        80.10224
876.23        80.03056
876.63        80.13013
877.03        80.39912
877.44        80.80309
877.84        81.14906
878.24        81.07726
878.64        80.54582
879.04        79.69887
879.44        78.85117
879.84        78.44451
880.24        78.55782
880.64        79.05836
881.04        79.71913
881.44        80.13995
881.84        80.18816
882.24        79.97237
882.65        79.61617
883.05        79.44392
883.45        79.49941
883.85        79.68139
884.25        79.89246
884.65        80.00136
885.05        79.97634
885.45        79.87749
885.85        79.76022
886.25        79.70674
886.65        79.74633
887.05        79.84674
887.45        79.96937
887.85        80.06343
888.25        80.10502
888.65        80.09868
889.04        80.05824
889.44        80.04243
889.84         80.0472
890.24        80.06432
890.64        80.04453
891.04        79.91628
891.44        79.67912
891.84        79.36777
892.24        79.08163
892.64        78.96761
893.04        79.06129
893.44        79.33143
893.83        79.69135
894.23        79.93103
894.63        80.01937
895.03        79.98304
895.43        79.93281
895.83        80.05167
896.23        80.36494
896.63        80.80336
897.02        81.18416
897.42         81.2909
897.82        81.07652
898.22        80.63277
898.62        80.15591
899.01         79.9816
899.41        80.17609
899.81        80.65414
900.21        81.23889
900.61        81.63523
901.00        81.74062
901.40        81.65015
901.80        81.47157
902.20        81.38992
902.59        81.46589
902.99        81.61784
903.39        81.77508
903.79        81.81535
904.18         81.7144
904.58        81.55711
904.98        81.40796
905.38        81.36377
905.77        81.42984
906.17        81.55119
906.57        81.70872
906.96        81.89733
907.36        82.06308
907.76        82.24859
908.15        82.34061
908.55        82.07292
908.95        81.46268
909.34        80.56873
909.74        79.74627
910.14        79.48713
910.53        79.89296
910.93         80.8088
911.33        81.85844
911.72        82.38757
912.12        82.21529
912.52        81.56856
912.91        80.78918
913.31        80.40824
913.70        80.53649
914.10        81.00682
914.49        81.63203
914.89        82.00251
915.29        82.00623
915.68        81.75941
916.08        81.44494
916.47        81.33748
916.87        81.51517
917.26        81.85053
917.66        82.17971
918.05        82.22402
918.45        81.91512
918.84        81.37803
919.24        80.75892
919.64        80.37801
920.03        80.34425
920.42        80.57065
920.82        80.90286
921.21        81.08475
921.61        81.03451
922.00        80.83571
922.40        80.65122
922.79        80.84649
923.19        81.43858
923.58        82.32154
923.98        83.15056
924.37        83.47874
924.77        83.20727
925.16        82.46244
925.55        81.57738
925.95        81.12572
926.34        81.27911
926.74        81.85824
927.13        82.59042
927.52        82.93043
927.92        82.77913
928.31        82.31286
928.70        81.80347
929.10        81.64661
929.49        81.93594
929.89        82.47329
930.28        83.14532
930.67        83.62883
931.07        83.78239
931.46          83.738
931.85        83.48468
932.24        83.03781
932.64        82.46122
933.03        81.77937
933.42        81.15758
933.82         80.8632
934.21        80.95834
934.60        81.36874
934.99        81.96453
935.39        82.47937
935.78        82.84741
936.17        83.11343
936.56        83.24616
936.96         83.2038
937.35         83.0564
937.74        82.77417
938.13        82.49069
938.53         82.4175
938.92        82.58421
939.31         82.9255
939.70        83.30413
940.09        83.46085
940.49        83.29358
940.88        82.92562
941.27        82.43621
941.66        81.94963
942.05        81.53229
942.44        81.18093
942.84        80.93778
943.23         80.8183
943.62        80.84909
944.01        81.01594
944.40        81.32306
944.79         81.7542
945.18        82.25246
945.57        82.77023
945.97        83.14391
946.36        83.22508
946.75        82.96196
947.14        82.39355
947.53         81.6902
947.92        81.15946
948.31        80.92292
948.70        80.95839
949.09        81.11495
949.48        81.12987
949.87         80.9544
950.26        80.66286
950.65        80.47639
951.04        80.74715
951.43        81.51306
951.82        82.61753
952.21        83.70698
952.60        84.18625
952.99         83.8918
953.38        83.02383
953.77        81.89252
954.16        80.97336
954.55        80.41913
954.94        80.10322
955.33        79.95744
955.72         79.8632
956.11        79.76186
956.50        79.71853
956.89        79.69789
957.28        79.59863
957.66        79.44481
958.05        79.25114
958.44        79.08105
958.83        79.05036
959.22        79.17639
959.61        79.35867
960.00        79.66286
960.39        80.20095
960.78        80.93819
961.16        81.88165
961.55        82.60163
961.94        82.48367
962.33        81.45523
962.72        79.79664
963.11        78.11605
963.49         77.3053
963.88        77.56089
964.27        78.61625
964.66        80.10608
965.04        81.34985
965.43        81.96276
965.82        82.17461
966.21        82.06523
966.60         81.7817
966.98        81.41686
967.37        80.82572
967.76        80.16413
968.15        79.74454
968.53        79.68835
968.92        79.98678
969.31        80.40623
969.69        80.51427
970.08        80.21957
970.47        79.64706
970.86        79.15006
971.24        79.36069
971.63        80.30183
972.02        81.68629
972.40        83.08725
972.79        83.82495
973.17        83.84741
973.56        83.28861
973.95        82.40251
974.33        81.61301
974.72         81.0776
975.11        80.67344
975.49        80.33611
975.88        79.97484
976.26        79.58132
976.65        79.24394
977.04        78.93825
977.42        78.55792
977.81        78.05019
978.19         77.4101
978.58        76.96604
978.96        77.25066
979.35        78.30965
979.74        79.99392
980.12        81.78144
980.51        82.62003
980.89        82.38413
981.28        81.22585
981.66        79.76944
982.05         79.1815
982.43        79.79635
982.82        81.20908
983.20        82.82709
983.59        83.56945
983.97        83.25845
984.35        82.16237
984.74         80.7132
985.12        79.67532
985.51        79.31519
985.89        79.43592
986.28        79.75273
986.66        79.91785
987.04        79.81161
987.43        79.53193
987.81        79.28514
988.20         79.3019
988.58        79.67883
988.96         80.2835
989.35        80.79257
989.73        80.83829
990.12        80.27137
990.50        79.14754
990.88        77.81806
991.27        77.12338
991.65        77.40108
992.03        78.43468
992.42        79.51606
992.80        79.99058
993.18        79.63704
993.56        78.56576
993.95        77.28571
994.33        76.93404
994.71        77.92278
995.10        79.63342
995.48        81.19688
995.86        81.67403
996.24        81.01129
996.63         79.4109
997.01        77.48293
997.39        76.49927
997.77        77.00646
998.15        78.58019
998.54        80.41644
998.92        81.42914
999.30        81.37582
999.68        80.60463
1000.06        79.54092
1000.45        78.92561
1000.83        79.08339
1001.21        79.62659
1001.59        80.30835
1001.97        80.79745
1002.35        80.99368
1002.73        81.12764
1003.12        81.01024
1003.50        80.17706
1003.88        78.73673
1004.26        76.88831
1004.64        75.44153
1005.02        75.40699
1005.40         76.8441
1005.78        79.49944
1006.16        82.41164
1006.54        83.81085
1006.92        83.13698
1007.30        80.78925
1007.69        77.93193
1008.07        76.46722
1008.45        76.99039
1008.83        78.95732
1009.21        81.14037
1009.59        81.73157
1009.97        80.25966
1010.35        77.02767
1010.73        73.20163
1011.11        71.68739
1011.49        73.71899
1011.86        78.39623
1012.24        83.42507
1012.62        85.98161
1013.00        85.56541
1013.38        83.11783
1013.76        79.93495
1014.14        78.17642
1014.52         78.5469
1014.90        80.33579
1015.28        82.93364
1015.66        85.10477
1016.04        86.21522
1016.41        86.81979
1016.79        86.64535
1017.17        85.61127
1017.55        83.88273
1017.93        81.46935
1018.31        79.15319
1018.69        78.22126
1019.06        79.03941
1019.44        81.46445
1019.82        84.63056
1020.20        86.52523
1020.58         86.3744
1020.95        84.63822
1021.33        82.53083
1021.71        81.61797
1022.09        82.10937
1022.46        83.44207
1022.84          84.756
1023.22        84.38305
1023.60        81.74808
1023.97        77.08093
1024.35        71.43903
1024.73        67.16755
