SpectraSmart Spectrum 2.9.0.0
--------- Device Information -----------
Spectrum Name :  反射率_0
Saving Time :  2024/04/27 22:43:30
Spectro-Module Model Name : SE2030-DUVN
Spectro-Module Serial Number : OS361AC55029948
Wavelength Start : 200
Wavelength End : 1025
Wavelength Unit : Wavelength(nm)
Spectrum Unit : Reflectance(%)
-----------Spectrum Setting ------------
Integration Time : 20ms
Average : 10
Boxcar : 0
Background removal :  enabled
linearity correction :  enabled
SC :  disabled
Intensity correction :  disabled
DWT denoise :  enabled
savitzky-golay :  disabled
FFT :  disabled
Running average :  disabled
Kalman :  disabled
High pass :  disabled
---------------BEGIN--------------------
Wavelength(nm)             Reflectance(%)
200.29               0
200.75       -65.25531
201.21       -33.85673
201.67       -4.378889
202.13        12.41128
202.58        21.01956
203.04        25.79388
203.50        30.15648
203.96        37.08964
204.42        45.52932
204.88        53.53988
205.34        58.82245
205.80        59.36398
206.26        54.63259
206.72        42.84882
207.18        23.03408
207.64        7.699893
208.10        9.455657
208.55        21.93526
209.01        30.64472
209.47         29.8515
209.93         17.7427
210.39       -18.61982
210.85       -129.7667
211.31       -253.4295
211.77         -82.911
212.23         21.7905
212.69         56.6641
213.14        65.06536
213.60        60.13965
214.06         43.4426
214.52        12.11967
214.98         -12.104
215.44        -3.95557
215.90         16.6878
216.36        34.03825
216.81        43.27526
217.27        46.53027
217.73        47.44638
218.19        46.34221
218.65        42.83495
219.11        37.17275
219.57        28.88907
220.02        19.60831
220.48        15.62689
220.94        18.56901
221.40        25.90857
221.86        34.51296
222.32        41.21347
222.77        45.53727
223.23        48.24125
223.69        49.30102
224.15        48.49271
224.61        46.03342
225.06        41.74563
225.52         37.0149
225.98        34.48678
226.44        34.61183
226.90         36.0103
227.36        37.12782
227.81        36.53712
228.27        34.14185
228.73        30.42955
229.19        25.80147
229.65        21.42974
230.10        18.13157
230.56        16.04752
231.02        15.10091
231.48        15.20645
231.93        16.05955
232.39         17.5018
232.85         19.3683
233.31        21.40557
233.77        23.42319
234.22        25.53542
234.68        27.04144
235.14        27.21826
235.60        26.02011
236.05        23.34971
236.51        20.59306
236.97        20.64492
237.43        24.45277
237.88        31.34259
238.34        38.31752
238.80        42.19876
239.26        42.21264
239.71        37.69275
240.17        29.08095
240.63        24.60503
241.08         31.1519
241.54        42.74422
242.00        51.57668
242.46        54.24952
242.91        51.23785
243.37        40.97967
243.83        18.57215
244.28       -8.624427
244.74       -6.268341
245.20        22.84491
245.66        47.44398
246.11        56.46922
246.57        53.81929
247.03        41.42416
247.48        17.86654
247.94       -4.564255
248.40       -8.421483
248.85        0.465764
249.31        15.07895
249.77        29.46014
250.22        40.95261
250.68        50.45081
251.14        56.86776
251.59        59.03994
252.05        57.53725
252.51        51.83151
252.96        42.26418
253.42         35.9006
253.88        36.86552
254.33        42.15038
254.79        47.05791
255.25        48.19904
255.70        46.41301
256.16        44.03088
256.62        42.36177
257.07        42.72985
257.53        44.83361
257.99         47.1641
258.44        48.97088
258.90        49.96753
259.35        49.96846
259.81         49.5975
260.27         48.7264
260.72         47.2201
261.18        45.55953
261.63         43.7225
262.09        42.13841
262.55        40.96428
263.00         40.1207
263.46        39.59644
263.91        39.20485
264.37        38.96367
264.83        38.75454
265.28        38.53775
265.74        38.27877
266.19         37.7842
266.65        37.09949
267.11        36.25768
267.56        35.31418
268.02        34.45667
268.47        33.70749
268.93        33.03328
269.38        32.45954
269.84         32.0377
270.30        31.74186
270.75        31.54787
271.21        31.30676
271.66        30.74872
272.12        29.86104
272.57        28.71101
273.03        27.52957
273.48        26.60736
273.94        26.06095
274.39        25.76235
274.85        25.60622
275.31        25.38264
275.76        25.01441
276.22         24.5739
276.67        24.08406
277.13        23.64432
277.58        23.23652
278.04        22.87211
278.49        22.45134
278.95        21.92505
279.40        21.26684
279.86        20.57187
280.31        19.94074
280.77        19.60562
281.22        19.55789
281.68        19.73988
282.13        19.97931
282.59        20.06309
283.04        19.94324
283.50        19.69156
283.95        19.41963
284.41        19.32176
284.86        19.42132
285.32        19.65719
285.77        19.90248
286.22        20.00313
286.68        19.94795
287.13        19.77047
287.59        19.59584
288.04        19.54401
288.50        19.66453
288.95        19.88433
289.41        20.13395
289.86        20.27444
290.32        20.29605
290.77        20.24712
291.22        20.20042
291.68        20.25786
292.13        20.43954
292.59        20.71961
293.04        21.06904
293.50        21.46447
293.95        21.88341
294.40        22.34899
294.86        22.84314
295.31        23.32809
295.77        23.80773
296.22        24.27188
296.68        24.77383
297.13        25.37817
297.58        26.09043
298.04        26.87512
298.49        27.65131
298.95        28.31244
299.40        28.83872
299.85        29.26688
300.31        29.68361
300.76         30.1866
301.21        30.80314
301.67        31.49407
302.12        32.16935
302.58        32.73582
303.03        33.15708
303.48        33.47883
303.94        33.77765
304.39         34.1202
304.84        34.53812
305.30        35.00631
305.75        35.45394
306.20        35.81543
306.66        36.08587
307.11        36.26116
307.57         36.4024
308.02        36.53722
308.47        36.68815
308.93        36.83615
309.38        36.93298
309.83        36.93498
310.29        36.84719
310.74        36.68409
311.19        36.48434
311.65        36.30148
312.10        36.13971
312.55        35.99392
313.00        35.87505
313.46        35.79834
313.91        35.75305
314.36        35.73627
314.82        35.69692
315.27        35.54979
315.72        35.28009
316.18        34.91551
316.63        34.51484
317.08          34.196
317.53        33.98615
317.99        33.85165
318.44        33.73398
318.89        33.52034
319.35        33.18809
319.80        32.78071
320.25        32.36457
320.70        32.04863
321.16        31.85145
321.61        31.73806
322.06        31.65053
322.51        31.50075
322.97        31.25528
323.42        30.95306
323.87        30.60324
324.32        30.23098
324.78        29.84877
325.23        29.45052
325.68        29.06242
326.13        28.73588
326.59        28.46874
327.04        28.27662
327.49        28.09197
327.94        27.80613
328.39        27.39332
328.85        26.87307
329.30        26.33738
329.75        25.94111
330.20        25.73161
330.66        25.66051
331.11        25.64281
331.56        25.48743
332.01        25.14712
332.46        24.67672
332.92        24.18073
333.37        23.86669
333.82        23.78417
334.27        23.86066
334.72        23.99998
335.17        24.04672
335.63        23.93894
336.08         23.7394
336.53        23.46006
336.98        23.13259
337.43        22.78847
337.88        22.42254
338.34        22.08773
338.79        21.87647
339.24        21.80609
339.69        21.85217
340.14        21.95338
340.59        22.00051
341.05        21.95601
341.50        21.85091
341.95        21.69001
342.40        21.49552
342.85        21.28158
343.30        21.03405
343.75        20.78891
344.20        20.60839
344.66        20.50681
345.11        20.47254
345.56        20.44752
346.01        20.33005
346.46        20.10304
346.91        19.79939
347.36        19.49903
347.81        19.32276
348.26        19.29613
348.72        19.38257
349.17        19.50135
349.62        19.52264
350.07        19.41271
350.52         19.2031
350.97        18.98064
351.42        18.88447
351.87        18.93974
352.32        19.09735
352.77        19.24588
353.22        19.21957
353.67        18.98835
354.13        18.62329
354.58         18.2193
355.03         17.9757
355.48         17.9449
355.93         18.0738
356.38        18.25364
356.83        18.31503
357.28        18.21511
357.73         18.0026
358.18        17.77347
358.63        17.67577
359.08        17.73463
359.53        17.89169
359.98        18.04122
360.43        18.02246
360.88        17.80595
361.33        17.45327
361.78        17.05591
362.23        16.79749
362.68        16.73079
363.13        16.72577
363.58        16.71416
364.03        16.97081
364.48          16.842
364.93        16.84599
365.38        16.79436
365.83         16.6941
366.28        16.54583
366.73        16.35525
367.18        16.14823
367.63        15.95532
368.08        15.79283
368.53        15.66102
368.98        15.55871
369.43        15.47781
369.88        15.41318
370.33        15.36412
370.78        15.32414
371.23         15.2842
371.68         15.2338
372.13         15.1628
372.58        15.06565
373.03        14.93641
373.48        14.78084
373.93        14.61893
374.38        14.44781
374.83        14.25882
375.28         14.0639
375.72        13.86154
376.17        13.73135
376.62        13.75798
377.07        13.93782
377.52        14.21733
377.97        14.49458
378.42        14.61235
378.87        14.53394
379.32        14.31778
379.77        14.01754
380.22        13.71612
380.67        13.45198
381.11        13.20555
381.56         13.0158
382.01        12.94441
382.46        12.99347
382.91        13.14504
383.36        13.31629
383.81         13.3723
384.26        13.28175
384.71        13.07994
385.15        12.82626
385.60        12.64866
386.05        12.57394
386.50         12.5746
386.95        12.61616
387.40        12.64282
387.85        12.64237
388.29        12.62941
388.74        12.64412
389.19        12.71357
389.64        12.83458
390.09        12.97439
390.54        13.10295
390.98        13.17519
391.43        13.17884
391.88        13.13257
392.33        13.02525
392.78        12.86252
393.23        12.66653
393.67        12.39325
394.12        12.11706
394.57         12.0754
395.02        12.06427
395.47        12.04564
395.91        11.96434
396.36        11.96269
396.81        12.03828
397.26        12.10009
397.71        12.13439
398.15        12.17005
398.60         12.2148
399.05        12.20556
399.50        12.16505
399.95        12.20744
400.39        12.29745
400.84        12.25127
401.29         12.0765
401.74        11.90694
402.18        11.78733
402.63        11.74132
403.08        11.76027
403.53         11.7608
403.97        11.73869
404.42        11.76235
404.87        11.81952
405.32        11.86634
405.76        11.89245
406.21        11.87281
406.66        11.83103
407.11        11.86338
407.55        11.94348
408.00        11.93889
408.45        11.83296
408.90        11.64224
409.34        11.42843
409.79        11.35175
410.24        11.40409
410.68        11.42395
411.13        11.40191
411.58        11.44638
412.03        11.54329
412.47        11.60504
412.92        11.61008
413.37        11.58994
413.81        11.54399
414.26        11.48055
414.71        11.40342
415.15        11.30721
415.60         11.2186
416.05        11.18784
416.49        11.22531
416.94        11.31627
417.39        11.41248
417.83        11.43772
418.28        11.37143
418.73        11.23135
419.17        11.07189
419.62        10.98587
420.07        10.99969
420.51        11.09019
420.96        11.19624
421.41        11.23737
421.85        11.19309
422.30        11.04141
422.74        10.86701
423.19        10.92933
423.64        11.19241
424.08         11.3428
424.53        11.30098
424.98        11.27058
425.42        11.25108
425.87        11.04338
426.31        10.74208
426.76        10.72943
427.21         10.9596
427.65         11.0213
428.10        10.90584
428.54        10.88377
428.99        10.95019
429.44        11.05529
429.88        11.12468
430.33        10.91488
430.77         10.5514
431.22        10.49399
431.66        10.73441
432.11        10.92427
432.56        11.00381
433.00        11.07382
433.45        11.02503
433.89        10.77298
434.34        10.53284
434.78        9.960462
435.23        10.34563
435.67        10.71082
436.12        10.91766
436.57        11.07066
437.01        11.05541
437.46         11.0307
437.90        11.04829
438.35        11.05834
438.79         10.7473
439.24        10.61606
439.68        10.59028
440.13        10.62282
440.57        10.67255
441.02        10.76859
441.46        10.86612
441.91        10.73444
442.35        10.48224
442.80        10.59376
443.24        10.97833
443.69        11.00696
444.13        10.68692
444.58        10.54415
445.02        10.57935
445.47        10.51858
445.91        10.37283
446.36        10.30752
446.80        10.32785
447.24        10.38725
447.69        10.45866
448.13         10.5313
448.58        10.57812
449.02        10.55364
449.47        10.49342
449.91        10.50359
450.36        10.59427
450.80         10.7082
451.25        10.80733
451.69        10.85303
452.13        10.82945
452.58         10.7425
453.02        10.62219
453.47        10.52216
453.91        10.45763
454.36        10.43274
454.80        10.42014
455.24        10.36499
455.69        10.28546
456.13        10.20983
456.58        10.16728
457.02        10.23576
457.46        10.35664
457.91        10.33694
458.35        10.23106
458.79        10.18576
459.24        10.21976
459.68        10.23706
460.13        10.23586
460.57        10.19529
461.01        10.16215
461.46        10.14689
461.90          10.112
462.34        10.10952
462.79        10.29541
463.23        10.38493
463.68         10.4042
464.12         10.3784
464.56        10.31599
465.01        10.26124
465.45        10.19512
465.89        10.08851
466.34        9.985068
466.78        9.923676
467.22        9.896972
467.67        10.09972
468.11        10.07295
468.55        10.07625
468.99        9.994994
469.44        9.961141
469.88        9.978399
470.32         9.96632
470.77        9.938816
471.21        9.950643
471.65        10.00742
472.10        10.09506
472.54        10.18075
472.98        10.22668
473.42        10.22817
473.87        10.17018
474.31        10.09263
474.75        10.15387
475.20        10.32722
475.64        10.40177
476.08        10.36228
476.52        10.38744
476.97        10.48553
477.41        10.45435
477.85        10.40266
478.29        10.48511
478.74        10.44236
479.18        10.39198
479.62        10.59198
480.06         10.6466
480.50        10.66282
480.95        10.63952
481.39        10.58545
481.83         10.7451
482.27        10.80412
482.72        10.84372
483.16        11.07557
483.60        11.15203
484.04        11.13596
484.48          11.109
484.93         11.2448
485.37        11.23067
485.81        11.43654
486.25        12.17303
486.69        11.58835
487.14        11.13267
487.58        12.27155
488.02        12.06215
488.46        12.16608
488.90        12.38242
489.34        11.89632
489.79        11.84214
490.23        12.31085
490.67        12.64941
491.11        12.87869
491.55          12.878
491.99        12.73422
492.43        12.77702
492.88        13.02988
493.32        13.25356
493.76        13.40739
494.20         13.5852
494.64        13.78871
495.08        13.94644
495.52        14.06742
495.96        14.28569
496.41        14.60415
496.85        14.62209
497.29        14.44039
497.73        14.60511
498.17        15.05674
498.61        15.29526
499.05          15.263
499.49        15.25285
499.93        15.31742
500.37        15.39925
500.82        15.49988
501.26        15.65552
501.70        15.87357
502.14        15.82137
502.58        16.05394
503.02        16.13748
503.46        16.17131
503.90        16.18172
504.34        16.18388
504.78        16.25448
505.22        16.39579
505.66        16.55683
506.10        16.71325
506.54        16.87209
506.98        17.02482
507.42         17.0855
507.86        17.19152
508.30        17.24344
508.74        17.28714
509.18        17.31763
509.62        17.34335
510.06        17.37634
510.50        17.41946
510.94        17.47198
511.38        17.53394
511.82        17.60374
512.26         17.6771
512.70        17.75279
513.14        17.82025
513.58        17.85539
514.02        17.85493
514.46        17.84068
514.90        17.82826
515.34        17.78046
515.78        17.80803
516.22        17.82232
516.66        17.85696
517.10        17.91307
517.54        17.98617
517.98        18.07055
518.42        18.14375
518.86        18.17318
519.30        18.15046
519.74        18.08344
520.18        17.99289
520.62        17.91212
521.06        17.85346
521.50        17.81389
521.93        17.78345
522.37        17.73655
522.81        17.67152
523.25         17.5931
523.69        17.52371
524.13         17.4967
524.57        17.51376
525.01        17.56149
525.45        17.59719
525.89        17.55494
526.32        17.42099
526.76        17.22488
527.20        17.01696
527.64        16.88057
528.08        16.83599
528.52        16.85593
528.96        16.90117
529.40        16.90924
529.83        16.86122
530.27         16.7781
530.71        16.67603
531.15        16.57914
531.59        16.49791
532.03        16.42452
532.46        16.35698
532.90         16.3063
533.34        16.26924
533.78        16.24499
534.22        16.23182
534.66        16.22402
535.09        16.21793
535.53        16.21866
535.97        16.21553
536.41        16.19486
536.85        16.15674
537.28         16.1052
537.72        16.06516
538.16        16.07399
538.60        16.13869
539.04        16.25169
539.47        16.37439
539.91         16.4577
540.35        16.48797
540.79        16.48424
541.22        16.48019
541.66        16.53072
542.10        16.64725
542.54        16.81075
542.97        16.98726
543.41        17.13522
543.85        17.24097
544.29        17.32047
544.72        17.39244
545.16         17.4998
545.60        17.64689
546.04        17.82099
546.47        18.00756
546.91        18.17878
547.35        18.32615
547.79        18.46754
548.22        18.60731
548.66        18.74897
549.10        18.90725
549.53         19.1445
549.97        19.43954
550.41        19.69148
550.84        19.88478
551.28        20.07285
551.72        20.25684
552.15         20.4148
552.59          20.554
553.03        20.67194
553.46        20.78145
553.90        20.91991
554.34        21.08922
554.77        21.28873
555.21         21.4879
555.65        21.63592
556.08        21.70179
556.52        21.75237
556.96        21.80643
557.39        21.92561
557.83        22.10182
558.27        22.22268
558.70        22.28719
559.14        22.37713
559.57        22.48516
560.01        22.59208
560.45        22.67469
560.88        22.68547
561.32        22.67259
561.75        22.70214
562.19        22.79146
562.63        22.95674
563.06        23.14226
563.50        23.16776
563.93         23.0673
564.37        23.10119
564.80        23.27682
565.24        23.46404
565.68        23.62958
566.11        23.78784
566.55        23.93891
566.98        24.05395
567.42        24.15517
567.85        24.31164
568.29        24.52182
568.72        24.61698
569.16        24.62487
569.60        24.79662
570.03        25.15753
570.47        25.25598
570.90         25.3473
571.34        25.98944
571.77        25.85953
572.21        25.91894
572.64        26.09693
573.08        26.11238
573.51        26.62938
573.95        26.81785
574.38        26.76776
574.82        27.04629
575.25        26.96966
575.69        26.88253
576.12        26.79207
576.56        27.19577
576.99        27.13085
577.42        27.18318
577.86        27.05777
578.29        27.37837
578.73        26.97395
579.16        26.98878
579.60        27.00918
580.03        26.96376
580.47        26.84288
580.90        26.59364
581.33        26.59953
581.77        26.57954
582.20        26.15631
582.64        25.90913
583.07        25.71566
583.51        25.65896
583.94        25.79112
584.37         25.7578
584.81        25.51657
585.24        25.28862
585.68        25.19001
586.11        24.89885
586.54         24.7613
586.98        24.79879
587.41        25.01595
587.85        24.48261
588.28        24.40998
588.71        24.51541
589.15        24.63707
589.58        24.22281
590.01        24.56536
590.45        24.62299
590.88        24.18192
591.31        24.12298
591.75        24.30261
592.18        24.34328
592.61        24.17108
593.05        24.73239
593.48        24.56013
593.91         24.2634
594.35        24.52086
594.78        24.83904
595.21        25.05872
595.65        25.23699
596.08        25.21416
596.51        25.55714
596.94        25.43225
597.38        25.70461
597.81        26.17601
598.24         26.1985
598.68        26.83211
599.11        27.23186
599.54        27.41871
599.97        27.67225
600.41        28.24271
600.84        28.64126
601.27        28.94056
601.70        29.39613
602.14        29.71309
602.57        30.35633
603.00        30.88001
603.43        31.36366
603.87          31.875
604.30        32.30739
604.73        32.67142
605.16        33.49408
605.60        33.79353
606.03         34.3476
606.46        34.84015
606.89        35.17366
607.32        35.77851
607.76        36.39571
608.19        36.69932
608.62        37.14826
609.05        37.65405
609.48        38.07957
609.92        38.36113
610.35        38.90219
610.78        39.18299
611.21        39.11613
611.64        39.69357
612.07         39.8909
612.50        40.05716
612.94        40.35034
613.37        40.82868
613.80        41.03152
614.23        41.63525
614.66         41.9443
615.09        42.18007
615.52        42.57885
615.96        43.11732
616.39        43.15244
616.82        43.47138
617.25        43.44328
617.68        43.72303
618.11        43.92564
618.54        44.21372
618.97        44.65036
619.40        45.10373
619.84        45.63913
620.27        45.71719
620.70        45.63185
621.13        45.30493
621.56        45.83651
621.99        46.08197
622.42        46.17936
622.85        45.92166
623.28        46.30157
623.71        46.25677
624.14        46.04427
624.57        46.15371
625.00        46.10159
625.43        45.86874
625.86        45.83939
626.29        45.96595
626.72         45.5978
627.15        45.55462
627.58        45.33044
628.01        45.25059
628.44        44.74003
628.87        44.43772
629.30        44.48665
629.73        43.91582
630.16        43.16622
630.59        43.06598
631.02        42.72967
631.45        42.42597
631.88        42.04585
632.31        41.60018
632.74        40.90777
633.17        40.42245
633.60        39.89759
634.03        39.46981
634.46         39.1085
634.89        38.75772
635.32        38.31064
635.75        37.74313
636.18        37.11771
636.61        36.48534
637.04        35.88144
637.47         35.3512
637.89        34.96921
638.32        34.67964
638.75        34.33945
639.18        33.93106
639.61        33.53185
640.04        33.15903
640.47        32.81781
640.90        32.51857
641.33        32.24438
641.76        31.99374
642.18        31.84665
642.61        31.67677
643.04        31.58098
643.47        31.52036
643.90        31.49107
644.33        31.48895
644.76        31.51739
645.18         31.5688
645.61        31.62693
646.04        31.69192
646.47        31.76645
646.90        31.88123
647.33        32.08094
647.75        32.38202
648.18        32.79092
648.61        33.25645
649.04        33.70694
649.47        34.13763
649.89        34.50954
650.32        34.90305
650.75        35.61605
651.18        36.57823
651.61        37.33055
652.03        37.80817
652.46        38.33648
652.89         39.0116
653.32        39.46645
653.74        39.96772
654.17        40.98894
654.60        41.58533
655.03        42.00237
655.46        42.83518
655.88        43.75229
656.31        44.88979
656.74        46.38787
657.16        46.81586
657.59        47.17714
658.02        46.66431
658.45        47.20889
658.87        48.08373
659.30        48.56514
659.73        48.61632
660.15        48.80964
660.58        49.57468
661.01        50.02542
661.44        50.30884
661.86        50.74677
662.29        51.29661
662.72        51.59555
663.14        51.69588
663.57        51.96468
664.00        52.39417
664.42        52.68139
664.85        52.83354
665.27         53.0329
665.70        53.29084
666.13        53.53762
666.55        53.77537
666.98        54.02481
667.41         54.2739
667.83         54.4916
668.26        54.66242
668.69        54.80357
669.11        54.93215
669.54        55.05133
669.96        55.17012
670.39        55.31915
670.82        55.51385
671.24        55.59987
671.67        55.78533
672.09        56.02746
672.52        56.33841
672.94        56.46463
673.37        56.43307
673.80        56.46681
674.22        56.58822
674.65        56.63919
675.07        56.64121
675.50        56.67639
675.92        56.75661
676.35         56.8452
676.77        56.94722
677.20        57.07532
677.62        57.22773
678.05        57.38231
678.47        57.53067
678.90        57.67984
679.32        57.82973
679.75        57.98394
680.17        58.13297
680.60        58.30903
681.02         58.4805
681.45        58.48877
681.87        58.37715
682.30        58.37284
682.72        58.48507
683.15        58.51646
683.57        58.48921
684.00        58.54528
684.42        58.69403
684.85        58.84601
685.27        58.98478
685.70        59.16994
686.12        59.34909
686.54        59.41536
686.97        59.38473
687.39        59.31555
687.82        59.38541
688.24        59.35461
688.66        59.54861
689.09         59.5346
689.51        59.61232
689.94        59.67427
690.36        59.77983
690.78        59.76788
691.21        59.68139
691.63        59.77886
692.06        60.01802
692.48        60.07567
692.90        59.96931
693.33         59.9631
693.75        60.06196
694.17         60.1263
694.60        60.15735
695.02        60.17948
695.44        60.19638
695.87        60.38646
696.29        60.68065
696.71        60.63736
697.14        60.34045
697.56        60.47045
697.98        60.94739
698.41        61.16575
698.83        61.08694
699.25        61.05999
699.68        61.10257
700.10        61.13816
700.52        61.16547
700.94        61.20679
701.37        61.23951
701.79           61.26
702.21        61.25079
702.64        61.23029
703.06        61.20097
703.48        61.18661
703.90        61.20205
704.33        61.23637
704.75        61.30282
705.17        61.40515
705.59         61.5347
706.01        61.65675
706.44        61.76838
706.86        61.95946
707.28        62.04456
707.70        62.21529
708.12         62.3755
708.55        62.31594
708.97        62.08794
709.39        62.02166
709.81        62.14445
710.23        62.22386
710.66        62.25616
711.08        62.41795
711.50        62.64117
711.92        62.75206
712.34        62.73116
712.76        62.62635
713.19        62.49902
713.61        62.49745
714.03        62.63403
714.45        62.85766
714.87        63.10019
715.29        63.26144
715.71        63.31241
716.13        63.28516
716.56        63.19418
716.98        63.13243
717.40        63.10699
717.82        63.10359
718.24        63.12119
718.66        63.16031
719.08        63.21527
719.50        63.28305
719.92        63.36241
720.34        63.44613
720.76         63.5274
721.19        63.60021
721.61        63.64864
722.03          63.621
722.45         63.5154
722.87        63.34928
723.29        63.19337
723.71        63.15253
724.13         63.2514
724.55        63.47948
724.97        63.76498
725.39        63.89944
725.81        63.98456
726.23        63.94194
726.65        63.87837
727.07         63.8988
727.49        64.02835
727.91        64.22577
728.33        64.42475
728.75        64.52244
729.17        64.49107
729.59        64.36858
730.01        64.20872
730.43        64.09951
730.85        64.06728
731.27        64.07723
731.69        64.11153
732.10        64.17148
732.52        64.18938
732.94        64.25959
733.36        64.36301
733.78        64.38528
734.20        64.30518
734.62        64.58637
735.04        64.23571
735.46        64.53453
735.88        65.03123
736.30          64.918
736.72        64.30119
737.13        64.16615
737.55        64.51487
737.97        64.71279
738.39         64.6974
738.81        64.62321
739.23        64.55083
739.65          64.713
740.06        65.00407
740.48        65.09175
740.90        64.92567
741.32        64.76901
741.74        64.62137
742.16        64.61223
742.57        64.74254
742.99        65.06256
743.41        65.43763
743.83        65.45147
744.25        65.15055
744.67        65.01614
745.08        65.11051
745.50        65.12229
745.92        65.07171
746.34        65.16097
746.75        65.34927
747.17        65.42656
747.59        65.36146
748.01        65.29287
748.42        65.24596
748.84        65.05153
749.26        64.80967
749.68        64.97079
750.09        65.41882
750.51        65.49853
750.93           65.23
751.35        65.18398
751.76        65.35708
752.18        65.36082
752.60        65.19498
753.01        65.06299
753.43        64.99594
753.85        64.98464
754.27        65.04141
754.68        65.21902
755.10        65.46427
755.52        65.57384
755.93        65.58546
756.35         65.7652
756.77        66.04641
757.18        66.26595
757.60        66.44144
758.02        66.37106
758.43        65.99609
758.85        66.76147
759.26        66.02713
759.68        65.95987
760.10        65.97531
760.51         65.1168
760.93        65.45293
761.34        65.78236
761.76        66.15813
762.18        66.29526
762.59        66.12369
763.01        66.05338
763.42        66.16783
763.84        66.30546
764.26        66.43662
764.67        66.39455
765.09        66.25828
765.50        66.28271
765.92        66.33833
766.33         66.4352
766.75        66.44946
767.16        66.17621
767.58        65.74359
768.00        65.96023
768.41        66.71948
768.83        67.02557
769.24        66.80273
769.66        66.56113
770.07        66.39096
770.49        66.35732
770.90        66.47242
771.32        66.55618
771.73        66.58005
772.15        66.60207
772.56        66.61777
772.97        66.62368
773.39        66.60588
773.80         66.5006
774.22          66.367
774.63        66.56615
775.05        66.99683
775.46        67.22948
775.88        67.18851
776.29        67.15385
776.70        67.15514
777.12        67.14607
777.53        67.15288
777.95        67.14977
778.36        67.17213
778.77        67.22314
779.19        67.29898
779.60        67.53029
780.02        67.78959
780.43        67.66005
780.84         67.2377
781.26        67.06477
781.67        67.26138
782.09        67.58592
782.50         67.7674
782.91        68.22335
783.33        67.26065
783.74        67.13322
784.15        67.35906
784.57        67.45084
784.98        67.39041
785.39        67.44577
785.81        67.62199
786.22        67.80563
786.63        67.94783
787.04        68.03461
787.46        68.05961
787.87        67.99737
788.28        67.91883
788.70        67.91908
789.11        67.99831
789.52        68.19228
789.93        68.41021
790.35        68.39525
790.76        68.18842
791.17        68.01977
791.58        67.96897
792.00        68.00539
792.41        68.11397
792.82        68.24684
793.23         68.3615
793.65        68.32386
794.06        68.24631
794.47        68.50541
794.88        68.94258
795.29        69.19668
795.71        68.89922
796.12        68.56964
796.53        68.24422
796.94        68.22308
797.35        68.49031
797.76        68.62251
798.18        68.57313
798.59        68.59493
799.00        68.67527
799.41        68.61433
799.82         68.4445
800.23        68.34605
800.64         68.3499
801.06        68.38598
801.47        68.45106
801.88         68.4931
802.29        68.49916
802.70         68.4181
803.11         68.3111
803.52        68.43312
803.93        68.74132
804.34        68.85104
804.75        68.74314
805.17         68.7752
805.58        68.99601
805.99        68.98526
806.40        68.81256
806.81        69.14756
807.22        69.77194
807.63        69.63609
808.04        68.86143
808.45        68.55592
808.86        68.81808
809.27        69.01765
809.68        69.06701
810.09         69.1091
810.50        69.11923
810.91        69.06527
811.32        68.98639
811.73        68.95879
812.14        69.00435
812.55        69.06578
812.96        69.13119
813.37        69.27703
813.78        69.44357
814.19        69.41191
814.60        69.23287
815.01        69.18361
815.42        69.28989
815.83        69.40168
816.24        69.49858
816.65        69.61683
817.05        69.74082
817.46        69.81496
817.87        69.85951
818.28        69.86018
818.69        69.82424
819.10        69.76532
819.51        69.68169
819.92        69.62024
820.33        69.60773
820.74        69.49467
821.14        69.33654
821.55        69.60303
821.96        70.12469
822.37        70.06705
822.78        69.49826
823.19        69.30966
823.60         69.5799
824.00        69.82201
824.41        69.88392
824.82         69.8514
825.23        69.70152
825.64        69.41787
826.04        69.15537
826.45        69.13203
826.86        69.40397
827.27        69.91541
827.68        70.47913
828.08        70.80674
828.49        70.75112
828.90        70.42612
829.31        70.02315
829.72        69.86787
830.12        70.06856
830.53        70.48685
830.94        70.94501
831.35        71.11559
831.75        70.93009
832.16        70.44637
832.57        69.87769
832.97        69.55321
833.38        69.56763
833.79        69.82575
834.20        70.16483
834.60        70.33892
835.01        70.30076
835.42        70.12328
835.82        69.93872
836.23        69.89435
836.64        70.05804
837.04        70.37589
837.45        70.70106
837.86         70.9004
838.26        70.94025
838.67        70.86057
839.08        70.72296
839.48        70.60973
839.89        70.55457
840.29        70.52145
840.70        70.52859
841.11        70.61089
841.51        70.77917
841.92         70.9966
842.33        71.19094
842.73        71.22868
843.14        71.04179
843.54        70.70434
843.95        70.33801
844.35        70.16171
844.76        70.22166
845.17        70.45419
845.57        70.76643
845.98        70.96416
846.38        71.00677
846.79         70.9229
847.19        70.76974
847.60        70.59452
848.00         70.4462
848.41        70.27427
848.81        70.11507
849.22        69.95972
849.62        69.84998
850.03        69.78589
850.43        69.77161
850.84        69.72201
851.24        69.66783
851.65         69.5621
852.05        69.53452
852.46        69.70927
852.86        70.07944
853.27         70.5899
853.67        70.99428
854.07         71.1358
854.48        70.95432
854.88        70.53922
855.29        69.96144
855.69        69.56789
856.10         69.3942
856.50        69.44251
856.90        69.57502
857.31        69.58884
857.71        69.47237
858.12        69.23652
858.52         69.0084
858.92        68.86338
859.33        68.81468
859.73        68.86194
860.13        68.91547
860.54        68.85231
860.94        68.67699
861.34        68.40337
861.75          68.105
862.15        67.95542
862.55        67.96309
862.96        68.09998
863.36        68.25816
863.76        68.24892
864.17        68.02672
864.57        67.66314
864.97        67.30647
865.38        67.17649
865.78        67.35937
866.18         67.7525
866.58        68.18018
866.99        68.34229
867.39        68.18412
867.79        67.79553
868.19        67.31424
868.60        66.90297
869.00        66.60868
869.40        66.39845
869.80        66.31145
870.21         66.4247
870.61        66.78877
871.01        67.31087
871.41        67.82217
871.81        68.07998
872.22        68.01908
872.62        67.72113
873.02        67.32587
873.42         67.1091
873.82          67.161
874.22        67.39292
874.63        67.71212
875.03        67.95901
875.43        68.09661
875.83         68.1836
876.23        68.22419
876.63        68.22086
877.03        68.17628
877.44        68.05071
877.84        67.90799
878.24        67.83985
878.64        67.85706
879.04        67.94807
879.44        68.00257
879.84        67.84589
880.24        67.46809
880.64        66.93851
881.04        66.42238
881.44        66.20685
881.84        66.36031
882.24        66.77029
882.65        67.26782
883.05        67.66029
883.45        67.82542
883.85        67.85284
884.25        67.73679
884.65        67.47109
885.05        67.09009
885.45        66.57551
885.85        66.12008
886.25        66.06368
886.65        66.46528
887.05        67.23383
887.45        68.03744
887.85        68.35896
888.25        68.08617
888.65         67.3488
889.04        66.47497
889.44        66.06831
889.84        66.26034
890.24         66.8747
890.64        67.56436
891.04         67.7802
891.44        67.40533
891.84        66.64603
892.24        65.82533
892.64        65.43381
893.04         65.6011
893.44        66.16515
893.83        66.91662
894.23        67.46342
894.63        67.70424
895.03        67.72944
895.43        67.66447
895.83        67.70786
896.23        67.90663
896.63        68.18116
897.02        68.39076
897.42        68.37774
897.82         68.1101
898.22        67.66586
898.62        67.21225
899.01        67.02357
899.41        67.15477
899.81        67.53917
900.21        68.00558
900.61        68.27161
901.00          68.241
901.40        67.99868
901.80        67.68237
902.20        67.52386
902.59        67.59323
902.99        67.81461
903.39         68.0451
903.79        68.04796
904.18        67.78236
904.58        67.34555
904.98        66.94211
905.38        66.86817
905.77        67.16126
906.17        67.73061
906.57        68.34718
906.96        68.64555
907.36        68.49881
907.76        68.02842
908.15        67.44791
908.55        67.04994
908.95        66.96723
909.34        67.09251
909.74        67.34078
910.14        67.51789
910.53         67.5696
910.93        67.54327
911.33        67.50074
911.72        67.53397
912.12        67.64272
912.52        67.79421
912.91        67.91022
913.31        67.91757
913.70        67.80376
914.10        67.58162
914.49        67.35871
914.89         67.2692
915.29        67.36878
915.68        67.61641
916.08        67.88865
916.47        67.98449
916.87        67.87479
917.26        67.59576
917.66        67.29849
918.05        67.18469
918.45        67.29024
918.84        67.58006
919.24        67.88135
919.64        67.98997
920.03        67.88211
920.42        67.63689
920.82          67.404
921.21        67.40697
921.61        67.67825
922.00        68.12302
922.40        68.66413
922.79        69.22998
923.19        69.71297
923.58        70.17885
923.98        70.43465
924.37        70.25372
924.77        69.61851
925.16        68.56989
925.55        67.49638
925.95        67.07379
926.34         67.4628
926.74        68.47941
927.13        69.65507
927.52        70.12548
927.92        69.72686
928.31        68.71249
928.70         67.5907
929.10        67.14299
929.49        67.55013
929.89        68.53027
930.28        69.71846
930.67         70.3679
931.07        70.22977
931.46        69.57148
931.85        68.67915
932.24         68.0192
932.64        67.74028
933.03        67.69684
933.42        67.77776
933.82        67.81674
934.21        67.75861
934.60        67.68461
934.99        67.64375
935.39        67.66962
935.78        67.79992
936.17        67.98846
936.56         68.1896
936.96        68.33332
937.35        68.43824
937.74        68.48618
938.13        68.50565
938.53        68.54275
938.92        68.61802
939.31        68.71925
939.70        68.81282
940.09        68.83827
940.49        68.75741
940.88        68.61873
941.27        68.48893
941.66        68.47158
942.05        68.58971
942.44        68.83488
942.84        69.10912
943.23        69.18814
943.62        69.04901
944.01        68.72359
944.40        68.39259
944.79        68.38129
945.18         68.7393
945.57        69.33014
945.97        69.84436
946.36        69.89746
946.75        69.38074
947.14        68.44391
947.53        67.32195
947.92        66.43387
948.31        65.95513
948.70        65.79241
949.09          65.866
949.48        66.03548
949.87        66.22876
950.26        66.48032
950.65        66.76463
951.04        67.02863
951.43        67.25113
951.82        67.41607
952.21         67.4845
952.60        67.42922
952.99        67.24788
953.38        66.93353
953.77        66.59129
954.16        66.37777
954.55          66.314
954.94        66.37692
955.33        66.39613
955.72        66.07632
956.11        65.37049
956.50        64.38342
956.89        63.38356
957.28        62.83687
957.66        62.90775
958.05        63.44964
958.44        64.22597
958.83        64.84202
959.22        65.15906
959.61          65.255
960.00        65.23889
960.39        65.29801
960.78         65.4707
961.16        65.69087
961.55        65.79528
961.94        65.63132
962.33        65.18172
962.72        64.57506
963.11        63.94568
963.49         63.4588
963.88        63.17327
964.27        63.04671
964.66        63.10687
965.04        63.41619
965.43        63.87376
965.82        64.47568
966.21        65.07519
966.60        65.47975
966.98        65.63608
967.37        65.51132
967.76         65.2123
968.15        64.94196
968.53        64.80358
968.92        64.81239
969.31        64.81551
969.69        64.54334
970.08        63.97473
970.47        63.21604
970.86        62.71086
971.24        63.20663
971.63        64.70529
972.02        66.85735
972.40        69.02983
972.79        70.23929
973.17        70.40112
973.56        69.71716
973.95        68.62226
974.33        67.86464
974.72        67.70742
975.11        67.92773
975.49        68.25349
975.88         68.2686
976.26        67.84613
976.65        67.15038
977.04        66.34025
977.42        65.63115
977.81        65.07121
978.19        64.55511
978.58        64.18749
978.96        64.07413
979.35        64.20096
979.74        64.60802
980.12        65.10289
980.51        65.13065
980.89        64.69669
981.28        63.83054
981.66        62.96791
982.05         62.9726
982.43        63.99251
982.82        65.67958
983.20        67.45164
983.59        68.25184
983.97        67.95023
984.35        66.84927
984.74        65.37844
985.12        64.29631
985.51        63.91716
985.89        64.04267
986.28        64.61465
986.66         65.6601
987.04        67.02192
987.43         68.6205
987.81        70.15826
988.20        70.98313
988.58        70.94964
988.96        70.23817
989.35        68.94563
989.73        67.33875
990.12        65.50478
990.50        63.27149
990.88        61.18546
991.27        60.48191
991.65        61.47546
992.03        63.83231
992.42         66.1651
992.80        67.01672
993.18        66.01669
993.56        63.38318
993.95        60.02921
994.33        58.26574
994.71        59.18974
995.10        61.68505
995.48        64.39662
995.86         65.8301
996.24        65.82432
996.63        64.77509
997.01        63.22676
997.39        62.30268
997.77        62.51765
998.15         63.5133
998.54        64.53287
998.92        64.58275
999.30        63.47354
999.68        61.55467
1000.06        59.63549
1000.45        59.11338
1000.83        60.41122
1001.21        62.94092
1001.59        65.75771
1001.97         67.5345
1002.35        67.96127
1002.73        67.44566
1003.12        66.33916
1003.50        65.29778
1003.88        64.74823
1004.26        64.35648
1004.64         64.2905
1005.02        64.79318
1005.40        65.81511
1005.78        67.45628
1006.16        68.97099
1006.54        68.94581
1006.92        67.11012
1007.30        63.84294
1007.69        60.57158
1008.07        59.61766
1008.45        61.53381
1008.83        65.46324
1009.21        69.80138
1009.59        72.27385
1009.97        72.25947
1010.35        70.19858
1010.73        66.77338
1011.11        63.95866
1011.49        62.91811
1011.86        63.27168
1012.24        64.18184
1012.62        64.64909
1013.00        64.42715
1013.38         64.0099
1013.76         63.7254
1014.14        64.00271
1014.52        64.98031
1014.90        66.38396
1015.28        68.07204
1015.66        69.79005
1016.04        71.28042
1016.41        72.63721
1016.79        73.39754
1017.17        73.32237
1017.55         72.4528
1017.93        70.89323
1018.31        69.24322
1018.69        68.42717
1019.06        68.73392
1019.44        70.09377
1019.82        71.84242
1020.20        72.55324
1020.58        71.72708
1020.95        69.68031
1021.33        67.51542
1021.71        66.60944
1022.09         67.0927
1022.46        68.55292
1022.84        69.85838
1023.22        68.81254
1023.60        64.68971
1023.97         57.5554
1024.35        49.34629
1024.73        44.39881
