SpectraSmart Spectrum 2.9.0.0
--------- Device Information -----------
Spectrum Name :  反射率_0
Saving Time :  2024/04/27 22:52:44
Spectro-Module Model Name : SE2030-DUVN
Spectro-Module Serial Number : OS361AC55029948
Wavelength Start : 200
Wavelength End : 1025
Wavelength Unit : Wavelength(nm)
Spectrum Unit : Reflectance(%)
-----------Spectrum Setting ------------
Integration Time : 20ms
Average : 10
Boxcar : 0
Background removal :  enabled
linearity correction :  enabled
SC :  disabled
Intensity correction :  disabled
DWT denoise :  enabled
savitzky-golay :  disabled
FFT :  disabled
Running average :  disabled
Kalman :  disabled
High pass :  disabled
---------------BEGIN--------------------
Wavelength(nm)             Reflectance(%)
200.29               0
200.75       -7.513454
201.21        22.90672
201.67         45.3642
202.13        53.25731
202.58        51.94254
203.04        46.20496
203.50        40.06002
203.96        38.96491
204.42        42.98903
204.88        48.93221
205.34        54.59691
205.80        58.64007
206.26        61.07383
206.72        62.48461
207.18        62.16207
207.64        58.18182
208.10         52.5537
208.55         49.2575
209.01        46.16788
209.47        41.02412
209.93          31.081
210.39        6.681792
210.85        -61.5016
211.31       -119.3372
211.77       -2.468848
212.23        59.65902
212.69        78.41106
213.14        81.76881
213.60        76.67019
214.06         63.0598
214.52        37.04173
214.98          12.508
215.44        11.56061
215.90        22.27178
216.36         33.8522
216.81        42.43624
217.27        48.49604
217.73         54.5946
218.19        58.59891
218.65        55.90127
219.11        45.38821
219.57        27.17267
220.02        5.841063
220.48       -4.274385
220.94        1.404879
221.40         16.8183
221.86         34.0451
222.32        45.14394
222.77        49.68005
223.23        50.74031
223.69        49.69557
224.15        47.64928
224.61        45.09802
225.06        41.22228
225.52        37.69446
225.98        37.44747
226.44         40.2457
226.90        44.24672
227.36        47.25539
227.81        47.43258
228.27        44.94247
228.73        40.40625
229.19        34.77591
229.65        30.31462
230.10        28.10026
230.56        27.88564
231.02        28.70068
231.48        29.24437
231.93        29.13232
232.39         28.7826
232.85        28.80969
233.31        30.04122
233.77        32.40377
234.22         35.4925
234.68        38.13353
235.14        38.96825
235.60         37.7779
236.05        34.69893
236.51        31.06084
236.97        29.81563
237.43        32.11858
237.88        37.36647
238.34        42.88844
238.80        45.76638
239.26        45.20511
239.71        40.65873
240.17        32.64764
240.63        29.01584
241.08         36.0238
241.54        47.57703
242.00        56.41162
242.46        59.78205
242.91        58.51644
243.37        51.85659
243.83        36.50031
244.28        17.70999
244.74        19.30498
245.20        39.16929
245.66        56.00642
246.11        62.27545
246.57        60.73005
247.03        53.20785
247.48        38.75185
247.94        24.62173
248.40        21.56565
248.85        25.75623
249.31        34.73369
249.77        46.41746
250.22        57.93254
250.68        68.57135
251.14        75.83888
251.59        77.44305
252.05        73.63133
252.51        63.51088
252.96        47.94656
253.42        37.90841
253.88        39.96048
254.33        48.89392
254.79        56.38691
255.25        56.73624
255.70         51.6622
256.16        45.09347
256.62        39.96925
257.07        39.28949
257.53        42.28635
257.99        46.23346
258.44        49.42636
258.90        50.83534
259.35        50.38977
259.81        49.14665
260.27        47.37946
260.72        45.38188
261.18        43.63625
261.63        41.93439
262.09        40.44931
262.55        39.07947
263.00        37.76358
263.46        36.61293
263.91        35.68488
264.37        35.30034
264.83        35.34964
265.28        35.64669
265.74        35.89982
266.19        35.60769
266.65        34.78633
267.11        33.59153
267.56        32.28534
268.02        31.36765
268.47        30.92417
268.93        30.80195
269.38        30.84472
269.84        30.82525
270.30        30.64447
270.75        30.36574
271.21          29.962
271.66        29.35122
272.12        28.56699
272.57        27.60787
273.03        26.62223
273.48         25.7822
273.94        25.18071
274.39        24.75014
274.85        24.44766
275.31        24.14373
275.76        23.78242
276.22        23.40573
276.67         23.0081
277.13        22.64856
277.58        22.29749
278.04        21.97422
278.49         21.5948
278.95        21.12808
279.40        20.54883
279.86        19.94165
280.31        19.37941
280.77        19.05567
281.22        18.96028
281.68        19.04891
282.13        19.19103
282.59        19.22874
283.04        19.11935
283.50        18.91251
283.95        18.67408
284.41        18.52839
284.86        18.48952
285.32        18.52352
285.77        18.55084
286.22        18.48152
286.68        18.31606
287.13        18.06849
287.59        17.83344
288.04        17.68612
288.50         17.6702
288.95         17.7402
289.41        17.84718
289.86        17.88484
290.32        17.84819
290.77         17.7663
291.22        17.71225
291.68        17.79175
292.13        18.01521
292.59        18.35031
293.04        18.72494
293.50        19.04691
293.95        19.28777
294.40        19.49493
294.86        19.71189
295.31        19.99986
295.77        20.38538
296.22        20.82866
296.68        21.33707
297.13        21.90121
297.58        22.50371
298.04        23.13133
298.49         23.7252
298.95        24.20403
299.40        24.55966
299.85        24.81984
300.31         25.0676
300.76        25.40056
301.21        25.85122
301.67        26.38675
302.12        26.93388
302.58          27.411
303.03        27.78371
303.48        28.08437
303.94        28.36903
304.39        28.68196
304.84         29.0447
305.30        29.43664
305.75        29.79584
306.20        30.06365
306.66        30.23927
307.11        30.32075
307.57        30.37343
308.02          30.439
308.47        30.54171
308.93        30.65989
309.38        30.74292
309.83        30.73302
310.29        30.63247
310.74        30.46252
311.19        30.26308
311.65         30.0925
312.10         29.9548
312.55        29.83503
313.00        29.74691
313.46        29.71217
313.91        29.71827
314.36         29.7603
314.82        29.76351
315.27        29.60333
315.72         29.2657
316.18        28.79979
316.63        28.30828
317.08        27.97572
317.53        27.84494
317.99        27.85827
318.44        27.93133
318.89        27.90855
319.35        27.74476
319.80        27.48904
320.25        27.19149
320.70         26.9377
321.16        26.74623
321.61        26.58655
322.06        26.43187
322.51        26.24812
322.97        26.02028
323.42        25.77826
323.87        25.51428
324.32        25.21791
324.78        24.89294
325.23        24.54492
325.68        24.21396
326.13        23.97123
326.59        23.82035
327.04        23.76413
327.49        23.72669
327.94        23.58823
328.39        23.31685
328.85        22.93453
329.30        22.52726
329.75        22.24609
330.20         22.1358
330.66        22.14804
331.11        22.19729
331.56        22.09847
332.01        21.80774
332.46         21.3801
332.92        20.92884
333.37        20.66844
333.82        20.65316
334.27        20.81315
334.72        21.03878
335.17        21.15134
335.63        21.08528
336.08        20.90492
336.53        20.64948
336.98        20.39609
337.43        20.18245
337.88        19.98747
338.34        19.82041
338.79        19.70018
339.24        19.63019
339.69        19.61362
340.14        19.63376
340.59        19.65492
341.05        19.66127
341.50        19.65758
341.95        19.63225
342.40        19.58124
342.85        19.50296
343.30        19.39191
343.75        19.26187
344.20        19.13675
344.66        19.03073
345.11         18.9471
345.56        18.86751
346.01        18.75814
346.46        18.61447
346.91        18.43958
347.36        18.29227
347.81        18.25882
348.26        18.34933
348.72         18.5435
349.17        18.72935
349.62        18.72724
350.07        18.50499
350.52        18.10795
350.97        17.70644
351.42        17.57494
351.87        17.76066
352.32        18.17124
352.77         18.5912
353.22         18.6903
353.67        18.40287
354.13        17.85344
354.58        17.22213
355.03        16.84689
355.48        16.81865
355.93        17.03658
356.38        17.34097
356.83        17.48475
357.28        17.40044
357.73        17.16596
358.18        16.89242
358.63         16.7475
359.08        16.76508
359.53        16.87514
359.98        16.97724
360.43        16.92321
360.88        16.68515
361.33        16.32572
361.78        15.92309
362.23        15.63697
362.68        15.51662
363.13        15.43834
363.58        15.35311
364.03        15.57307
364.48        15.44009
364.93        15.46977
365.38        15.45004
365.83        15.35569
366.28        15.17948
366.73         14.9378
367.18         14.6708
367.63        14.43281
368.08        14.24546
368.53        14.09719
368.98        13.98095
369.43        13.87983
369.88        13.78518
370.33        13.70471
370.78        13.62363
371.23        13.51691
371.68        13.37827
372.13         13.2074
372.58        13.03068
373.03        12.89365
373.48        12.81027
373.93        12.77845
374.38        12.76053
374.83        12.69426
375.28        12.56989
375.72        12.39428
376.17        12.25068
376.62          12.233
377.07          12.347
377.52        12.54291
377.97        12.72762
378.42        12.75831
378.87        12.60776
379.32         12.3368
379.77        12.01168
380.22        11.73047
380.67        11.52871
381.11        11.37757
381.56        11.28843
382.01        11.27724
382.46         11.3335
382.91        11.45129
383.36        11.56774
383.81        11.58181
384.26        11.47349
384.71        11.26869
385.15        11.02466
385.60        10.86419
386.05        10.81181
386.50        10.84501
386.95        10.92168
387.40        10.97235
387.85        10.98159
388.29        10.96445
388.74        10.97267
389.19        11.05561
389.64        11.21181
390.09         11.4023
390.54        11.57455
390.98        11.64731
391.43        11.60432
391.88        11.48264
392.33        11.30275
392.78         11.1114
393.23         10.9375
393.67        10.72887
394.12        10.53606
394.57        10.54572
395.02        10.57263
395.47         10.5859
395.91        10.53697
396.36        10.55114
396.81        10.62494
397.26        10.67549
397.71        10.68523
398.15        10.67342
398.60        10.65117
399.05        10.57284
399.50        10.47303
399.95        10.46824
400.39        10.53225
400.84        10.50319
401.29        10.38242
401.74        10.27396
402.18        10.20958
402.63        10.20997
403.08        10.26299
403.53        10.28983
403.97        10.28388
404.42        10.30353
404.87        10.34048
405.32        10.36139
405.76        10.36144
406.21        10.32234
406.66        10.26588
407.11        10.27609
407.55        10.33094
408.00        10.31473
408.45        10.22302
408.90        10.08446
409.34        9.951029
409.79        9.956985
410.24        10.07162
410.68         10.1145
411.13        10.07097
411.58        10.04767
412.03        10.06349
412.47        10.09853
412.92        10.14501
413.37        10.20727
413.81        10.25307
414.26        10.24239
414.71        10.16847
415.15        10.04792
415.60         9.91235
416.05        9.819274
416.49        9.790676
416.94        9.808149
417.39        9.858326
417.83         9.92035
418.28        9.976732
418.73        10.02662
419.17        10.06065
419.62        10.06548
420.07         10.0453
420.51        10.01419
420.96        9.968966
421.41        9.920186
421.85         9.87154
422.30        9.773019
422.74        9.684352
423.19        9.817277
423.64        10.13077
424.08        10.35261
424.53         10.3807
424.98        10.35556
425.42        10.27029
425.87        9.953218
426.31        9.541729
426.76        9.458274
427.21        9.680246
427.65        9.826984
428.10        9.837863
428.54        9.876113
428.99        9.920652
429.44         9.94978
429.88        9.935037
430.33        9.721018
430.77        9.430668
431.22        9.451199
431.66        9.746855
432.11        9.952521
432.56        9.999229
433.00        9.993972
433.45        9.873797
433.89        9.627738
434.34        9.462348
434.78        9.035513
435.23        9.482503
435.67        9.873442
436.12         10.0624
436.57        10.16213
437.01        10.08307
437.46        9.992025
437.90         9.94704
438.35         9.89943
438.79        9.576901
439.24        9.440825
439.68        9.425878
440.13        9.487181
440.57        9.582011
441.02        9.724151
441.46        9.863357
441.91        9.784198
442.35        9.576421
442.80        9.674006
443.24        9.994523
443.69        9.971251
444.13        9.620742
444.58         9.42951
445.02        9.403769
445.47        9.301352
445.91        9.149157
446.36        9.117644
446.80        9.210434
447.24        9.373774
447.69        9.556394
448.13        9.709653
448.58        9.796931
449.02         9.78561
449.47        9.715167
449.91        9.697803
450.36        9.750517
450.80        9.817179
451.25         9.87312
451.69        9.899465
452.13        9.883469
452.58        9.827548
453.02         9.74464
453.47        9.658378
453.91        9.577305
454.36        9.514221
454.80        9.455734
455.24        9.371423
455.69        9.285134
456.13        9.217146
456.58         9.19132
457.02        9.274591
457.46        9.410948
457.91        9.423432
458.35        9.357656
458.79        9.342443
459.24        9.392809
459.68         9.42004
460.13        9.419646
460.57        9.368709
461.01        9.312066
461.46        9.262906
461.90        9.194445
462.34        9.165672
462.79        9.321738
463.23        9.402844
463.68        9.431106
464.12        9.426442
464.56        9.391995
465.01        9.366488
465.45        9.326643
465.89        9.238134
466.34        9.140121
466.78        9.071338
467.22        9.027721
467.67        9.191427
468.11        9.148057
468.55        9.133939
468.99        9.051321
469.44         9.02894
469.88         9.07009
470.32        9.097946
470.77         9.11365
471.21        9.147823
471.65        9.200264
472.10         9.26333
472.54        9.313834
472.98        9.328403
473.42        9.307395
473.87        9.234724
474.31        9.148733
474.75        9.196486
475.20         9.35341
475.64        9.428535
476.08        9.402246
476.52        9.426984
476.97         9.50852
477.41        9.465305
477.85        9.401067
478.29        9.464799
478.74        9.424105
479.18        9.381173
479.62        9.565089
480.06        9.611945
480.50        9.617605
480.95        9.586034
481.39        9.523511
481.83        9.648482
482.27        9.676514
482.72        9.676464
483.16         9.85048
483.60        9.902926
484.04         9.89459
484.48        9.912464
484.93        10.06958
485.37         10.0247
485.81        10.13613
486.25        10.67977
486.69        10.18908
487.14        9.912108
487.58        10.79809
488.02        10.77754
488.46        10.60626
488.90        10.79616
489.34        10.43561
489.79        10.36359
490.23        10.67155
490.67        10.93323
491.11        11.17749
491.55        11.22017
491.99        11.11719
492.43        11.15242
492.88         11.3396
493.32        11.47286
493.76        11.53758
494.20         11.6469
494.64        11.80998
495.08        11.95842
495.52        12.08606
495.96        12.27871
496.41        12.54024
496.85        12.52811
497.29        12.34038
497.73        12.45482
498.17         12.8225
498.61        13.01242
499.05         12.9735
499.49         12.9519
499.93        12.99135
500.37        13.04585
500.82         13.1163
501.26         13.2307
501.70        13.39511
502.14        13.32711
502.58        13.49983
503.02        13.55581
503.46        13.58003
503.90        13.59512
504.34        13.60059
504.78        13.63889
505.22        13.70957
505.66        13.77666
506.10        13.84725
506.54         13.9699
506.98         14.1449
507.42        14.28716
507.86        14.47527
508.30        14.56811
508.74        14.58879
509.18        14.54766
509.62        14.48484
510.06        14.46543
510.50        14.50548
510.94        14.58735
511.38        14.68072
511.82        14.73559
512.26        14.73937
512.70        14.71245
513.14         14.6748
513.58        14.65088
514.02        14.65003
514.46        14.67213
514.90        14.71593
515.34        14.72904
515.78         14.7911
516.22        14.83381
516.66        14.87526
517.10        14.90032
517.54        14.90705
517.98        14.89854
518.42        14.87728
518.86        14.85183
519.30        14.82586
519.74        14.79637
520.18        14.77268
520.62        14.76749
521.06        14.78299
521.50        14.82019
521.93        14.85898
522.37        14.85805
522.81        14.81302
523.25        14.73001
523.69         14.6466
524.13         14.6236
524.57        14.66786
525.01        14.75683
525.45         14.8354
525.89        14.81635
526.32        14.68175
526.76        14.47246
527.20        14.24233
527.64        14.07921
528.08        14.00822
528.52          13.999
528.96        14.02812
529.40        14.05843
529.83        14.07157
530.27        14.07861
530.71        14.06389
531.15         14.0006
531.59         13.8897
532.03        13.74017
532.46        13.58395
532.90        13.48635
533.34        13.46022
533.78        13.48965
534.22        13.54954
534.66        13.59918
535.09        13.62352
535.53        13.63333
535.97        13.63352
536.41        13.63357
536.85        13.63674
537.28        13.63894
537.72        13.63619
538.16        13.62268
538.60        13.60116
539.04         13.5811
539.47        13.57117
539.91        13.59091
540.35         13.6398
540.79        13.71455
541.22        13.80284
541.66        13.88444
542.10          13.953
542.54        14.01466
542.97        14.07349
543.41        14.14516
543.85        14.23128
544.29        14.32684
544.72        14.42814
545.16        14.54338
545.60        14.66657
546.04        14.79727
546.47        14.93071
546.91        15.05282
547.35        15.16113
547.79        15.26704
548.22        15.37219
548.66         15.4792
549.10        15.59984
549.53        15.78723
549.97        16.02631
550.41        16.23787
550.84        16.40863
551.28        16.57983
551.72        16.74689
552.15        16.88302
552.59        16.99266
553.03        17.07724
553.46        17.15081
553.90        17.24919
554.34        17.37654
554.77        17.53106
555.21        17.69031
555.65        17.81714
556.08        17.88497
556.52        17.94596
556.96        18.00904
557.39         18.1149
557.83        18.25512
558.27        18.34098
558.70        18.37431
559.14        18.42731
559.57         18.4968
560.01        18.56546
560.45         18.6205
560.88        18.63243
561.32        18.64018
561.75        18.69523
562.19        18.79798
562.63        18.94025
563.06        19.07318
563.50        19.05775
563.93        18.93573
564.37        18.94331
564.80        19.08949
565.24        19.25825
565.68        19.41905
566.11        19.56702
566.55        19.69549
566.98        19.82092
567.42        19.94719
567.85        20.02477
568.29        20.09354
568.72        20.20446
569.16        20.35765
569.60        20.55727
570.03        20.81957
570.47        20.90308
570.90        21.03267
571.34        21.51334
571.77        21.52216
572.21        21.51006
572.64        21.72686
573.08        21.72195
573.51        22.10377
573.95        22.29467
574.38        22.34413
574.82          22.337
575.25        22.18669
575.69        22.10435
576.12        22.19032
576.56        22.75304
576.99        22.95218
577.42        22.54049
577.86        22.68863
578.29        22.57251
578.73        22.63492
579.16        22.53127
579.60        22.25719
580.03        22.09785
580.47        22.11416
580.90        22.13628
581.33        22.08872
581.77        22.21252
582.20        21.86761
582.64        21.26837
583.07        21.46338
583.51        21.37926
583.94        21.41447
584.37        21.35548
584.81        21.17467
585.24        20.97537
585.68         20.8702
586.11        20.49364
586.54        20.47022
586.98        20.54739
587.41        20.79018
587.85        20.36013
588.28        20.12943
588.71        20.27041
589.15        20.22543
589.58         20.1434
590.01        20.34371
590.45        20.33743
590.88        19.81535
591.31          19.806
591.75        20.15583
592.18        20.22332
592.61        19.98267
593.05        20.36246
593.48        20.47023
593.91        20.24909
594.35         20.3882
594.78        20.58013
595.21        20.72247
595.65        20.79472
596.08        20.71112
596.51        21.08462
596.94        21.18729
597.38        21.50717
597.81        21.84048
598.24        21.86445
598.68        22.24492
599.11        22.71076
599.54        22.86835
599.97        23.23177
600.41        23.78353
600.84         24.1827
601.27        24.45489
601.70        24.78875
602.14        24.98112
602.57        25.56268
603.00        26.13754
603.43        26.59016
603.87        27.00701
604.30        27.31691
604.73        27.89479
605.16        28.67004
605.60        28.92028
606.03        29.47316
606.46        30.04905
606.89        30.49959
607.32        30.98405
607.76         31.7165
608.19        31.88745
608.62        32.28707
609.05        32.73008
609.48        33.09703
609.92        33.34672
610.35        33.97742
610.78        34.48775
611.21        34.39162
611.64        35.12121
612.07        35.36282
612.50        35.59982
612.94        35.89338
613.37         36.2928
613.80        36.62858
614.23        37.02756
614.66        37.44405
615.09         37.8787
615.52        38.28633
615.96        38.68261
616.39        38.76402
616.82        39.22704
617.25        39.46354
617.68        39.72338
618.11        39.91236
618.54        40.10426
618.97        40.44901
619.40        40.86271
619.84        41.33138
620.27        41.37292
620.70        41.40911
621.13        41.35072
621.56        41.65971
621.99        41.98696
622.42         41.9832
622.85        41.94136
623.28        42.16412
623.71        42.38311
624.14        42.01165
624.57        42.35926
625.00        42.51997
625.43        42.12315
625.86         41.9268
626.29        41.73068
626.72        41.59813
627.15        41.27682
627.58        41.12673
628.01        41.08652
628.44        40.59747
628.87         40.2906
629.30        39.99437
629.73        39.78116
630.16        39.06244
630.59        38.86467
631.02        38.48236
631.45        38.17493
631.88        37.79611
632.31        37.34613
632.74        36.68306
633.17        36.20233
633.60        35.66458
634.03         35.1901
634.46        34.75736
634.89        34.32611
635.32        33.81793
635.75        33.21905
636.18        32.58294
636.61        31.95592
637.04        31.37061
637.47        30.86481
637.89        30.50147
638.32        30.22627
638.75        29.90686
639.18        29.52312
639.61        29.14083
640.04        28.77173
640.47         28.4168
640.90        28.08571
641.33        27.76703
641.76        27.46477
642.18        27.25606
642.61        27.03854
643.04        26.89671
643.47        26.80252
643.90         26.7588
644.33        26.76237
644.76        26.81351
645.18        26.89693
645.61        26.98624
646.04        27.07434
646.47        27.16001
646.90        27.27546
647.33        27.47001
647.75        27.76549
648.18          28.171
648.61        28.62187
649.04        29.04872
649.47         29.4467
649.89        29.71034
650.32        29.96708
650.75         30.7261
651.18        31.86398
651.61        32.61077
652.03        32.88156
652.46        33.27247
652.89        33.94817
653.32        34.36725
653.74        34.72335
654.17        36.25634
654.60        36.81528
655.03        37.32291
655.46        37.72586
655.88        39.01215
656.31        40.38655
656.74        41.67293
657.16        41.73549
657.59        42.10228
658.02        42.04361
658.45        42.96402
658.87        43.50829
659.30        44.25755
659.73        44.47337
660.15        44.89247
660.58        45.46254
661.01        45.99915
661.44        46.55265
661.86        46.80048
662.29        47.34265
662.72        47.57473
663.14        47.76426
663.57         48.1997
664.00        48.83606
664.42        49.28319
664.85        49.52221
665.27        49.79575
665.70        50.11081
666.13        50.36673
666.55        50.57226
666.98        50.76063
667.41        50.95857
667.83         51.1965
668.26        51.47343
668.69        51.78955
669.11          52.109
669.54        52.36891
669.96        52.56778
670.39         52.6965
670.82        52.80113
671.24        53.01067
671.67        53.35623
672.09        53.54705
672.52        54.02758
672.94        54.20913
673.37        54.26107
673.80         54.3527
674.22        54.51948
674.65        54.63616
675.07        54.72139
675.50        54.84715
675.92         55.0181
676.35        55.18404
676.77         55.3371
677.20        55.53082
677.62        55.77363
678.05        55.94468
678.47        56.01168
678.90        56.44326
679.32        56.45022
679.75        56.70241
680.17        56.95805
680.60        57.27093
681.02        57.56945
681.45        57.66022
681.87        57.60024
682.30         57.5651
682.72        57.61327
683.15        57.81495
683.57        58.10321
684.00        58.11518
684.42        57.94425
684.85        58.04722
685.27        58.42737
685.70        58.90667
686.12        59.34102
686.54        59.43369
686.97        59.23896
687.39          59.281
687.82        59.57868
688.24        59.59593
688.66        59.62399
689.09        59.68829
689.51        59.87806
689.94        60.03397
690.36        60.15412
690.78        60.22698
691.21        60.27362
691.63        60.42673
692.06        60.64396
692.48        60.67673
692.90        60.54612
693.33        60.49563
693.75        60.54408
694.17        60.54791
694.60        60.54517
695.02        60.67692
695.44        60.94073
695.87        61.32689
696.29        61.70539
696.71        61.87278
697.14        61.83713
697.56        61.69818
697.98        61.48762
698.41        61.94095
698.83        61.74092
699.25        62.07121
699.68        62.45102
700.10        62.74079
700.52        62.87928
700.94        62.94342
701.37        62.96522
701.79        62.98138
702.21        62.99982
702.64        63.02212
703.06        63.03875
703.48         63.0589
703.90        63.09562
704.33        63.15171
704.75        63.24907
705.17        63.39706
705.59        63.58427
706.01         63.7691
706.44        63.94057
706.86        64.16075
707.28        64.22533
707.70         64.4063
708.12         64.6067
708.55        64.44546
708.97        64.02411
709.39         64.1638
709.81        64.47939
710.23        64.68201
710.66        64.62576
711.08        64.68586
711.50        64.84061
711.92        64.91682
712.34        64.91653
712.76        64.88395
713.19        64.85238
713.61        64.92285
714.03        65.09365
714.45         65.3279
714.87         65.5806
715.29        65.78866
715.71           65.93
716.13         66.0219
716.56        66.06505
716.98        66.10436
717.40        66.12647
717.82        66.18152
718.24        66.28771
718.66        66.18467
719.08         66.3372
719.50        66.37038
719.92         66.4266
720.34        66.49701
720.76        66.58057
721.19        66.66407
721.61        66.73084
722.03        66.73611
722.45        66.67655
722.87        66.57139
723.29        66.46989
723.71        66.45014
724.13        66.53038
724.55        66.69264
724.97        66.91741
725.39        67.09039
725.81        67.17113
726.23        67.32662
726.65         67.5939
727.07        67.27489
727.49        67.56183
727.91        67.54604
728.33        67.57675
728.75        67.58003
729.17        67.56957
729.59        67.57548
730.01        67.54769
730.43        67.56021
730.85        67.67697
731.27        67.65438
731.69        67.37675
732.10         68.4365
732.52        67.78388
732.94        67.96245
733.36        68.09915
733.78        68.13149
734.20        68.02309
734.62        68.40807
735.04        68.19148
735.46        68.36518
735.88        68.56097
736.30        68.40116
736.72        68.11449
737.13        68.20509
737.55        68.64229
737.97        68.86665
738.39        68.82072
738.81        68.69446
739.23        68.56849
739.65        68.65508
740.06        68.86628
740.48        68.93013
740.90        68.80165
741.32        68.69023
741.74        68.56103
742.16        68.75574
742.57        68.78154
742.99        69.18491
743.41        69.65263
743.83        69.53478
744.25        68.98335
744.67        68.88805
745.08        69.29092
745.50        69.60461
745.92         69.7187
746.34        69.63719
746.75        69.41308
747.17         69.3257
747.59        69.40538
748.01        69.39762
748.42        69.31343
748.84        69.38764
749.26        69.59081
749.68        69.65884
750.09        69.61806
750.51        69.69885
750.93        69.82391
751.35        69.84679
751.76        69.87095
752.18        69.30528
752.60        69.73299
753.01        69.78491
753.43        69.90059
753.85        69.88632
754.27        69.98688
754.68        70.19682
755.10         70.1755
755.52        70.23892
755.93        70.27549
756.35        70.28572
756.77        70.27345
757.18        70.37429
757.60        70.63123
758.02        70.74245
758.43        70.65688
758.85        71.25539
759.26         71.3621
759.68        70.98032
760.10        70.18008
760.51        69.29959
760.93        70.57049
761.34        70.65011
761.76        71.04379
762.18        70.97591
762.59        70.85991
763.01        70.78756
763.42        71.01104
763.84        71.18584
764.26        71.32725
764.67        71.52014
765.09         71.6307
765.50        71.71136
765.92        71.72268
766.33        71.56632
766.75        71.25439
767.16         71.0738
767.58        71.04435
768.00        71.14417
768.41        71.34446
768.83        71.49638
769.24        71.56488
769.66        71.61817
770.07        71.64764
770.49        71.69058
770.90        71.76357
771.32        71.82392
771.73        71.86908
772.15        71.91235
772.56        71.97367
772.97        71.98582
773.39         71.9475
773.80        72.09081
774.22        72.32398
774.63        72.31514
775.05        72.08617
775.46        72.07361
775.88        72.27641
776.29        72.49971
776.70        72.65935
777.12        72.72985
777.53        72.70572
777.95        72.57203
778.36        72.41612
778.77        72.36071
779.19         72.4448
779.60        72.65241
780.02        72.88737
780.43         73.0659
780.84        73.14698
781.26        73.01549
781.67        72.84961
782.09        73.12584
782.50        73.55598
782.91        74.07475
783.33        72.86747
783.74        72.68815
784.15        73.02676
784.57        73.29159
784.98          73.382
785.39        73.35503
785.81        73.25253
786.22        73.28263
786.63        73.43445
787.04        73.48735
787.46        73.45522
787.87        73.47024
788.28        73.53333
788.70         73.5948
789.11        73.64042
789.52         73.6151
789.93        73.56463
790.35        73.74775
790.76         74.1002
791.17        74.11271
791.58        73.83524
792.00        73.76659
792.41        73.95777
792.82        74.13357
793.23        74.27296
793.65        74.39783
794.06        74.52139
794.47        74.77583
794.88        75.10664
795.29        75.03873
795.71        75.01242
796.12        74.84946
796.53        74.70621
796.94        74.42637
797.35        74.13132
797.76        74.18711
798.18        74.50773
798.59        74.85017
799.00        74.80264
799.41        74.62615
799.82        74.79776
800.23        74.78466
800.64        74.75998
801.06        74.69889
801.47        74.66023
801.88        74.64431
802.29         74.6517
802.70        74.68656
803.11        74.71055
803.52         74.6685
803.93        74.55308
804.34        74.36427
804.75        74.18803
805.17        74.19467
805.58        74.44624
805.99        74.79999
806.40         75.1637
806.81        75.51753
807.22        75.73167
807.63        75.56129
808.04        75.13445
808.45        74.92706
808.86         75.0219
809.27        75.19817
809.68        75.35164
810.09         75.3967
810.50        75.29225
810.91        75.04943
811.32        74.79584
811.73         74.7695
812.14        74.98736
812.55        75.32353
812.96        75.64338
813.37        75.70242
813.78        75.50552
814.19        75.34509
814.60        75.28932
815.01        75.22025
815.42        75.17097
815.83        75.26648
816.24        75.47686
816.65        75.65865
817.05        75.77885
817.46        75.83298
817.87         75.8907
818.28        76.00832
818.69        76.19307
819.10        76.41743
819.51        76.60302
819.92        76.62481
820.33        76.46379
820.74        76.15504
821.14        75.80405
821.55        75.66309
821.96         75.7336
822.37        75.82792
822.78        75.92951
823.19        76.12554
823.60        76.38892
824.00        76.67724
824.41        76.85932
824.82        76.85706
825.23        76.65759
825.64        76.28183
826.04        75.91148
826.45        75.81649
826.86        76.06966
827.27         76.5917
827.68        77.18802
828.08        77.55854
828.49        77.53693
828.90        77.24144
829.31        76.82048
829.72        76.52906
830.12        76.47359
830.53        76.54112
830.94        76.63857
831.35        76.57601
831.75        76.33141
832.16        75.92932
832.57        75.53601
832.97         75.3854
833.38        75.52484
833.79        75.87286
834.20        76.27254
834.60         76.4919
835.01        76.48994
835.42        76.32935
835.82        76.13269
836.23        76.03043
836.64        76.10123
837.04        76.31244
837.45         76.5563
837.86        76.76231
838.26        76.90911
838.67        77.00913
839.08        77.09415
839.48        77.19092
839.89        77.30835
840.29        77.43022
840.70         77.5485
841.11        77.66327
841.51        77.78758
841.92        77.87896
842.33        77.95173
842.73        78.02095
843.14        78.03774
843.54        78.03596
843.95        77.99034
844.35        77.88312
844.76        77.70955
845.17        77.48437
845.57        77.27782
845.98        77.16019
846.38        77.17737
846.79        77.29086
847.19        77.44438
847.60        77.48475
848.00        77.39953
848.41         77.1878
848.81        76.97449
849.22        76.88869
849.62        76.99895
850.03        77.23928
850.43        77.50841
850.84        77.56034
851.24        77.39552
851.65        77.01693
852.05        76.65823
852.46        76.61809
852.86        76.95927
853.27        77.56869
853.67        78.13638
854.07        78.44514
854.48        78.40408
854.88        78.12748
855.29        77.64917
855.69        77.26427
856.10        76.98592
856.50        76.83755
856.90        76.72588
857.31        76.53401
857.71        76.28103
858.12        75.95824
858.52        75.69214
858.92        75.54276
859.33        75.50877
859.73        75.60683
860.13        75.71058
860.54        75.62944
860.94        75.36658
861.34        74.95526
861.75        74.52807
862.15        74.35839
862.55        74.46862
862.96        74.77634
863.36        75.14038
863.76         75.3111
864.17        75.20894
864.57        74.93305
864.97         74.5733
865.38        74.25057
865.78        74.06305
866.18        73.94812
866.58        73.89284
866.99        73.89413
867.39        73.96775
867.79        74.08393
868.19        74.21345
868.60        74.26927
869.00         74.2198
869.40        74.10845
869.80        73.94609
870.21        73.77544
870.61        73.70312
871.01        73.66538
871.41        73.67725
871.81        73.75841
872.22        73.87395
872.62        74.03928
873.02        74.23781
873.42        74.41458
873.82        74.54578
874.22        74.66206
874.63        74.74063
875.03        74.72369
875.43          74.626
875.83         74.4379
876.23        74.29625
876.63        74.43291
877.03        74.87062
877.44        75.52486
877.84        76.13255
878.24        76.22108
878.64        75.71029
879.04        74.78748
879.44          73.786
879.84        73.16691
880.24        73.03175
880.64        73.25127
881.04        73.64864
881.44        73.91402
881.84        73.93997
882.24         73.8145
882.65        73.62054
883.05        73.59681
883.45        73.75297
883.85        74.00239
884.25        74.23692
884.65         74.3182
885.05        74.21542
885.45        73.97623
885.85        73.69853
886.25        73.54226
886.65        73.56217
887.05        73.72889
887.45        73.93131
887.85        73.99863
888.25        73.89188
888.65        73.64676
889.04        73.40716
889.44        73.45069
889.84        73.80257
890.24        74.36995
890.64        74.91216
891.04        75.05425
891.44        74.73306
891.84        74.09251
892.24        73.38598
892.64        73.01173
893.04        73.07146
893.44        73.42896
893.83        73.95584
894.23        74.37564
894.63        74.61304
895.03        74.73986
895.43        74.74818
895.83        74.62397
896.23        74.39469
896.63        74.06386
897.02        73.71595
897.42        73.52657
897.82         73.5173
898.22        73.66734
898.62        73.90057
899.01        74.08479
899.41        74.15901
899.81        74.16613
900.21        74.17077
900.61        74.28432
901.00        74.51372
901.40         74.8183
901.80         75.1084
902.20        75.26487
902.59        75.27191
902.99        75.16563
903.39        75.00641
903.79        74.87968
904.18        74.81589
904.58        74.79485
904.98        74.82562
905.38        74.93008
905.77        75.08498
906.17        75.28716
906.57        75.45596
906.96        75.47523
907.36        75.29108
907.76        74.95886
908.15        74.56447
908.55        74.18195
908.95        73.89513
909.34        73.68048
909.74        73.58759
910.14        73.62302
910.53        73.77879
910.93        74.02358
911.33        74.31449
911.72        74.56842
912.12        74.72839
912.52         74.8208
912.91          74.817
913.31        74.72177
913.70        74.54852
914.10        74.28757
914.49        74.05521
914.89        73.99665
915.29        74.16463
915.68        74.50385
916.08        74.87957
916.47        75.06997
916.87        75.03256
917.26        74.81104
917.66        74.50713
918.05        74.24655
918.45        74.06971
918.84        73.97321
919.24        73.90482
919.64        73.86381
920.03        73.86706
920.42        73.92731
920.82        74.06183
921.21        74.27878
921.61        74.55413
922.00        74.86725
922.40        75.20192
922.79         75.6153
923.19        76.04055
923.58        76.47771
923.98        76.75271
924.37        76.67091
924.77        76.20274
925.16        75.40408
925.55        74.52309
925.95        73.98698
926.34        73.92652
926.74        74.23286
927.13        74.69594
927.52        74.86343
927.92         74.6471
928.31        74.16081
928.70        73.65031
929.10        73.47833
929.49        73.72533
929.89        74.24638
930.28        74.84906
930.67        75.08741
931.07        74.83163
931.46        74.24712
931.85        73.58222
932.24        73.25246
932.64        73.35466
933.03        73.75854
933.42        74.25546
933.82        74.50639
934.21        74.42992
934.60        74.15129
934.99        73.83178
935.39        73.71069
935.78        73.89192
936.17        74.26277
936.56        74.73515
936.96        75.15196
937.35        75.48421
937.74        75.74639
938.13         75.9013
938.53        75.89825
938.92        75.74798
939.31        75.43979
939.70        75.09091
940.09        74.91711
940.49        74.94969
940.88        75.18083
941.27        75.43465
941.66        75.43401
942.05        75.13375
942.44         74.6329
942.84        74.13696
943.23        73.92528
943.62        74.09746
944.01        74.55054
944.40        75.11853
944.79        75.50869
945.18        75.60268
945.57        75.46777
945.97        75.16714
946.36        74.86781
946.75        74.59758
947.14        74.33347
947.53        74.05047
947.92        73.72155
948.31        73.36514
948.70        73.01779
949.09        72.78909
949.48        72.82366
949.87        73.13258
950.26        73.66707
950.65        74.24716
951.04        74.58995
951.43        74.62654
951.82        74.41519
952.21        74.13495
952.60        74.11333
952.99        74.42191
953.38        74.93168
953.77        75.43411
954.16        75.62261
954.55        75.41248
954.94        74.89046
955.33        74.19183
955.72        73.53483
956.11        73.00837
956.50        72.59245
956.89        72.21037
957.28        71.71815
957.66        71.14889
958.05        70.58566
958.44        70.23456
958.83        70.38884
959.22        71.05956
959.61        72.05505
960.00        73.15025
960.39        74.01427
960.78        74.51684
961.16        74.77595
961.55         74.6453
961.94        74.03172
962.33        73.00661
962.72        71.65998
963.11        70.39094
963.49        69.76836
963.88        69.90226
964.27        70.68484
964.66        71.74409
965.04         72.3892
965.43        72.31826
965.82        71.75256
966.21        71.06267
966.60         70.8401
966.98        71.23194
967.37        72.02041
967.76        72.90034
968.15        73.28642
968.53        73.02209
968.92        72.33742
969.31        71.56081
969.69        71.15846
970.08        71.25368
970.47        71.68709
970.86        72.40104
971.24        73.30309
971.63        74.20284
972.02         75.1116
972.40        75.87238
972.79        76.13074
973.17        75.94865
973.56        75.34399
973.95        74.58086
974.33        74.11853
974.72        74.09414
975.11        74.37936
975.49         74.7914
975.88        75.02553
976.26        75.00224
976.65        74.84547
977.04         74.5785
977.42        74.21912
977.81        73.76665
978.19        73.15664
978.58        72.76519
978.96        73.19389
979.35        74.48828
979.74        76.49629
980.12        78.54166
980.51        79.31184
980.89        78.63359
981.28        76.72874
981.66        74.43594
982.05        73.34747
982.43         73.9211
982.82        75.63142
983.20        77.67447
983.59        78.62704
983.97         78.2271
984.35        76.87984
984.74        75.09987
985.12         73.7918
985.51        73.29476
985.89        73.32752
986.28        73.68751
986.66        74.18478
987.04        74.66416
987.43        75.16257
987.81        75.60767
988.20        75.73614
988.58        75.53867
988.96         75.0735
989.35        74.32009
989.73        73.35825
990.12        72.20058
990.50        70.78648
990.88        69.51139
991.27         69.2466
991.65        70.19425
992.03        72.04102
992.42        73.84103
992.80        74.71245
993.18        74.41089
993.56        73.12034
993.95        71.30807
994.33        70.14165
994.71        70.28947
995.10        71.22144
995.48        72.41228
995.86        73.23243
996.24        73.60007
996.63        73.68502
997.01        73.71386
997.39        73.94035
997.77        74.44769
998.15        75.12446
998.54        75.64323
998.92        75.63074
999.30        75.03942
999.68        73.96509
1000.06        72.94009
1000.45        72.86452
1000.83         74.0134
1001.21        76.03698
1001.59        78.11646
1001.97        79.07278
1002.35        78.62299
1002.73        76.98347
1003.12        74.78872
1003.50        73.35001
1003.88        73.22682
1004.26         73.9892
1004.64         74.8968
1005.02         74.9571
1005.40        74.02964
1005.78        72.52339
1006.16        70.88248
1006.54        69.91183
1006.92        69.88798
1007.30         70.4472
1007.69         71.4983
1008.07        72.72723
1008.45        73.98354
1008.83        75.37789
1009.21        76.40817
1009.59        76.34204
1009.97        75.02237
1010.35        72.33066
1010.73        69.17382
1011.11        67.93934
1011.49          69.601
1011.86        73.63267
1012.24        77.82989
1012.62        79.33637
1013.00        77.73824
1013.38        73.97276
1013.76         69.7289
1014.14        67.85995
1014.52        69.21579
1014.90        72.91946
1015.28        77.77382
1015.66        81.33672
1016.04        82.48412
1016.41        82.03402
1016.79        80.30374
1017.17        78.10932
1017.55        75.94873
1017.93        73.75365
1018.31        71.95821
1018.69        71.30936
1019.06        72.02996
1019.44        73.98489
1019.82        77.12228
1020.20        80.90295
1020.58        84.50446
1020.95        87.49569
1021.33        89.08089
1021.71        88.34454
1022.09        85.35142
1022.46        80.40859
1022.84        74.42776
1023.22        68.97233
1023.60        64.74874
1023.97        61.44833
1024.35        59.51908
1024.73        59.01978
