SpectraSmart Spectrum 2.9.0.0
--------- Device Information -----------
Spectrum Name :  反射率_0
Saving Time :  2024/04/27 22:17:51
Spectro-Module Model Name : SE2030-DUVN
Spectro-Module Serial Number : OS361AC55029948
Wavelength Start : 200
Wavelength End : 1025
Wavelength Unit : Wavelength(nm)
Spectrum Unit : Reflectance(%)
-----------Spectrum Setting ------------
Integration Time : 20ms
Average : 10
Boxcar : 0
Background removal :  enabled
linearity correction :  enabled
SC :  disabled
Intensity correction :  disabled
DWT denoise :  enabled
savitzky-golay :  disabled
FFT :  disabled
Running average :  disabled
Kalman :  disabled
High pass :  disabled
---------------BEGIN--------------------
Wavelength(nm)             Reflectance(%)
200.29               0
200.75        12.60536
201.21        54.93199
201.67        86.77538
202.13         96.5894
202.58        91.96656
203.04        80.40209
203.50        68.73674
203.96        66.53981
204.42         73.6981
204.88        84.57182
205.34        94.48313
205.80        99.90688
206.26         100.757
206.72        97.85272
207.18        90.89328
207.64         84.3871
208.10        83.56293
208.55        86.14021
209.01        87.73116
209.47        86.43783
209.93        81.08603
210.39         66.8327
210.85        22.16104
211.31       -40.93804
211.77        16.80508
212.23        59.82951
212.69        75.83975
213.14        81.21302
213.60        81.32315
214.06        78.34203
214.52         71.5423
214.98        65.03189
215.44         64.9476
215.90        67.61886
216.36        70.40194
216.81        72.46954
217.27        73.96201
217.73        75.59634
218.19        76.76842
218.65        76.14745
219.11        73.40294
219.57        68.51883
220.02        62.71955
220.48        60.42765
220.94        62.72449
221.40        67.92467
221.86        73.30151
222.32        76.19933
222.77        76.64807
223.23        75.71191
223.69        74.59196
224.15        74.50564
224.61        75.61527
225.06        77.45303
225.52        79.39516
225.98        79.73373
226.44        78.40746
226.90        76.36793
227.36        74.70411
227.81        74.16376
228.27        74.70495
228.73        75.93243
229.19        77.11691
229.65        76.85394
230.10        74.75943
230.56        71.75728
231.02        68.81355
231.48         67.2877
231.93        67.30132
232.39        68.40685
232.85        70.06031
233.31        71.63331
233.77        72.86135
234.22        73.94025
234.68        74.69955
235.14        74.91914
235.60        74.61619
236.05        73.76472
236.51        72.69455
236.97        72.29478
237.43        72.89985
237.88        74.43882
238.34        76.03886
238.80         77.0843
239.26        77.41721
239.71        77.17355
240.17         76.1214
240.63        75.16348
241.08        75.35722
241.54        75.96134
242.00        76.39931
242.46        76.16911
242.91        75.14249
243.37        72.71283
243.83        67.59566
244.28        60.30332
244.74        57.85732
245.20        62.04333
245.66        66.73746
246.11        68.63313
246.57        68.29453
247.03        66.59277
247.48        64.14692
247.94        64.87463
248.40        70.77531
248.85         78.1445
249.31         84.4063
249.77        88.13027
250.22         89.6842
250.68        90.07542
251.14        89.67773
251.59        88.67612
252.05         87.1174
252.51        84.31419
252.96        80.21806
253.42        77.54909
253.88        77.82307
254.33         80.0831
254.79        82.11406
255.25        81.69942
255.70        79.25416
256.16         76.3842
256.62        74.50401
257.07        75.12462
257.53        77.86511
257.99        80.98443
258.44        82.91328
258.90        82.88972
259.35        80.92245
259.81        78.36573
260.27        75.83695
260.72        74.10682
261.18        73.57876
261.63        73.43284
262.09        73.58339
262.55        73.46107
263.00         72.9006
263.46        72.28849
263.91        71.54561
264.37        71.00596
264.83        70.60661
265.28        70.20327
265.74        69.85079
266.19        69.32744
266.65        68.71528
267.11        68.00105
267.56        67.21307
268.02         66.5167
268.47        65.88665
268.93        65.31194
269.38        64.72181
269.84        64.05671
270.30        63.28922
270.75        62.44008
271.21        61.54399
271.66        60.58492
272.12        59.60383
272.57         58.5562
273.03        57.52185
273.48        56.51517
273.94        55.61488
274.39        54.76209
274.85        53.97415
275.31        53.13765
275.76        52.21171
276.22        51.28673
276.67        50.35809
277.13        49.57825
277.58        48.88315
278.04        48.29082
278.49        47.66922
278.95        46.99102
279.40        46.17994
279.86        45.35648
280.31        44.50597
280.77         43.7719
281.22        43.12395
281.68         42.5924
282.13        42.12338
282.59         41.7399
283.04        41.38373
283.50        41.07308
283.95        40.75357
284.41        40.41403
284.86        40.02697
285.32         39.6437
285.77        39.24341
286.22        38.85888
286.68        38.52098
287.13        38.18352
287.59        37.91649
288.04        37.72841
288.50        37.65177
288.95        37.63337
289.41        37.64115
289.86        37.55967
290.32        37.39765
290.77        37.17004
291.22        36.94379
291.68        36.80896
292.13        36.77923
292.59        36.85917
293.04        37.01501
293.50        37.22854
293.95        37.47872
294.40        37.78254
294.86        38.16787
295.31        38.66273
295.77        39.27221
296.22        39.95923
296.68        40.67218
297.13        41.30484
297.58        41.83553
298.04         42.2924
298.49        42.71749
298.95        43.21089
299.40        43.78679
299.85        44.42169
300.31        45.09953
300.76        45.74784
301.21        46.34968
301.67         46.9284
302.12        47.45214
302.58        47.93906
303.03        48.36643
303.48        48.74895
303.94        49.13136
304.39        49.51611
304.84        49.93262
305.30        50.39101
305.75        50.83638
306.20        51.24483
306.66        51.62168
307.11        51.93244
307.57        52.23743
308.02        52.54562
308.47        52.87058
308.93        53.20058
309.38        53.44979
309.83        53.53946
310.29        53.47618
310.74        53.28165
311.19        53.04397
311.65        52.89578
312.10        52.84879
312.55        52.86437
313.00        52.90665
313.46        52.91772
313.91        52.86584
314.36        52.78586
314.82        52.63914
315.27        52.35876
315.72        51.95421
316.18        51.45775
316.63        50.97747
317.08        50.71257
317.53          50.696
317.99        50.85984
318.44        51.07466
318.89        51.10785
319.35        50.89608
319.80        50.51047
320.25        50.04121
320.70         49.6446
321.16        49.36196
321.61        49.14983
322.06        48.96931
322.51        48.76578
322.97        48.51157
323.42        48.25383
323.87        47.97926
324.32        47.66859
324.78        47.32093
325.23         46.9509
325.68        46.59682
326.13        46.33813
326.59        46.17513
327.04        46.11123
327.49        46.07283
327.94        45.95148
328.39        45.71361
328.85        45.37133
329.30        44.99746
329.75        44.68031
330.20        44.45658
330.66        44.29188
331.11        44.16785
331.56        43.98712
332.01        43.73028
332.46        43.42822
332.92        43.13128
333.37        42.97556
333.82        42.97347
334.27        43.08132
334.72        43.22763
335.17        43.29815
335.63        43.24339
336.08        43.11644
336.53        42.93093
336.98        42.73328
337.43         42.5482
337.88        42.36234
338.34        42.19125
338.79        42.07545
339.24        42.01604
339.69        42.00852
340.14        42.01793
340.59         41.9813
341.05        41.88307
341.50        41.74654
341.95        41.58847
342.40         41.4481
342.85        41.33669
343.30        41.23547
343.75        41.14676
344.20        41.07497
344.66        41.02139
345.11        40.98895
345.56        40.94597
346.01        40.83818
346.46        40.65942
346.91        40.42117
347.36        40.19608
347.81        40.09366
348.26        40.13295
348.72        40.28923
349.17        40.45699
349.62        40.46931
350.07        40.29282
350.52        39.97155
350.97        39.64705
351.42         39.5473
351.87        39.70939
352.32        40.04848
352.77        40.38707
353.22        40.45685
353.67        40.20039
354.13        39.71989
354.58        39.14448
355.03        38.73429
355.48        38.56467
355.93        38.56545
356.38         38.6293
356.83        38.58721
357.28        38.39718
357.73        38.12178
358.18        37.84202
358.63        37.67667
359.08        37.64697
359.53        37.69564
359.98        37.75131
360.43        37.71146
360.88         37.5478
361.33        37.29435
361.78        36.98093
362.23        36.68568
362.68        36.43849
363.13        36.16336
363.58         35.8526
364.03        35.78936
364.48        35.49456
364.93        35.35794
365.38         35.2142
365.83        35.03406
366.28        34.80708
366.73        34.54604
367.18        34.28753
367.63        34.08067
368.08        33.93656
368.53        33.83763
368.98        33.74765
369.43        33.60715
369.88        33.40344
370.33        33.15934
370.78        32.90293
371.23        32.68164
371.68        32.50608
372.13        32.35021
372.58        32.21026
373.03        32.08055
373.48        31.95386
373.93        31.84364
374.38        31.70614
374.83        31.46863
375.28        31.13103
375.72        30.70902
376.17         30.3263
376.62        30.13272
377.07        30.14932
377.52        30.31136
377.97        30.50328
378.42        30.54466
378.87        30.38881
379.32        30.09734
379.77        29.73338
380.22        29.39091
380.67        29.10654
381.11         28.8573
381.56        28.64681
382.01        28.48568
382.46        28.37335
382.91        28.31161
383.36        28.28241
383.81        28.24937
384.26        28.19754
384.71        28.12943
385.15         28.0296
385.60        27.91432
386.05        27.77892
386.50        27.62792
386.95        27.48271
387.40        27.37808
387.85         27.3236
388.29        27.29366
388.74        27.30284
389.19        27.30874
389.64        27.29763
390.09        27.26398
390.54        27.21607
390.98        27.16426
391.43        27.12502
391.88        27.09348
392.33        27.02877
392.78        26.91857
393.23         26.7782
393.67        26.50305
394.12        26.18913
394.57        26.28141
395.02        26.32241
395.47         26.2367
395.91        25.94015
396.36        25.81818
396.81        25.89106
397.26        25.95301
397.71        25.95795
398.15        25.93487
398.60        25.90372
399.05        25.75884
399.50        25.57458
399.95        25.62116
400.39         25.8284
400.84        25.79318
401.29        25.51978
401.74        25.27249
402.18         25.1305
402.63        25.13824
403.08        25.25051
403.53        25.24661
403.97        25.11265
404.42        25.01274
404.87         24.9629
405.32        24.93743
405.76         24.9365
406.21         24.9004
406.66        24.85334
407.11        24.95445
407.55        25.13755
408.00        25.13374
408.45        24.93514
408.90        24.61969
409.34        24.31585
409.79         24.3346
410.24        24.61525
410.68        24.74085
411.13        24.67798
411.58        24.69069
412.03        24.78441
412.47        24.83328
412.92        24.81967
413.37        24.78617
413.81        24.73579
414.26         24.6929
414.71        24.65743
415.15        24.62463
415.60        24.59143
416.05        24.56935
416.49         24.5624
416.94         24.5671
417.39        24.56906
417.83         24.5467
418.28        24.48873
418.73        24.38799
419.17         24.2802
419.62        24.22682
420.07        24.24872
420.51        24.34202
420.96        24.43164
421.41        24.42845
421.85        24.31549
422.30        24.01527
422.74         23.6885
423.19        23.86811
423.64        24.46869
424.08        24.81299
424.53        24.75053
424.98        24.74058
425.42         24.7871
425.87        24.43399
426.31        23.87147
426.76        23.90122
427.21         24.4225
427.65        24.52538
428.10        24.21875
428.54        24.14096
428.99        24.29247
429.44        24.54095
429.88         24.7183
430.33        24.28301
430.77        23.50694
431.22        23.38767
431.66         23.9084
432.11        24.36636
432.56        24.63215
433.00        24.82264
433.45        24.71763
433.89        24.34479
434.34        24.09414
434.78        22.85088
435.23        23.56278
435.67        24.18093
436.12        24.44192
436.57        24.53621
437.01        24.28823
437.46        24.17074
437.90        24.31256
438.35        24.60819
438.79        24.25453
439.24         24.1588
439.68        24.11373
440.13        24.06373
440.57        23.99658
441.02        24.10468
441.46        24.32083
441.91        24.11817
442.35        23.66484
442.80        23.91158
443.24        24.66609
443.69        24.67401
444.13        23.99264
444.58        23.73065
445.02        23.90399
445.47        23.94035
445.91        23.81403
446.36        23.78009
446.80        23.83181
447.24        23.88257
447.69         23.9365
448.13        24.05548
448.58        24.20248
449.02        24.24479
449.47        24.19164
449.91        24.16645
450.36        24.18219
450.80        24.15526
451.25        24.10687
451.69        24.10662
452.13        24.15172
452.58        24.19869
453.02          24.222
453.47        24.19431
453.91        24.10752
454.36         24.0128
454.80        23.89604
455.24        23.70755
455.69        23.51455
456.13        23.35655
456.58        23.28597
457.02        23.46718
457.46        23.76029
457.91        23.73899
458.35        23.52407
458.79        23.45306
459.24        23.56412
459.68        23.62871
460.13        23.64472
460.57         23.5771
461.01        23.53151
461.46        23.53786
461.90        23.48031
462.34        23.43718
462.79        23.77124
463.23        23.83156
463.68        23.75149
464.12        23.68436
464.56        23.66577
465.01        23.75405
465.45        23.83135
465.89        23.70775
466.34        23.46265
466.78        23.23139
467.22        23.05165
467.67        23.47288
468.11        23.45542
468.55        23.56477
468.99        23.49811
469.44        23.51155
469.88        23.59664
470.32        23.58357
470.77        23.49469
471.21        23.44477
471.65        23.45278
472.10        23.49423
472.54        23.53646
472.98        23.56492
473.42        23.58193
473.87        23.53141
474.31         23.4594
474.75        23.65197
475.20        24.02895
475.64        24.11801
476.08        23.92878
476.52        23.94029
476.97        24.18322
477.41        24.17451
477.85         24.1232
478.29        24.32125
478.74        24.15241
479.18        23.91237
479.62        24.24593
480.06        24.32021
480.50        24.39805
480.95         24.4566
481.39        24.44714
481.83        24.81982
482.27        24.81759
482.72        24.65727
483.16        24.91026
483.60        24.91236
484.04        24.87077
484.48        24.93962
484.93        25.28118
485.37        25.11226
485.81        25.55832
486.25         26.1484
486.69        25.79861
487.14        25.42837
487.58        26.41926
488.02          26.382
488.46        26.44233
488.90        26.43417
489.34        26.09074
489.79        25.81583
490.23        26.52464
490.67         26.9148
491.11        27.18268
491.55         27.1875
491.99        27.02935
492.43        27.09103
492.88        27.39403
493.32        27.67042
493.76        27.86123
494.20        28.07815
494.64        28.32746
495.08        28.48284
495.52        28.57614
495.96        28.90754
496.41        29.41559
496.85         29.4111
497.29        29.03911
497.73        29.18354
498.17        29.77408
498.61        30.17378
499.05        30.25702
499.49        30.25606
499.93        30.25982
500.37        30.35438
500.82        30.53522
501.26        30.77904
501.70        31.09409
502.14        30.85632
502.58        31.17749
503.02        31.25458
503.46        31.28753
503.90        31.30787
504.34        31.31039
504.78         31.3886
505.22        31.53486
505.66        31.67412
506.10        31.78686
506.54         31.9273
506.98        32.09519
507.42        32.11789
507.86        32.25956
508.30        32.34191
508.74        32.44454
509.18        32.55075
509.62         32.6493
510.06        32.71807
510.50        32.75173
510.94        32.76276
511.38        32.76691
511.82        32.78972
512.26        32.83845
512.70        32.89951
513.14        32.96451
513.58        33.02384
514.02        33.07423
514.46        33.07664
514.90        33.15565
515.34         33.0938
515.78        33.12066
516.22        33.07894
516.66        33.05283
517.10        33.07933
517.54        33.16176
517.98        33.28439
518.42        33.39878
518.86        33.43156
519.30        33.36782
519.74        33.23408
520.18        33.07748
520.62        32.97157
521.06        32.93794
521.50        32.95601
521.93        33.00372
522.37        33.03434
522.81        33.03544
523.25        33.01757
523.69        32.98882
524.13        32.96037
524.57        32.93515
525.01         32.9076
525.45        32.86717
525.89        32.80022
526.32        32.70273
526.76        32.59007
527.20        32.48143
527.64        32.41018
528.08        32.38186
528.52        32.38373
528.96        32.39164
529.40        32.36775
529.83        32.29928
530.27        32.20105
530.71        32.08444
531.15         31.9702
531.59        31.86768
532.03        31.77455
532.46        31.68571
532.90        31.60782
533.34        31.53869
533.78        31.48018
534.22         31.4396
534.66        31.42579
535.09        31.43315
535.53        31.46329
535.97        31.49299
536.41        31.49269
536.85        31.45783
537.28        31.40036
537.72        31.34371
538.16        31.32114
538.60        31.34496
539.04        31.41366
539.47        31.50444
539.91        31.60093
540.35        31.68832
540.79        31.77681
541.22        31.87135
541.66        31.98196
542.10        32.10765
542.54        32.24352
542.97        32.37476
543.41        32.49876
543.85        32.61138
544.29        32.72134
544.72        32.83535
545.16        32.98475
545.60        33.16511
546.04        33.36288
546.47        33.57436
546.91        33.78949
547.35        33.99617
547.79        34.21246
548.22        34.40697
548.66        34.51975
549.10        34.57271
549.53        34.70326
549.97         34.9267
550.41        35.14643
550.84        35.35961
551.28        35.63766
551.72        35.94088
552.15        36.16195
552.59         36.2944
553.03        36.35794
553.46        36.40052
553.90        36.52297
554.34        36.73592
554.77        37.02402
555.21        37.32145
555.65        37.50568
556.08        37.54578
556.52        37.53989
556.96        37.53482
557.39        37.63962
557.83        37.84411
558.27        37.96249
558.70        37.98702
559.14         38.0485
559.57         38.1348
560.01        38.21278
560.45        38.27755
560.88        38.28478
561.32        38.31153
561.75        38.49234
562.19        38.78875
562.63        39.01735
563.06        39.11497
563.50        39.03916
563.93        38.86306
564.37         38.8495
564.80        39.01389
565.24        39.24091
565.68        39.47946
566.11          39.691
566.55        39.86531
566.98        40.02217
567.42        40.17019
567.85        40.24664
568.29        40.31417
568.72        40.41181
569.16        40.55189
569.60        40.76791
570.03        41.07493
570.47        41.06274
570.90         41.2415
571.34        41.75274
571.77        41.88937
572.21        41.93759
572.64         42.3724
573.08        42.30974
573.51        42.33347
573.95        42.52732
574.38        42.86777
574.82        43.02925
575.25        42.87071
575.69        42.82856
576.12         42.8279
576.56        43.21358
576.99        43.29911
577.42        43.17331
577.86        43.20611
578.29        43.44685
578.73        43.11765
579.16        43.04322
579.60          42.894
580.03        42.76432
580.47        42.64411
580.90        42.73694
581.33        42.78819
581.77        42.92315
582.20        42.57366
582.64        42.37463
583.07        42.21799
583.51        42.02761
583.94        41.95817
584.37        41.84391
584.81        41.68553
585.24        41.58926
585.68        41.64662
586.11         41.1789
586.54         41.4523
586.98        41.10991
587.41        41.24805
587.85        40.67187
588.28        40.86374
588.71        40.81069
589.15        40.87746
589.58        40.58602
590.01        40.71934
590.45        40.93903
590.88        40.46037
591.31        40.39782
591.75        40.45505
592.18        40.45559
592.61        40.49549
593.05        40.72577
593.48        41.04702
593.91        41.02314
594.35        40.86722
594.78        41.22418
595.21        41.41351
595.65        41.43467
596.08        41.11341
596.51        41.63188
596.94        41.78965
597.38        42.18725
597.81        42.47791
598.24        42.49623
598.68        42.98026
599.11        43.26423
599.54        43.82964
599.97        43.93114
600.41        44.46004
600.84        44.76044
601.27        45.03925
601.70        45.33211
602.14        45.51961
602.57        45.99637
603.00         46.4814
603.43        47.12938
603.87        47.28228
604.30        47.87988
604.73        47.89155
605.16        48.51118
605.60        48.92111
606.03        49.55014
606.46        50.13382
606.89        50.43584
607.32        50.63212
607.76        51.41676
608.19        51.38954
608.62        51.72662
609.05        52.03075
609.48        52.24966
609.92        52.40358
610.35        52.73585
610.78        53.37886
611.21         53.3256
611.64        53.93835
612.07        54.02726
612.50        54.04327
612.94        54.19886
613.37        54.56458
613.80        54.76792
614.23        55.12596
614.66         55.4508
615.09        55.77938
615.52         56.0266
615.96        56.23789
616.39        56.22437
616.82        56.37756
617.25        56.88247
617.68        56.88457
618.11        57.03402
618.54        57.12292
618.97        57.47463
619.40        57.95655
619.84        58.32603
620.27        58.23876
620.70        58.02338
621.13        57.66122
621.56        57.97734
621.99        58.20179
622.42         58.1618
622.85        58.10704
623.28        58.60578
623.71        58.72214
624.14        58.13621
624.57        58.47178
625.00        58.73613
625.43        58.45548
625.86        58.27637
626.29        57.91912
626.72        58.12742
627.15        57.77694
627.58        57.84047
628.01        57.97377
628.44        57.67006
628.87        57.11914
629.30         57.3391
629.73        56.89105
630.16        56.36312
630.59         56.2729
631.02        56.10781
631.45        56.06813
631.88         55.8749
632.31        55.51728
632.74        55.05561
633.17        54.61711
633.60        54.21761
634.03        53.89956
634.46         53.6403
634.89        53.38438
635.32        53.03338
635.75        52.56843
636.18        52.05404
636.61          51.545
637.04        51.06406
637.47        50.66226
637.89        50.45211
638.32         50.3506
638.75        50.13989
639.18        49.78958
639.61        49.40934
640.04        49.03434
640.47        48.69638
640.90        48.41665
641.33        48.16671
641.76        47.93081
642.18        47.80477
642.61        47.59447
643.04        47.45535
643.47        47.34642
643.90        47.28999
644.33         47.2862
644.76        47.32974
645.18        47.39791
645.61        47.44725
646.04        47.47565
646.47        47.49343
646.90        47.54035
647.33        47.70216
647.75        48.00124
648.18        48.35228
648.61         48.7074
649.04        49.16885
649.47        49.64256
649.89        49.72488
650.32        49.56861
650.75        49.87801
651.18        50.65054
651.61        51.30492
652.03        51.71222
652.46        52.12743
652.89        52.64321
653.32        52.88437
653.74         53.1528
654.17        54.28101
654.60        54.12497
655.03        54.51807
655.46        55.24448
655.88        56.15798
656.31        57.14978
656.74        59.90986
657.16        59.26029
657.59        59.01484
658.02        57.94324
658.45        58.55093
658.87         59.2002
659.30        59.12619
659.73        58.96719
660.15        59.32103
660.58        59.31031
661.01         59.8977
661.44        60.56966
661.86        60.79576
662.29        60.60371
662.72        60.62042
663.14        60.92672
663.57        61.19943
664.00        61.40548
664.42        61.57326
664.85        61.70271
665.27        61.83409
665.70          61.961
666.13        62.03986
666.55        62.07988
666.98        62.10185
667.41         62.1525
667.83        62.29653
668.26        62.53569
668.69        62.85676
669.11        63.20565
669.54        63.48587
669.96        63.67556
670.39        63.78688
670.82        63.86454
671.24        63.97476
671.67        64.12991
672.09         64.3151
672.52        64.50726
672.94         64.5731
673.37        64.54925
673.80        64.61914
674.22        64.78495
674.65          64.849
675.07        64.82332
675.50        64.80505
675.92        64.82053
676.35        64.84984
676.77        64.90785
677.20        65.00435
677.62        65.13561
678.05        65.27657
678.47        65.41534
678.90        65.55549
679.32        65.70521
679.75        65.88451
680.17        66.09073
680.60        66.35011
681.02        66.59185
681.45        66.65311
681.87        66.56828
682.30        66.40716
682.72        66.28253
683.15         66.4796
683.57        66.92377
684.00        67.04975
684.42        66.87899
684.85        66.93552
685.27        67.21827
685.70        67.39697
686.12        67.43931
686.54        67.54071
686.97        67.69263
687.39        67.72224
687.82        67.66867
688.24        67.82195
688.66        67.73489
689.09        67.76552
689.51        67.80084
689.94        67.84454
690.36        67.90151
690.78        67.98602
691.21         68.1038
691.63        68.08875
692.06        68.27606
692.48        68.16659
692.90        67.95203
693.33        67.91518
693.75        68.08858
694.17        68.32761
694.60        68.54987
695.02        68.71405
695.44        68.78139
695.87         68.7695
696.29        68.74079
696.71        68.79832
697.14        68.94633
697.56        69.15546
697.98        69.36332
698.41        69.55076
698.83        69.68273
699.25        69.77186
699.68        69.82278
700.10          69.907
700.52         70.0237
700.94        70.15762
701.37        70.25649
701.79         70.2768
702.21        70.19434
702.64        70.04662
703.06        69.89976
703.48        69.87244
703.90        69.99713
704.33        70.23922
704.75          70.525
705.17        70.70825
705.59        70.74532
706.01        70.64326
706.44        70.50322
706.86        70.59061
707.28        70.73184
707.70        71.11514
708.12         71.5371
708.55         71.5489
708.97        71.20725
709.39        71.09534
709.81        71.25378
710.23        71.28364
710.66        71.19212
711.08         71.2672
711.50        71.46393
711.92        71.59342
712.34         71.6382
712.76        71.65092
713.19        71.66135
713.61        71.76467
714.03        71.95235
714.45        72.18488
714.87        72.40772
715.29        72.54684
715.71        72.58434
716.13        72.54473
716.56        72.44875
716.98        72.41167
717.40        72.43946
717.82        72.51532
718.24        72.62188
718.66        72.73026
719.08        72.82667
719.50        72.91399
719.92        73.00019
720.34        73.09556
720.76        73.19493
721.19        73.28487
721.61        73.36028
722.03        73.33044
722.45        73.18272
722.87        73.04556
723.29        73.00275
723.71        72.65678
724.13        72.85394
724.55        72.94036
724.97        73.14652
725.39        73.27908
725.81        73.28726
726.23        73.67398
726.65        73.67039
727.07        73.64948
727.49        73.82413
727.91        73.85154
728.33        73.85545
728.75        73.83178
729.17        73.80781
729.59        73.76699
730.01        73.71335
730.43        73.72342
730.85        73.84632
731.27         73.7287
731.69        74.11391
732.10        74.21893
732.52        74.23892
732.94        74.28825
733.36        74.37603
733.78        74.33688
734.20         74.1431
734.62        74.40254
735.04         73.9779
735.46        74.21344
735.88        74.65771
736.30         74.7127
736.72         74.3955
737.13        74.37918
737.55        74.64706
737.97        74.66628
738.39        74.46934
738.81        74.48531
739.23        74.70461
739.65        74.83909
740.06        74.82683
740.48        74.84311
740.90        74.84833
741.32        74.84059
741.74        74.73513
742.16        74.72823
742.57        74.81114
742.99        74.94454
743.41        75.09106
743.83         75.1736
744.25         75.1739
744.67        75.10607
745.08        75.04347
745.50        75.06012
745.92        75.19107
746.34        75.41227
746.75        75.62666
747.17        75.69307
747.59        75.58528
748.01        75.28891
748.42        74.94945
748.84        74.90733
749.26        75.14084
749.68        75.34912
750.09        75.43762
750.51        75.36916
750.93        75.19036
751.35        75.21388
751.76        75.43684
752.18        75.45058
752.60        75.22946
753.01        75.45995
753.43        75.32535
753.85        75.44633
754.27        75.57617
754.68        75.74854
755.10        75.91835
755.52        76.03225
755.93         76.0918
756.35        76.08242
756.77        76.00795
757.18        76.04586
757.60        76.28697
758.02        76.20995
758.43        75.97079
758.85        76.62151
759.26        77.00307
759.68        76.07567
760.10        76.15011
760.51         76.0605
760.93        76.60107
761.34        76.24176
761.76         76.3774
762.18          76.298
762.59        76.44864
763.01        76.63046
763.42        76.83149
763.84        76.90646
764.26        76.87049
764.67        76.71874
765.09        76.59583
765.50        76.78721
765.92        77.19567
766.33        77.26595
766.75        76.92452
767.16        76.62811
767.58        76.45995
768.00        76.44452
768.41        76.61773
768.83        76.90533
769.24        77.18937
769.66        77.33048
770.07        77.30759
770.49        77.24611
770.90        77.22351
771.32        77.33759
771.73        77.53515
772.15        77.57212
772.56        77.45237
772.97        77.28618
773.39        77.14157
773.80        77.22074
774.22        77.47912
774.63         77.7319
775.05        77.87032
775.46        77.98039
775.88        78.00351
776.29        77.88734
776.70        77.71123
777.12        77.68439
777.53         77.8602
777.95        78.14359
778.36        78.44769
778.77        78.59005
779.19        78.53277
779.60        78.42043
780.02        78.29465
780.43        78.12641
780.84        78.00043
781.26        78.11118
781.67        78.49799
782.09        78.93056
782.50        79.13183
782.91        79.70202
783.33        78.75874
783.74        78.58897
784.15        78.67292
784.57        78.55363
784.98        78.29102
785.39        78.40939
785.81        78.85296
786.22        79.09007
786.63        79.09914
787.04        79.24618
787.46        79.52673
787.87        79.68893
788.28        79.72895
788.70        79.74864
789.11        79.73765
789.52        79.67966
789.93        79.59972
790.35        79.54636
790.76        79.53664
791.17           79.49
791.58        79.43714
792.00        79.42049
792.41        79.45644
792.82        79.64026
793.23        79.91077
793.65        79.84123
794.06        79.59142
794.47        79.94725
794.88        80.72005
795.29        81.03103
795.71        80.78152
796.12        80.49235
796.53        80.25795
796.94        80.11532
797.35        80.09522
797.76        80.10492
798.18        80.11843
798.59        80.14662
799.00        80.17586
799.41        80.16698
799.82        80.12608
800.23        80.10207
800.64        80.10124
801.06        80.08125
801.47         80.0781
801.88        80.06734
802.29         80.0547
802.70         80.0585
803.11        80.08779
803.52        80.15236
803.93        80.24886
804.34        80.35578
804.75        80.49509
805.17        80.66838
805.58        80.89199
805.99        81.20596
806.40        81.50082
806.81        81.42596
807.22        81.03584
807.63        80.75316
808.04        80.67171
808.45        80.62962
808.86        80.65334
809.27        80.90239
809.68        81.27722
810.09        81.48843
810.50        81.47412
810.91        81.31904
811.32        81.10257
811.73        80.97399
812.14        80.98462
812.55        81.03571
812.96        81.10191
813.37        81.26836
813.78        81.45739
814.19        81.41305
814.60        81.19794
815.01         81.1396
815.42        81.26747
815.83        81.40593
816.24        81.52032
816.65        81.63276
817.05        81.72974
817.46        81.76674
817.87        81.79157
818.28        81.82274
818.69        81.86614
819.10        81.91461
819.51        81.96475
819.92        82.00832
820.33        82.04095
820.74        82.06557
821.14         82.0694
821.55        82.06781
821.96        82.04235
822.37        81.98983
822.78        81.92387
823.19        81.86779
823.60        81.83524
824.00        81.86104
824.41        81.87236
824.82        81.84261
825.23        81.77441
825.64        81.68834
826.04         81.6888
826.45        81.90127
826.86        82.34787
827.27        82.95692
827.68        83.58994
828.08        84.05611
828.49        84.20973
828.90        84.13898
829.31        83.90088
829.72        83.60504
830.12        83.33583
830.53        83.02747
830.94        82.73557
831.35        82.50877
831.75        82.38658
832.16        82.32207
832.57        82.32791
832.97        82.36148
833.38         82.3927
833.79        82.44044
834.20        82.47264
834.60        82.44126
835.01        82.35888
835.42        82.22025
835.82        82.12291
836.23        82.15146
836.64        82.35466
837.04        82.71938
837.45        83.08511
837.86        83.29523
838.26        83.31499
838.67        83.16806
839.08        82.96552
839.48        82.87516
839.89        82.94124
840.29        83.11414
840.70        83.31493
841.11        83.42317
841.51        83.42548
841.92        83.32476
842.33        83.19394
842.73        83.14224
843.14        83.14935
843.54        83.21637
843.95         83.2918
844.35        83.32197
844.76         83.2793
845.17        83.18684
845.57        83.09928
845.98        83.05686
846.38         83.1023
846.79        83.19691
847.19        83.30842
847.60        83.32241
848.00        83.24421
848.41        83.06693
848.81        82.90641
849.22        82.86919
849.62        83.01613
850.03        83.27975
850.43        83.57377
850.84        83.67053
851.24        83.57735
851.65        83.28859
852.05        82.99792
852.46        82.92038
852.86        83.11111
853.27        83.49114
853.67        83.83682
854.07        84.05392
854.48         84.0649
854.88        83.96902
855.29        83.70026
855.69        83.38054
856.10        82.96714
856.50        82.53944
856.90        82.15593
857.31        81.94827
857.71        81.98859
858.12        82.18715
858.52        82.49373
858.92        82.67871
859.33         82.6571
859.73        82.52625
860.13        82.30078
860.54        82.05363
860.94        81.86513
861.34        81.66096
861.75        81.45636
862.15        81.33918
862.55        81.28919
862.96        81.32609
863.36         81.3394
863.76         81.1157
864.17        80.62605
864.57        79.95323
864.97        79.32896
865.38        79.10458
865.78        79.39834
866.18        80.07807
866.58        80.86144
866.99        81.24863
867.39         81.1245
867.79        80.61166
868.19        79.95463
868.60        79.47993
869.00        79.27524
869.40        79.26854
869.80         79.3934
870.21        79.53757
870.61        79.72246
871.01        79.92828
871.41         80.1392
871.81        80.32175
872.22        80.44519
872.62        80.53495
873.02        80.60983
873.42        80.71104
873.82         80.8403
874.22        80.97826
874.63        81.12837
875.03        81.25607
875.43        81.36666
875.83        81.46571
876.23        81.52901
876.63        81.51874
877.03        81.42201
877.44        81.22684
877.84        80.99442
878.24        80.78932
878.64        80.63586
879.04        80.53955
879.44        80.43639
879.84        80.22289
880.24        79.88486
880.64        79.44524
881.04        79.03423
881.44        78.87396
881.84         79.0133
882.24        79.39024
882.65        79.78001
883.05        79.91122
883.45        79.68198
883.85        79.21501
884.25        78.73321
884.65        78.56845
885.05        78.79192
885.45        79.28094
885.85        79.89706
886.25        80.40353
886.65        80.69628
887.05        80.83904
887.45        80.84057
887.85        80.71351
888.25        80.48784
888.65        80.16127
889.04        79.79545
889.44         79.5502
889.84        79.44329
890.24        79.42558
890.64        79.46621
891.04        79.49948
891.44        79.49931
891.84        79.51705
892.24        79.46267
892.64        79.18827
893.04        78.70784
893.44        78.07647
893.83        77.57759
894.23        77.60077
894.63        78.23133
895.03        79.31554
895.43        80.51874
895.83        81.28354
896.23        81.45781
896.63        81.21356
897.02        80.75639
897.42         80.4575
897.82        80.40287
898.22        80.47101
898.62        80.62331
899.01        80.81417
899.41        80.98537
899.81        81.20367
900.21        81.38413
900.61         81.3659
901.00        81.12424
901.40         80.7094
901.80          80.299
902.20        80.19642
902.59        80.46956
902.99        81.01379
903.39         81.6241
903.79        81.94177
904.18        81.87605
904.58        81.56202
904.98        81.17982
905.38        81.01134
905.77        81.10204
906.17        81.34035
906.57        81.61656
906.96        81.77306
907.36         81.7265
907.76        81.59443
908.15        81.36831
908.55        80.94222
908.95        80.38879
909.34        79.72014
909.74        79.23394
910.14        79.33758
910.53         80.0844
910.93        81.31309
911.33        82.63459
911.72        83.37174
912.12        83.32758
912.52        82.73244
912.91        81.89321
913.31        81.29873
913.70        81.07004
914.10        81.05883
914.49        81.20847
914.89        81.34121
915.29         81.4138
915.68        81.49622
916.08        81.59315
916.47        81.68547
916.87        81.78308
917.26        81.83717
917.66        81.85954
918.05        81.85321
918.45        81.80869
918.84        81.75257
919.24        81.65192
919.64        81.53884
920.03        81.44626
920.42        81.37976
920.82        81.34572
921.21        81.33576
921.61        81.33234
922.00        81.34234
922.40        81.40974
922.79        81.69621
923.19        82.16327
923.58        82.78784
923.98        83.32179
924.37        83.45578
924.77        83.12483
925.16        82.39582
925.55        81.56763
925.95        81.15971
926.34        81.31749
926.74        81.89301
927.13        82.57768
927.52        82.76581
927.92        82.36243
928.31        81.55817
928.70         80.7326
929.10        80.45127
929.49        80.83871
929.89        81.66022
930.28         82.6664
930.67         83.2854
931.07        83.31628
931.46        82.97439
931.85        82.40376
932.24        81.86779
932.64        81.47694
933.03        81.14531
933.42        80.93632
933.82        80.95682
934.21         81.2113
934.60        81.69768
934.99        82.25459
935.39        82.55913
935.78        82.57083
936.17        82.34824
936.56        82.05917
936.96        82.00327
937.35        82.30317
937.74        82.80594
938.13        83.36912
938.53        83.79942
938.92        84.03909
939.31         84.1409
939.70        84.12757
940.09        84.03348
940.49        83.85828
940.88        83.62157
941.27        83.33276
941.66        83.01723
942.05        82.69693
942.44        82.40957
942.84        82.17411
943.23         81.9539
943.62        81.77224
944.01        81.62244
944.40        81.56057
944.79        81.68143
945.18        81.97282
945.57        82.37262
945.97        82.70035
946.36        82.76063
946.75        82.49301
947.14        81.97229
947.53        81.34213
947.92        80.86963
948.31        80.65213
948.70        80.61864
949.09          80.724
949.48        80.87612
949.87        81.04413
950.26        81.29235
950.65        81.54917
951.04        81.70023
951.43        81.71608
951.82        81.55093
952.21        81.39668
952.60        81.60214
952.99        82.20468
953.38        83.10662
953.77        83.86381
954.16        83.79269
954.55        82.80362
954.94         81.1213
955.33        79.34367
955.72        78.46986
956.11        78.76245
956.50        79.94659
956.89        81.46112
957.28        82.28519
957.66        82.12099
958.05         81.2653
958.44        80.13106
958.83        79.37304
959.22        79.19585
959.61        79.34013
960.00        79.69583
960.39        80.11755
960.78        80.51322
961.16         81.0031
961.55        81.35883
961.94        81.28315
962.33         80.7393
962.72        79.82603
963.11        78.88617
963.49        78.44086
963.88        78.61247
964.27        79.29013
964.66        80.19025
965.04        80.80804
965.43        80.87912
965.82        80.56167
966.21        80.15766
966.60        80.14629
966.98        80.64169
967.37        81.47011
967.76        82.27557
968.15        82.37733
968.53         81.6431
968.92        80.34829
969.31        79.02206
969.69        78.42921
970.08        78.73451
970.47        79.67577
970.86         81.0069
971.24        82.28642
971.63        83.21091
972.02        83.91779
972.40        84.30941
972.79        84.13058
973.17        83.48201
973.56        82.32472
973.95        81.05884
974.33        80.40163
974.72        80.54028
975.11        81.31889
975.49         82.2808
975.88        82.62339
976.26        82.15764
976.65        81.12073
977.04        79.89384
977.42         79.1243
977.81        78.97099
978.19        79.17952
978.58        79.76974
978.96        80.72187
979.35         81.8708
979.74        83.28394
980.12        84.50967
980.51        84.57507
980.89        83.46327
981.28        81.30698
981.66        79.00179
982.05        78.22941
982.43        79.42008
982.82        81.98221
983.20        84.95486
983.59        86.68132
983.97         86.8112
984.35        85.76716
984.74        83.99609
985.12        82.34634
985.51        81.20832
985.89        80.38171
986.28         79.8819
986.66        79.79298
987.04        80.03864
987.43        80.62196
987.81        81.39146
988.20        81.90112
988.58        82.06808
988.96        81.96536
989.35        81.60951
989.73        81.17797
990.12        80.68802
990.50        80.04115
990.88        79.46999
991.27        79.49365
991.65         80.2225
992.03        81.49271
992.42        82.60249
992.80          82.898
993.18        82.17577
993.56        80.49361
993.95        78.38884
994.33         77.2649
994.71        77.76595
995.10        79.29677
995.48        80.89886
995.86        81.48348
996.24        80.95178
996.63        79.53333
997.01         77.8644
997.39        77.22773
997.77        78.11767
998.15        80.04918
998.54        82.10739
998.92        83.08807
999.30        82.74838
999.68        81.46902
1000.06        79.82883
1000.45         78.8715
1000.83        79.02855
1001.21        79.84707
1001.59        80.93227
1001.97        81.71319
1002.35        82.04855
1002.73         82.2723
1003.12        82.26174
1003.50        81.67914
1003.88        80.62386
1004.26        79.11833
1004.64        78.00842
1005.02        78.42342
1005.40        80.39643
1005.78        83.66153
1006.16        86.93842
1006.54          87.858
1006.92        85.82355
1007.30        81.55992
1007.69        76.80177
1008.07        74.42504
1008.45        75.28569
1008.83        78.43156
1009.21        82.39457
1009.59        85.09843
1009.97        85.94223
1010.35        85.41927
1010.73        84.00273
1011.11        82.88123
1011.49        82.70047
1011.86        83.12736
1012.24        83.51848
1012.62        83.28327
1013.00        82.35633
1013.38        81.12827
1013.76        80.10783
1014.14        80.05328
1014.52        81.15002
1014.90        83.05787
1015.28         85.3857
1015.66         87.3157
1016.04        88.40373
1016.41         88.9731
1016.79        88.66896
1017.17        87.39014
1017.55        85.32545
1017.93        82.58512
1018.31        80.12104
1018.69        79.43339
1019.06          80.939
1019.44        84.43726
1019.82        88.82183
1020.20         91.5398
1020.58        91.55006
1020.95        89.41022
1021.33        86.61449
1021.71        85.07706
1022.09        85.14603
1022.46        86.29741
1022.84        87.53733
1023.22        86.96753
1023.60        83.98277
1023.97        78.79578
1024.35        73.12275
1024.73        70.65145
