SpectraSmart Spectrum 2.9.0.0
--------- Device Information -----------
Spectrum Name :  反射率_0
Saving Time :  2024/04/27 23:09:08
Spectro-Module Model Name : SE2030-DUVN
Spectro-Module Serial Number : OS361AC55029948
Wavelength Start : 200
Wavelength End : 1025
Wavelength Unit : Wavelength(nm)
Spectrum Unit : Reflectance(%)
-----------Spectrum Setting ------------
Integration Time : 20ms
Average : 10
Boxcar : 0
Background removal :  enabled
linearity correction :  enabled
SC :  disabled
Intensity correction :  disabled
DWT denoise :  enabled
savitzky-golay :  disabled
FFT :  disabled
Running average :  disabled
Kalman :  disabled
High pass :  disabled
---------------BEGIN--------------------
Wavelength(nm)             Reflectance(%)
200.29               0
200.75       -3.032696
201.21        1.109257
201.67        7.577623
202.13         13.9551
202.58        20.34899
203.04        26.86987
203.50        35.25813
203.96        46.19885
204.42         57.7285
204.88        68.77403
205.34        77.00062
205.80        80.72441
206.26        80.17329
206.72        74.29898
207.18        63.47142
207.64        57.58263
208.10        62.97367
208.55        73.28318
209.01         79.2479
209.47        77.37247
209.93        65.88329
210.39        33.03441
210.85       -70.49024
211.31       -209.5921
211.77       -69.47772
212.23        30.32304
212.69        66.58093
213.14        77.49146
213.60        76.45851
214.06         66.8689
214.52        47.14206
214.98        31.09488
215.44        35.37401
215.90        47.48491
216.36        57.65874
216.81        62.84392
217.27        64.38448
217.73        64.67617
218.19        64.17676
218.65        63.04294
219.11         61.5854
219.57        59.46778
220.02        57.35709
220.48        58.12001
220.94        61.79364
221.40        66.98509
221.86        71.89955
222.32        74.93068
222.77        76.16788
223.23        76.31224
223.69         75.9721
224.15         75.7377
224.61        75.76783
225.06        75.78384
225.52        75.97755
225.98        76.15808
226.44        76.24899
226.90        76.27142
227.36        76.25223
227.81         76.1366
228.27        76.02139
228.73        75.81577
229.19        75.41637
229.65        74.68767
230.10        73.59265
230.56        72.50764
231.02        71.54663
231.48        70.94427
231.93        70.66398
232.39        70.75927
232.85        71.13439
233.31         71.7547
233.77        72.53613
234.22        73.46453
234.68        74.31075
235.14        74.82072
235.60        74.96036
236.05        74.73548
236.51        74.38369
236.97        74.47469
237.43        75.17341
237.88         76.4609
238.34        77.51062
238.80        77.75755
239.26        76.90975
239.71        74.60474
240.17        70.46405
240.63         67.1162
241.08        67.70812
241.54        70.89207
242.00        73.48853
242.46        73.32652
242.91        70.01694
243.37        61.54791
243.83        44.19698
244.28        24.25656
244.74        27.97955
245.20        52.78561
245.66        72.56398
246.11        78.31678
246.57        73.22445
247.03        57.32162
247.48        31.03068
247.94        14.30202
248.40        26.54098
248.85          55.313
249.31        82.81199
249.77        95.18885
250.22        94.66601
250.68        88.61268
251.14        81.77624
251.59        77.53183
252.05        75.96415
252.51        75.32012
252.96        74.34238
253.42        71.75545
253.88        67.89319
254.33         65.4164
254.79        64.63713
255.25         64.3507
255.70        64.18817
256.16        64.35963
256.62         65.5247
257.07        68.41501
257.53        72.39926
257.99        76.10222
258.44        78.10199
258.90        77.67979
259.35        75.04588
259.81        71.67507
260.27        68.33235
260.72        65.96691
261.18        65.00599
261.63        64.62473
262.09        64.72416
262.55        64.78896
263.00        64.60543
263.46         64.4593
263.91        64.18371
264.37        63.93694
264.83         63.6438
265.28        63.24578
265.74        62.80791
266.19        62.15713
266.65        61.39726
267.11        60.51076
267.56        59.62152
268.02        59.04046
268.47        58.74508
268.93        58.65097
269.38        58.53328
269.84        58.08054
270.30        57.21483
270.75        56.05367
271.21        54.73494
271.66        53.40919
272.12        52.18732
272.57        50.99464
273.03        49.93926
273.48        49.08546
273.94        48.48185
274.39        48.03942
274.85        47.67908
275.31        47.16063
275.76        46.42102
276.22        45.58946
276.67        44.69057
277.13        43.90673
277.58        43.21006
278.04        42.60317
278.49        42.02333
278.95        41.52959
279.40        41.04417
279.86        40.63375
280.31        40.18199
280.77        39.66751
281.22        39.03921
281.68        38.38298
282.13        37.72815
282.59        37.19947
283.04        36.77571
283.50        36.44102
283.95        36.12846
284.41        35.79965
284.86        35.41827
285.32         35.0366
285.77        34.63913
286.22        34.25212
286.68        33.90072
287.13        33.54091
287.59        33.21926
288.04        32.92113
288.50        32.67916
288.95        32.45825
289.41        32.26914
289.86        32.06672
290.32        31.86959
290.77        31.67924
291.22        31.50967
291.68          31.374
292.13        31.26614
292.59        31.19616
293.04        31.18505
293.50        31.29474
293.95        31.52167
294.40        31.86734
294.86        32.26503
295.31        32.59951
295.77        32.85682
296.22        33.04357
296.68        33.27182
297.13        33.69656
297.58        34.33892
298.04         35.1365
298.49        35.91951
298.95        36.45864
299.40        36.71064
299.85        36.75852
300.31        36.79004
300.76        37.06234
301.21        37.63691
301.67        38.41876
302.12        39.21739
302.58         39.8025
303.03        40.09958
303.48        40.20721
303.94        40.26388
304.39        40.41827
304.84        40.72953
305.30        41.14586
305.75        41.56503
306.20        41.88606
306.66        42.09607
307.11        42.20473
307.57        42.29581
308.02        42.41938
308.47        42.60367
308.93        42.81988
309.38        42.99204
309.83         43.0463
310.29        42.97915
310.74        42.80616
311.19        42.59089
311.65        42.42621
312.10        42.32007
312.55        42.25446
313.00        42.19885
313.46        42.10592
313.91        41.95535
314.36        41.76907
314.82        41.55373
315.27        41.31474
315.72        41.06197
316.18        40.80256
316.63          40.542
317.08        40.31269
317.53        40.12198
317.99        39.96064
318.44        39.82068
318.89         39.6716
319.35         39.5015
319.80         39.3124
320.25        39.11298
320.70        38.92455
321.16        38.74185
321.61        38.56625
322.06        38.36509
322.51        38.09134
322.97        37.73655
323.42        37.33541
323.87        36.93184
324.32        36.60635
324.78        36.37851
325.23        36.23538
325.68        36.14091
326.13        36.03979
326.59        35.89598
327.04        35.74395
327.49        35.57146
327.94        35.37193
328.39        35.14643
328.85        34.88428
329.30        34.61609
329.75        34.37634
330.20        34.18094
330.66        34.01461
331.11        33.88127
331.56        33.72778
332.01        33.54005
332.46        33.32714
332.92        33.10308
333.37        32.93071
333.82         32.8119
334.27        32.73098
334.72        32.65649
335.17        32.53742
335.63         32.3549
336.08        32.14771
336.53        31.93432
336.98         31.7591
337.43        31.64041
337.88        31.56653
338.34        31.53308
338.79        31.53917
339.24        31.57328
339.69        31.62979
340.14         31.6851
340.59        31.70211
341.05        31.67095
341.50        31.60566
341.95        31.50842
342.40        31.39674
342.85        31.27767
343.30        31.13971
343.75        31.00608
344.20         30.9129
344.66        30.86815
345.11         30.8677
345.56        30.85409
346.01        30.73044
346.46         30.4868
346.91        30.15554
347.36        29.84279
347.81        29.70863
348.26        29.78281
348.72        30.01896
349.17        30.29284
349.62        30.40605
350.07         30.3091
350.52        30.05124
350.97        29.76378
351.42         29.6594
351.87        29.77815
352.32        30.04443
352.77        30.30335
353.22        30.32215
353.67        30.05647
354.13        29.60339
354.58        29.08846
355.03        28.76173
355.48        28.68864
355.93        28.79362
356.38        28.96025
356.83        29.00603
357.28        28.88386
357.73        28.65995
358.18        28.40607
358.63           28.23
359.08        28.15764
359.53        28.13744
359.98        28.13442
360.43        28.10245
360.88        28.02277
361.33        27.91405
361.78        27.75765
362.23        27.55496
362.68        27.31962
363.13        26.99325
363.58        26.61171
364.03        26.57143
364.48        26.34181
364.93        26.33835
365.38        26.34561
365.83        26.29109
366.28        26.14728
366.73        25.94237
367.18        25.71446
367.63        25.51229
368.08        25.35306
368.53        25.21963
368.98        25.09388
369.43        24.94698
369.88        24.77526
370.33        24.59852
370.78        24.43032
371.23        24.29048
371.68        24.18167
372.13        24.08426
372.58        24.00626
373.03        23.96165
373.48        23.94545
373.93        23.96039
374.38         23.9463
374.83         23.8074
375.28        23.53833
375.72        23.16316
376.17        22.81619
376.62        22.66782
377.07        22.74307
377.52        22.96855
377.97        23.22259
378.42        23.31448
378.87        23.19549
379.32        22.93572
379.77        22.59428
380.22         22.2586
380.67        21.96695
381.11         21.6951
381.56        21.47076
382.01        21.34258
382.46        21.31387
382.91        21.37513
383.36        21.46448
383.81        21.47709
384.26         21.3878
384.71         21.2223
385.15        21.01831
385.60        20.87399
386.05        20.80209
386.50        20.77598
386.95        20.77321
387.40        20.75854
387.85        20.72465
388.29        20.67925
388.74        20.64821
389.19        20.61897
389.64         20.5875
390.09        20.53429
390.54        20.48152
390.98        20.46561
391.43        20.49408
391.88        20.55478
392.33        20.56799
392.78        20.45206
393.23        20.21752
393.67        19.81877
394.12        19.39175
394.57        19.35264
395.02        19.37985
395.47        19.38714
395.91         19.2753
396.36        19.26389
396.81         19.3465
397.26        19.39575
397.71         19.3767
398.15        19.31038
398.60        19.22129
399.05        19.02802
399.50        18.82527
399.95        18.87325
400.39        19.12639
400.84        19.26971
401.29         19.2427
401.74        19.13339
402.18        18.97557
402.63        18.83895
403.08        18.74752
403.53        18.63608
403.97        18.52611
404.42        18.50561
404.87        18.56055
405.32        18.63205
405.76        18.70006
406.21        18.72883
406.66        18.72674
407.11        18.79616
407.55        18.88493
408.00        18.79309
408.45        18.52884
408.90        18.18113
409.34        17.86165
409.79        17.79857
410.24        17.95101
410.68        18.01812
411.13        17.97371
411.58        18.00914
412.03        18.11625
412.47        18.18063
412.92        18.17975
413.37         18.1476
413.81        18.09197
414.26        18.04178
414.71        18.00004
415.15        17.95801
415.60        17.91419
416.05        17.87704
416.49         17.8497
416.94        17.83152
417.39         17.8113
417.83        17.76966
418.28        17.69912
418.73        17.59987
419.17        17.49948
419.62        17.44599
420.07        17.45511
420.51        17.51885
420.96        17.59007
421.41        17.61629
421.85        17.58084
422.30        17.42012
422.74        17.22371
423.19        17.34137
423.64        17.70369
424.08        17.83184
424.53        17.65035
424.98        17.54442
425.42        17.53219
425.87        17.28129
426.31        16.90278
426.76        16.93045
427.21        17.27881
427.65        17.31369
428.10         17.0582
428.54        16.98512
428.99         17.0971
429.44        17.29908
429.88        17.44923
430.33        17.11984
430.77        16.50726
431.22        16.35509
431.66        16.66814
432.11        16.94874
432.56        17.11494
433.00        17.29049
433.45        17.29547
433.89        17.01594
434.34        16.75157
434.78         15.8856
435.23        16.46344
435.67         16.9671
436.12        17.18722
436.57        17.25798
437.01        17.06345
437.46        16.97279
437.90        17.07933
438.35        17.27558
438.79        16.99555
439.24        16.89562
439.68         16.8331
440.13        16.76799
440.57         16.6963
441.02        16.76525
441.46        16.93067
441.91        16.79956
442.35        16.49291
442.80        16.71731
443.24        17.32077
443.69         17.3315
444.13        16.79132
444.58        16.56557
445.02        16.66635
445.47        16.64381
445.91        16.49187
446.36        16.43362
446.80        16.46741
447.24        16.52435
447.69        16.58458
448.13        16.65808
448.58        16.71236
449.02         16.6697
449.47        16.56272
449.91        16.51785
450.36        16.55145
450.80        16.59171
451.25        16.62845
451.69        16.67293
452.13        16.71196
452.58        16.72615
453.02        16.71107
453.47        16.66893
453.91        16.60114
454.36        16.53817
454.80        16.46307
455.24        16.33165
455.69        16.18945
456.13        16.06855
456.58        16.01533
457.02        16.15689
457.46        16.39763
457.91         16.4331
458.35        16.33305
458.79        16.31104
459.24        16.39141
459.68        16.42495
460.13        16.41421
460.57        16.33967
461.01        16.27981
461.46        16.25092
461.90        16.19025
462.34         16.1784
462.79        16.46744
463.23        16.60217
463.68         16.6342
464.12        16.61067
464.56        16.54613
465.01         16.5027
465.45        16.44281
465.89        16.30355
466.34        16.15289
466.78        16.06333
467.22        16.02348
467.67        16.35221
468.11        16.30827
468.55        16.30577
468.99        16.17437
469.44        16.15212
469.88        16.24626
470.32        16.31936
470.77        16.35181
471.21        16.36584
471.65        16.36104
472.10        16.34205
472.54        16.31215
472.98        16.29952
473.42        16.31537
473.87        16.30329
474.31        16.28799
474.75         16.4609
475.20        16.75997
475.64        16.86157
476.08        16.75285
476.52        16.73942
476.97        16.84198
477.41        16.73202
477.85        16.59326
478.29        16.68922
478.74        16.61019
479.18        16.53763
479.62        16.87928
480.06        16.99663
480.50        17.05542
480.95        17.05985
481.39        17.00201
481.83         17.2356
482.27        17.24898
482.72        17.18193
483.16         17.4188
483.60        17.47513
484.04        17.47469
484.48           17.54
484.93        17.83249
485.37        17.73037
485.81        17.94097
486.25        18.60654
486.69        18.17723
487.14        17.53536
487.58        18.51721
488.02        18.30322
488.46        18.64952
488.90        18.87047
489.34        18.02893
489.79        17.74168
490.23         18.3708
490.67        18.74294
491.11        18.95248
491.55        19.01042
491.99        18.97663
492.43         19.0757
492.88        19.31205
493.32        19.46733
493.76        19.52659
494.20         19.6442
494.64        19.84103
495.08        20.00723
495.52        20.13827
495.96        20.41143
496.41        20.79493
496.85        20.74972
497.29        20.42412
497.73        20.60401
498.17        21.20259
498.61        21.50533
499.05        21.42474
499.49        21.36167
499.93        21.38778
500.37        21.43018
500.82        21.49104
501.26        21.62523
501.70        21.84426
502.14        21.68789
502.58        21.93454
503.02        22.01437
503.46         22.0636
503.90        22.11006
504.34        22.13766
504.78        22.19033
505.22        22.26074
505.66        22.30133
506.10        22.32599
506.54        22.41758
506.98        22.58355
507.42        22.68803
507.86        22.88268
508.30        22.98445
508.74         23.0358
509.18        23.04326
509.62        23.02768
510.06        23.02082
510.50        23.03282
510.94        23.05637
511.38        23.08853
511.82         23.1246
512.26        23.16064
512.70        23.20107
513.14        23.24125
513.58         23.2613
514.02        23.25994
514.46         23.2619
514.90        23.27835
515.34        23.24631
515.78         23.3034
516.22        23.33203
516.66        23.38052
517.10         23.4589
517.54        23.56242
517.98        23.68241
518.42        23.77705
518.86        23.78384
519.30        23.69378
519.74        23.52991
520.18        23.34727
520.62        23.23139
521.06        23.20627
521.50        23.25221
521.93        23.33319
522.37        23.37884
522.81        23.37183
523.25        23.32827
523.69        23.27698
524.13         23.2629
524.57        23.29274
525.01         23.3463
525.45        23.38586
525.89        23.35563
526.32        23.24304
526.76        23.07854
527.20        22.90192
527.64         22.7784
528.08        22.72522
528.52        22.72053
528.96        22.73931
529.40        22.74151
529.83        22.71216
530.27        22.66659
530.71         22.6053
531.15        22.52912
531.59        22.44328
532.03        22.34762
532.46        22.25477
532.90        22.19937
533.34        22.18472
533.78        22.20472
534.22        22.24342
534.66        22.27408
535.09        22.28758
535.53        22.29512
535.97        22.30209
536.41        22.32215
536.85        22.35703
537.28        22.39823
537.72        22.44123
538.16        22.47662
538.60        22.50307
539.04        22.53277
539.47        22.55502
539.91        22.56596
540.35         22.5637
540.79        22.55687
541.22        22.56688
541.66        22.62897
542.10        22.74672
542.54        22.90723
542.97        23.07887
543.41        23.22583
543.85        23.33402
544.29        23.41627
544.72        23.48436
545.16        23.57524
545.60         23.6909
546.04        23.81912
546.47        23.95636
546.91        24.09332
547.35        24.22301
547.79         24.3606
548.22        24.49153
548.66        24.58534
549.10        24.65753
549.53        24.80345
549.97        25.01687
550.41        25.20201
550.84        25.35095
551.28        25.52115
551.72        25.70587
552.15         25.8643
552.59        25.99761
553.03        26.10522
553.46        26.19641
553.90        26.30652
554.34        26.43697
554.77        26.59101
555.21        26.73815
555.65         26.8308
556.08         26.8369
556.52        26.83416
556.96        26.85028
557.39        26.96595
557.83        27.16849
558.27        27.32024
558.70        27.39937
559.14        27.47327
559.57         27.5293
560.01        27.55412
560.45        27.55332
560.88        27.51975
561.32        27.51914
561.75        27.61706
562.19        27.79885
562.63        28.01682
563.06        28.19416
563.50        28.15144
563.93        27.95191
564.37        27.92289
564.80         28.0787
565.24        28.26189
565.68        28.42355
566.11        28.54488
566.55        28.61929
566.98        28.67778
567.42        28.74443
567.85        28.77519
568.29        28.83424
568.72         28.9892
569.16        29.21565
569.60        29.48189
570.03        29.79499
570.47        29.81431
570.90        29.89598
571.34        30.48203
571.77        30.46349
572.21        30.48616
572.64        30.83113
573.08        30.73084
573.51        30.94098
573.95        31.00083
574.38        31.02935
574.82        31.24002
575.25        31.16167
575.69        31.12903
576.12        31.20922
576.56        31.47705
576.99        31.53768
577.42        31.13675
577.86        31.50871
578.29        31.65187
578.73        31.28794
579.16        31.24367
579.60        31.25366
580.03        31.24256
580.47        31.18497
580.90        30.98464
581.33        31.13175
581.77        31.11934
582.20        30.82658
582.64        30.58931
583.07        30.59138
583.51        30.47231
583.94        30.39598
584.37        30.24224
584.81        30.03886
585.24        29.94868
585.68         30.0441
586.11        29.67888
586.54        29.71428
586.98        29.72755
587.41        29.98516
587.85        29.50945
588.28        29.41496
588.71        29.41544
589.15        29.58796
589.58        29.24644
590.01        29.65874
590.45        29.60439
590.88         29.1169
591.31        29.04889
591.75        29.28749
592.18        29.32627
592.61        29.19442
593.05        29.48506
593.48        29.76148
593.91        29.58586
594.35         29.5868
594.78        29.80093
595.21        29.91994
595.65        30.03006
596.08        29.95356
596.51        30.38109
596.94        30.27013
597.38        30.54784
597.81        30.95972
598.24         30.8025
598.68        31.18809
599.11        31.57077
599.54        31.51002
599.97        31.66311
600.41        32.39827
600.84        32.73595
601.27        32.82978
601.70        33.00183
602.14        33.00716
602.57        33.58353
603.00        34.19193
603.43        34.62235
603.87        34.85159
604.30        35.00028
604.73         35.5871
605.16        36.04609
605.60        36.42525
606.03        36.83939
606.46        37.38011
606.89        37.29026
607.32         37.7126
607.76        38.28996
608.19        38.27393
608.62        38.57069
609.05        38.89083
609.48        39.18486
609.92        39.42588
610.35        39.59415
610.78        40.22604
611.21        39.92007
611.64        40.65408
612.07        40.77821
612.50        40.85997
612.94        41.05643
613.37        41.41903
613.80        41.54612
614.23         41.9729
614.66        42.12463
615.09        42.49665
615.52        42.72199
615.96        42.95095
616.39        42.87189
616.82        43.26379
617.25        43.39854
617.68        43.63025
618.11        43.72021
618.54        43.78115
618.97        44.02267
619.40        44.36631
619.84        44.76028
620.27        44.71361
620.70        44.71478
621.13        44.64962
621.56        44.84863
621.99        44.94193
622.42        44.88459
622.85        44.99603
623.28        45.09029
623.71        45.32708
624.14        44.96534
624.57        45.30516
625.00        45.60918
625.43        45.18744
625.86        45.14928
626.29        45.22752
626.72        44.90781
627.15        44.86868
627.58        44.74071
628.01        44.79137
628.44        44.35675
628.87        44.08617
629.30        44.25904
629.73        43.89355
630.16        43.28622
630.59        43.26107
631.02        42.99976
631.45         42.8026
631.88        42.57917
632.31        42.34785
632.74        41.91685
633.17        41.70363
633.60        41.37956
634.03        41.06717
634.46        40.75432
634.89        40.43554
635.32        40.08717
635.75        39.70501
636.18         39.3273
636.61         38.9552
637.04        38.54287
637.47        38.11758
637.89        37.78552
638.32        37.53291
638.75        37.27868
639.18        37.01952
639.61        36.81013
640.04        36.62461
640.47        36.40075
640.90        36.13284
641.33        35.82622
641.76        35.51108
642.18        35.32698
642.61        35.15035
643.04        35.07247
643.47        35.03691
643.90        35.01816
644.33        35.00413
644.76        35.00924
645.18        35.02562
645.61        35.03277
646.04        35.03259
646.47        35.02507
646.90        35.05049
647.33         35.1755
647.75        35.41581
648.18        35.75762
648.61          36.133
649.04        36.45632
649.47        36.70487
649.89        36.82761
650.32        36.91534
650.75        37.27431
651.18        37.86213
651.61        38.29934
652.03        38.51505
652.46        38.75658
652.89        39.14123
653.32        39.39035
653.74        39.67521
654.17        40.77543
654.60        40.68504
655.03        41.06446
655.46        41.37716
655.88        42.45446
656.31        43.60579
656.74        44.88399
657.16        44.65118
657.59          44.381
658.02        43.68833
658.45        44.25305
658.87         44.5663
659.30        44.65708
659.73         45.1163
660.15        45.05571
660.58        45.29737
661.01        45.63873
661.44         46.1735
661.86        46.43164
662.29        46.42517
662.72        46.55814
663.14        46.85513
663.57        47.09354
664.00        47.26009
664.42        47.41765
664.85         47.5749
665.27        47.73045
665.70         47.8833
666.13        48.02433
666.55         48.1566
666.98        48.28415
667.41        48.42226
667.83        48.58574
668.26        48.77218
668.69        48.98954
669.11        49.20837
669.54        49.38772
669.96        49.52445
670.39         49.5746
670.82        49.60197
671.24        49.80072
671.67        50.13361
672.09        50.35609
672.52         50.4365
672.94        50.44329
673.37        50.40783
673.80        50.35674
674.22        50.33956
674.65        50.35368
675.07        50.43201
675.50        50.59923
675.92        50.82981
676.35        51.03869
676.77        51.20791
677.20        51.36007
677.62         51.5013
678.05        51.62569
678.47        51.73632
678.90         51.8391
679.32        51.93652
679.75        52.04744
680.17        52.17273
680.60        52.31207
681.02        52.45278
681.45        52.55806
681.87        52.63087
682.30        52.66609
682.72        52.69204
683.15        52.77331
683.57        52.91521
684.00        53.01748
684.42        53.08607
684.85        53.20573
685.27        53.36793
685.70        53.52519
686.12        53.65315
686.54        53.75758
686.97        53.81956
687.39         53.8398
687.82        53.84917
688.24        53.79251
688.66        53.94135
689.09        54.05179
689.51        54.18094
689.94        54.26028
690.36        54.28568
690.78        54.27163
691.21        54.24392
691.63         54.2361
692.06        54.26714
692.48        54.33373
692.90        54.42369
693.33        54.50779
693.75        54.58133
694.17        54.65242
694.60        54.74006
695.02        54.88308
695.44        55.07254
695.87        55.32006
696.29        55.57347
696.71         55.6833
697.14        55.65449
697.56        55.68554
697.98        55.77784
698.41        55.83707
698.83         55.8558
699.25        55.91891
699.68        56.01694
700.10        56.13727
700.52        56.26545
700.94        56.41105
701.37        56.53302
701.79        56.59347
702.21        56.57084
702.64         56.4882
703.06        56.39196
703.48         56.3744
703.90        56.46234
704.33        56.62912
704.75        56.83139
705.17        56.97634
705.59        57.03781
706.01        57.01969
706.44        56.98161
706.86        57.11131
707.28        57.26133
707.70        57.55591
708.12        57.86641
708.55         57.9617
708.97        57.85933
709.39        57.84311
709.81         57.9314
710.23         57.9383
710.66        57.87163
711.08        57.87305
711.50        57.93419
711.92        57.99351
712.34        58.04972
712.76        58.12379
713.19        58.20811
713.61        58.32504
714.03        58.45356
714.45        58.57876
714.87        58.69353
715.29         58.7935
715.71        58.87513
716.13        58.94085
716.56        58.96612
716.98        58.97352
717.40        58.95113
717.82        58.91003
718.24         58.8817
718.66         58.9151
719.08        59.01863
719.50        59.17114
719.92        59.34753
720.34        59.50737
720.76        59.63129
721.19        59.71634
721.61        59.76108
722.03        59.74814
722.45        59.67697
722.87        59.53621
723.29        59.37704
723.71        59.30229
724.13        59.33764
724.55        59.45746
724.97        59.62173
725.39        59.76178
725.81        59.85277
726.23         59.9136
726.65        59.97285
727.07        60.06048
727.49         60.1906
727.91         60.3828
728.33        60.57959
728.75        60.64387
729.17        60.55592
729.59        60.39713
730.01        60.22417
730.43        60.08924
730.85        60.04755
731.27        60.13422
731.69        60.29241
732.10        60.55216
732.52        60.53231
732.94        60.62911
733.36        60.74005
733.78        60.74049
734.20        60.61541
734.62        60.80505
735.04        60.50735
735.46        60.69779
735.88        61.04859
736.30        61.12586
736.72        60.95515
737.13        60.97511
737.55        61.17353
737.97        61.36659
738.39         61.4864
738.81        61.33354
739.23        61.00801
739.65        61.08075
740.06        61.45521
740.48        61.57028
740.90        61.37521
741.32        61.25464
741.74        61.20322
742.16        61.26761
742.57        61.43838
742.99        61.76833
743.41        62.13487
743.83        62.17947
744.25        61.93777
744.67         61.8052
745.08        61.85181
745.50         61.8472
745.92        61.81908
746.34        61.93649
746.75        62.13833
747.17        62.19838
747.59        62.06216
748.01        61.90397
748.42        61.82745
748.84        61.63267
749.26        61.33745
749.68        62.15221
750.09        62.28868
750.51        62.43318
750.93        62.15784
751.35        62.18925
751.76        62.50706
752.18        62.58757
752.60        62.44215
753.01        62.36952
753.43        62.37115
753.85        62.34477
754.27        62.29546
754.68         62.2494
755.10        62.24375
755.52        62.33497
755.93        62.52987
756.35        62.80418
756.77        63.06765
757.18        63.23643
757.60        63.30816
758.02        63.13633
758.43        62.82228
758.85        63.00147
759.26        63.51239
759.68         63.2856
760.10        62.49571
760.51        62.31189
760.93        62.74564
761.34        63.23245
761.76         63.4531
762.18        63.44976
762.59        63.25365
763.01        63.24113
763.42        63.48475
763.84        63.55725
764.26        63.49997
764.67        63.56718
765.09         63.7743
765.50        63.96733
765.92        64.07795
766.33        63.98954
766.75         63.7046
767.16        63.34969
767.58        63.03484
768.00        63.26024
768.41        63.89434
768.83        63.92346
769.24        63.41185
769.66        63.41809
770.07        63.87799
770.49         63.9441
770.90        63.66782
771.32        63.74265
771.73        64.12987
772.15         64.2917
772.56        64.21727
772.97        64.13821
773.39        64.07493
773.80        64.06334
774.22        64.08704
774.63        64.11232
775.05        64.11588
775.46         64.1868
775.88         64.2966
776.29        64.43306
776.70        64.55864
777.12        64.63896
777.53        64.68018
777.95        64.66774
778.36        64.64561
778.77        64.67179
779.19        64.76031
779.60        64.90449
780.02        65.05051
780.43        65.14693
780.84        65.15993
781.26        65.07567
781.67        65.00765
782.09        65.05981
782.50        65.09715
782.91        65.62019
783.33        64.94637
783.74        64.93604
784.15        65.09562
784.57        65.14598
784.98        65.08826
785.39        65.19125
785.81        65.41347
786.22        65.43694
786.63        65.29261
787.04        65.29207
787.46        65.45045
787.87        65.57491
788.28        65.66052
788.70        65.74221
789.11        65.79128
789.52        65.87959
789.93        65.97056
790.35        65.83969
790.76        65.57274
791.17        65.51945
791.58        65.69373
792.00        65.78928
792.41        65.81037
792.82        65.96552
793.23        66.22492
793.65         66.3231
794.06        66.29271
794.47        66.43597
794.88        66.69897
795.29        66.60194
795.71        66.55001
796.12        66.28983
796.53          66.035
796.94        66.07115
797.35        66.36362
797.76        66.46835
798.18        66.35928
798.59        66.35442
799.00        66.45484
799.41         66.4467
799.82        66.33833
800.23        66.27304
800.64        66.26601
801.06        66.25143
801.47        66.26544
801.88        66.29707
802.29        66.34268
802.70        66.41446
803.11        66.48463
803.52        66.49925
803.93        66.45512
804.34        66.36649
804.75        66.29381
805.17        66.34594
805.58         66.5713
805.99        66.85921
806.40        67.13878
806.81        67.41698
807.22        67.58387
807.63        67.39428
808.04         66.9716
808.45        66.78814
808.86        66.91781
809.27        67.12798
809.68        67.32627
810.09        67.43809
810.50        67.42275
810.91        67.31625
811.32        67.17443
811.73        67.09822
812.14        67.12019
812.55        67.16303
812.96        67.22035
813.37        67.38275
813.78        67.58712
814.19        67.61584
814.60         67.4809
815.01        67.39227
815.42        67.36692
815.83        67.27821
816.24        67.15585
816.65         67.1314
817.05        67.22641
817.46        67.36249
817.87        67.52341
818.28        67.63583
818.69        67.68408
819.10        67.69894
819.51        67.67503
819.92        67.63563
820.33        67.60176
820.74        67.46835
821.14        67.30638
821.55        67.49471
821.96        67.92679
822.37        68.04408
822.78        67.83184
823.19        67.76105
823.60        67.85706
824.00        67.84666
824.41        67.68875
824.82        67.56503
825.23        67.49437
825.64        67.42246
826.04        67.42307
826.45        67.58673
826.86        67.92325
827.27        68.39616
827.68        68.84488
828.08        69.06944
828.49        68.93188
828.90        68.43919
829.31        67.82574
829.72        67.58416
830.12         67.8432
830.53          68.391
830.94        69.01823
831.35        69.36429
831.75        69.33495
832.16        68.99664
832.57        68.53071
832.97         68.2205
833.38        68.15756
833.79        68.25128
834.20        68.41771
834.60        68.53401
835.01        68.57043
835.42        68.56939
835.82         68.5641
836.23        68.52596
836.64        68.48384
837.04        68.45021
837.45        68.39153
837.86        68.35526
838.26        68.36356
838.67        68.40434
839.08        68.48431
839.48        68.59185
839.89        68.71784
840.29        68.84808
840.70        68.98946
841.11        69.16055
841.51        69.36875
841.92        69.56454
842.33        69.69791
842.73        69.68353
843.14        69.46895
843.54        69.12682
843.95        68.74953
844.35        68.50205
844.76        68.42352
845.17        68.46844
845.57        68.60156
845.98        68.72059
846.38        68.80543
846.79        68.86459
847.19         68.8776
847.60        68.76397
848.00        68.54284
848.41        68.19984
848.81         67.8595
849.22        67.66454
849.62        67.68328
850.03         67.8521
850.43        68.08435
850.84        68.15318
851.24        68.05026
851.65        67.79007
852.05        67.52829
852.46        67.45264
852.86         67.6123
853.27        67.93947
853.67        68.26383
854.07         68.5246
854.48        68.66116
854.88        68.74208
855.29        68.70522
855.69        68.61745
856.10        68.42181
856.50        68.18747
856.90        67.93782
857.31        67.74365
857.71        67.67511
858.12        67.66955
858.52        67.75371
858.92        67.83924
859.33        67.88274
859.73         67.9298
860.13         67.9473
860.54        67.90123
860.94        67.82114
861.34         67.6881
861.75         67.5024
862.15        67.33422
862.55        67.17791
862.96        67.04353
863.36        66.93313
863.76        66.83672
864.17        66.74539
864.57        66.67255
864.97        66.64169
865.38        66.66769
865.78        66.79272
866.18        66.99266
866.58        67.18061
866.99        67.22142
867.39        67.11249
867.79         66.8578
868.19        66.59511
868.60        66.50124
869.00        66.59687
869.40        66.86284
869.80        67.15817
870.21        67.22399
870.61        67.06908
871.01         66.7372
871.41        66.38187
871.81        66.21832
872.22        66.26241
872.62        66.45126
873.02        66.72285
873.42        66.94753
873.82        67.06384
874.22        67.13733
874.63        67.12849
875.03        66.95181
875.43        66.62722
875.83        66.16207
876.23        65.74985
876.63        65.72303
877.03        66.13738
877.44        66.88546
877.84        67.67844
878.24        67.99763
878.64        67.72632
879.04        67.04777
879.44        66.26052
879.84        65.78436
880.24        65.72086
880.64        65.95008
881.04        66.32595
881.44        66.59916
881.84        66.67659
882.24        66.62165
882.65        66.50611
883.05         66.5414
883.45        66.72458
883.85        66.98414
884.25        67.18253
884.65        67.12937
885.05         66.8022
885.45        66.27816
885.85        65.73097
886.25        65.45674
886.65        65.53741
887.05        65.87872
887.45        66.31623
887.85        66.59525
888.25        66.63912
888.65        66.51741
889.04        66.29974
889.44        66.15051
889.84        66.09879
890.24        66.08694
890.64        66.07436
891.04        66.01012
891.44        65.88265
891.84        65.73064
892.24        65.57389
892.64        65.42733
893.04        65.31097
893.44        65.23489
893.83        65.23844
894.23        65.31747
894.63        65.49203
895.03        65.73727
895.43        66.04387
895.83        66.39066
896.23        66.75106
896.63        67.11932
897.02        67.41847
897.42        67.58094
897.82        67.58912
898.22        67.45764
898.62        67.29798
899.01         67.3099
899.41        67.51513
899.81        67.87058
900.21        68.21565
900.61         68.2823
901.00        68.00356
901.40        67.48824
901.80        66.91146
902.20         66.5583
902.59        66.51533
902.99        66.68957
903.39        66.95824
903.79        67.10442
904.18        67.06783
904.58        66.93124
904.98         66.7891
905.38        66.78062
905.77        66.92314
906.17        67.15951
906.57        67.41365
906.96        67.58887
907.36        67.62383
907.76        67.56548
908.15         67.4388
908.55        67.21627
908.95        66.94757
909.34        66.62662
909.74        66.35327
910.14        66.21911
910.53        66.25014
910.93        66.41456
911.33        66.64658
911.72        66.82539
912.12        66.89059
912.52        66.88306
912.91        66.83868
913.31        66.83651
913.70        66.89656
914.10        66.98478
914.49        67.09689
914.89        67.17665
915.29        67.21792
915.68        67.22182
916.08        67.21222
916.47        67.21896
916.87        67.25951
917.26        67.30631
917.66        67.32191
918.05        67.21342
918.45        66.96482
918.84        66.63897
919.24        66.30032
919.64        66.13181
920.03        66.20057
920.42        66.46422
920.82        66.82754
921.21        67.12832
921.61        67.30767
922.00        67.39272
922.40        67.48911
922.79        67.85173
923.19        68.45309
923.58        69.19985
923.98         69.7832
924.37         69.8118
924.77        69.21114
925.16        68.12032
925.55        66.84113
925.95        65.89967
926.34        65.48861
926.74        65.47569
927.13        65.75092
927.52        66.01318
927.92        66.17429
928.31        66.30859
928.70        66.44636
929.10        66.61503
929.49        66.81962
929.89        66.98721
930.28         67.1419
930.67        67.25018
931.07        67.28519
931.46        67.27006
931.85        67.20106
932.24        67.10136
932.64         66.9818
933.03        66.85831
933.42         66.7151
933.82        66.51598
934.21        66.27659
934.60        66.03407
934.99         65.8718
935.39         65.8991
935.78        66.17036
936.17        66.64165
936.56        67.23573
936.96        67.79537
937.35        68.28985
937.74         68.6933
938.13        69.00331
938.53          69.252
938.92        69.44594
939.31        69.53277
939.70        69.50971
940.09        69.38253
940.49        69.13332
940.88        68.83711
941.27        68.44809
941.66        67.87665
942.05        67.15071
942.44        66.34944
942.84         65.6613
943.23        65.31979
943.62        65.40752
944.01        65.83035
944.40        66.45894
944.79        67.04458
945.18        67.45679
945.57         67.7316
945.97        67.79007
946.36        67.61593
946.75        67.20222
947.14        66.54961
947.53        65.83746
947.92        65.39806
948.31        65.33023
948.70         65.5756
949.09        65.93369
949.48        66.06283
949.87         65.8848
950.26        65.50379
950.65        65.10205
951.04        64.96845
951.43        65.17461
951.82        65.62253
952.21        66.13885
952.60        66.43673
952.99        66.41933
953.38        66.15794
953.77        65.80482
954.16        65.59437
954.55        65.57261
954.94        65.65843
955.33         65.6977
955.72        65.44257
956.11        64.84102
956.50        63.99596
956.89        63.09204
957.28        62.43528
957.66         62.1776
958.05        62.25755
958.44        62.56918
958.83        62.92548
959.22         63.2408
959.61          63.505
960.00        63.80365
960.39        64.28424
960.78        64.93851
961.16        65.72308
961.55        66.29308
961.94        66.18081
962.33        65.32859
962.72        63.96545
963.11        62.56966
963.49        61.82329
963.88        61.89091
964.27        62.60211
964.66        63.67361
965.04        64.58337
965.43          65.031
965.82        65.16582
966.21        65.13657
966.60        65.20026
966.98        65.42662
967.37        65.67709
967.76        65.81739
968.15        65.61443
968.53        65.06576
968.92        64.35365
969.31        63.69157
969.69        63.34533
970.08        63.39407
970.47        63.75609
970.86         64.4902
971.24        65.67823
971.63        67.12422
972.02        68.69955
972.40        70.08723
972.79        70.73869
973.17        70.67632
973.56        69.97248
973.95        68.93263
974.33        68.09418
974.72        67.65669
975.11        67.49216
975.49        67.45599
975.88        67.30652
976.26        66.98409
976.65        66.63381
977.04         66.2753
977.42        65.89886
977.81        65.48085
978.19        64.91827
978.58        64.55087
978.96        64.90376
979.35        66.00725
979.74        67.73933
980.12        69.41179
980.51        69.69309
980.89         68.4401
981.28        65.91971
981.66        63.12357
982.05        61.94972
982.43        62.89635
982.82        65.30131
983.20        68.15906
983.59        69.75445
983.97        69.71153
984.35        68.50175
984.74        66.57996
985.12        64.75684
985.51        63.46418
985.89        62.55572
986.28        62.08981
986.66        62.25805
987.04        62.96213
987.43        64.10703
987.81        65.54101
988.20        66.82782
988.58        67.79069
988.96        68.48458
989.35          68.612
989.73        67.86451
990.12        66.17375
990.50        63.44112
990.88        60.43275
991.27        59.00174
991.65        59.76024
992.03        62.22665
992.42        64.81576
992.80         65.7963
993.18        64.73582
993.56        61.98042
993.95        58.50555
994.33        56.72225
994.71        57.76824
995.10        60.41036
995.48        63.30889
995.86        65.02697
996.24        65.43381
996.63        64.99561
997.01        64.10648
997.39        63.50562
997.77        63.55855
998.15         63.9526
998.54        64.39761
998.92        64.58997
999.30        64.42681
999.68        64.08145
1000.06        63.67207
1000.45        63.31678
1000.83        63.12344
1001.21         62.9545
1001.59        62.80651
1001.97        62.65135
1002.35        62.51056
1002.73        62.56723
1003.12        62.63535
1003.50        62.16792
1003.88         61.2247
1004.26        59.91081
1004.64        59.11181
1005.02        60.00862
1005.40        62.63177
1005.78        66.64397
1006.16        70.67026
1006.54        72.17416
1006.92         70.4735
1007.30        66.33335
1007.69        61.47816
1008.07        58.78398
1008.45        59.14504
1008.83         61.5983
1009.21        64.84613
1009.59        67.01142
1009.97        67.54021
1010.35        67.00602
1010.73        65.62599
1011.11        64.02644
1011.49         62.7411
1011.86        61.58739
1012.24        60.78483
1012.62        60.92312
1013.00        62.01716
1013.38        64.11924
1013.76        66.48959
1014.14        67.77099
1014.52        67.62321
1014.90        66.22973
1015.28         64.6487
1015.66        65.00205
1016.04        67.74634
1016.41        72.09956
1016.79        76.18705
1017.17        77.69218
1017.55          76.219
1017.93        72.71798
1018.31        68.42818
1018.69        65.21904
1019.06        63.75904
1019.44         63.5412
1019.82        64.45148
1020.20         66.1496
1020.58        68.12091
1020.95        70.25056
1021.33        71.96195
1021.71        72.47163
1022.09        71.74097
1022.46        69.93957
1022.84         67.4332
1023.22        64.81598
1023.60        62.41148
1023.97         59.9286
1024.35        58.12102
1024.73        57.93541
