SpectraSmart Spectrum 2.9.0.0
--------- Device Information -----------
Spectrum Name :  反射率_0
Saving Time :  2024/04/27 23:04:58
Spectro-Module Model Name : SE2030-DUVN
Spectro-Module Serial Number : OS361AC55029948
Wavelength Start : 200
Wavelength End : 1025
Wavelength Unit : Wavelength(nm)
Spectrum Unit : Reflectance(%)
-----------Spectrum Setting ------------
Integration Time : 20ms
Average : 10
Boxcar : 0
Background removal :  enabled
linearity correction :  enabled
SC :  disabled
Intensity correction :  disabled
DWT denoise :  enabled
savitzky-golay :  disabled
FFT :  disabled
Running average :  disabled
Kalman :  disabled
High pass :  disabled
---------------BEGIN--------------------
Wavelength(nm)             Reflectance(%)
200.29               0
200.75       -29.67389
201.21       -13.55241
201.67        4.286319
202.13        14.05545
202.58        18.06007
203.04        20.30388
203.50        23.59356
203.96        30.10805
204.42        38.79234
204.88        47.65395
205.34        54.77693
205.80        59.24638
206.26        61.39748
206.72        61.03179
207.18        58.35789
207.64        56.26743
208.10        56.82665
208.55        59.30235
209.01        59.09277
209.47        53.36431
209.93        38.75108
210.39       0.8222215
210.85       -115.7252
211.31       -269.9352
211.77       -111.0197
212.23        1.906752
212.69        42.91047
213.14        55.09842
213.60        53.84079
214.06         42.9828
214.52        22.25471
214.98        10.92568
215.44        24.48148
215.90        43.73767
216.36        57.64663
216.81        64.05909
217.27        65.21564
217.73         63.9294
218.19        60.25549
218.65        53.58651
219.11        44.20373
219.57        31.83778
220.02        19.13778
220.48        14.57818
220.94        20.31725
221.40        32.54735
221.86        46.19979
222.32        56.36007
222.77         62.4503
223.23         65.8417
223.69        67.16893
224.15        67.03065
224.61        65.81812
225.06        63.25078
225.52         60.1641
225.98        58.06171
226.44        57.46289
226.90        57.80547
227.36        58.30147
227.81        58.15405
228.27         57.3124
228.73        55.91334
229.19         54.0948
229.65        52.27142
230.10         50.6823
230.56        49.57187
231.02        48.71119
231.48        47.86714
231.93         46.9703
232.39        46.20161
232.85        45.91278
233.31        46.63642
233.77        48.27286
234.22        50.54381
234.68        52.62276
235.14        53.53695
235.60        53.11355
236.05        51.46461
236.51        49.34182
236.97        48.45598
237.43        49.51056
237.88        52.24771
238.34        55.06827
238.80        56.39589
239.26        55.72044
239.71        52.59167
240.17        47.25416
240.63        44.72866
241.08        49.11339
241.54        56.57961
242.00        62.07896
242.46        63.29685
242.91        60.41339
243.37        51.78246
243.83        33.47667
244.28        12.09776
244.74        15.79838
245.20        41.42272
245.66        62.80011
246.11        71.59177
246.57        71.68373
247.03        64.86339
247.48         50.7404
247.94        38.10747
248.40        37.88623
248.85        45.55408
249.31        55.39634
249.77        62.62087
250.22        66.54244
250.68        68.92565
251.14         70.0297
251.59        69.73449
252.05         68.1599
252.51        64.45387
252.96        58.19246
253.42        52.75621
253.88        50.82777
254.33        51.95959
254.79        53.66432
255.25        53.41838
255.70        51.54747
256.16        49.54457
256.62        48.57956
257.07        49.87043
257.53        52.87452
257.99        56.00182
258.44        58.10571
258.90        58.60241
259.35        57.49955
259.81        55.80752
260.27        53.82391
260.72        51.92262
261.18        50.54886
261.63        49.33641
262.09        48.45831
262.55        47.77303
263.00        47.15563
263.46        46.73229
263.91         46.3534
264.37        46.11114
264.83        45.91503
265.28        45.71047
265.74        45.48978
266.19        45.07143
266.65        44.51176
267.11        43.81263
267.56        43.05468
268.02        42.46708
268.47        42.04691
268.93         41.7447
269.38        41.45201
269.84        41.02247
270.30        40.41556
270.75        39.69128
271.21        38.89921
271.66         38.0661
272.12        37.24957
272.57        36.41681
273.03        35.66249
273.48        35.04944
273.94        34.62865
274.39         34.3282
274.85        34.10053
275.31        33.79636
275.76        33.36037
276.22        32.85562
276.67        32.28999
277.13        31.77664
277.58        31.28946
278.04        30.85397
278.49         30.3824
278.95        29.85954
279.40        29.24461
279.86        28.62753
280.31        28.04662
280.77        27.66945
281.22        27.46917
281.68        27.42414
282.13        27.41341
282.59        27.31985
283.04        27.09693
283.50        26.79529
283.95        26.45958
284.41        26.20128
284.86        26.02577
285.32        25.91248
285.77        25.79589
286.22        25.61755
286.68        25.38333
287.13        25.09535
287.59        24.81663
288.04        24.56536
288.50        24.38065
288.95        24.22074
289.41        24.09922
289.86        23.99294
290.32        23.91165
290.77        23.85627
291.22        23.81367
291.68        23.75531
292.13        23.67543
292.59        23.59846
293.04         23.5672
293.50        23.67362
293.95        23.92238
294.40        24.29209
294.86        24.72067
295.31          25.103
295.77        25.41656
296.22        25.67029
296.68        25.91763
297.13        26.22477
297.58        26.60626
298.04        27.02647
298.49        27.42503
298.95        27.72508
299.40        27.91267
299.85         28.0234
300.31        28.13109
300.76        28.31149
301.21        28.59652
301.67        28.96325
302.12        29.34537
302.58        29.67731
303.03        29.92497
303.48        30.11228
303.94        30.29855
304.39        30.53087
304.84        30.82812
305.30        31.16916
305.75        31.46804
306.20        31.63317
306.66        31.66049
307.11        31.55636
307.57        31.42505
308.02        31.36718
308.47        31.41946
308.93        31.54601
309.38        31.64864
309.83        31.59727
310.29        31.38096
310.74        31.04129
311.19        30.67471
311.65        30.42992
312.10          30.328
312.55        30.32291
313.00        30.35948
313.46        30.35466
313.91        30.27308
314.36        30.14188
314.82        29.95189
315.27        29.68464
315.72        29.35134
316.18        28.96644
316.63        28.57395
317.08        28.26534
317.53        28.06409
317.99        27.95119
318.44          27.889
318.89        27.79504
319.35         27.6452
319.80        27.45779
320.25        27.26619
320.70        27.13158
321.16        27.05553
321.61        27.01469
322.06        26.95554
322.51         26.7993
322.97        26.52752
323.42        26.18377
323.87        25.80777
324.32        25.47147
324.78        25.20145
325.23        24.98158
325.68        24.81657
326.13        24.71499
326.59        24.65615
327.04        24.65744
327.49        24.65241
327.94        24.53799
328.39        24.29098
328.85        23.92831
329.30        23.53507
329.75        23.26185
330.20        23.15756
330.66         23.1795
331.11        23.25971
331.56        23.23757
332.01        23.07114
332.46        22.80285
332.92        22.51608
333.37        22.37705
333.82        22.41814
334.27         22.5759
334.72        22.75514
335.17        22.80338
335.63        22.67322
336.08        22.43912
336.53        22.13891
336.98        21.84589
337.43        21.60256
337.88        21.38714
338.34         21.2536
338.79        21.28981
339.24        21.49794
339.69        21.85178
340.14        22.22307
340.59        22.39903
341.05        22.32731
341.50        22.06548
341.95        21.73015
342.40        21.52406
342.85        21.50184
343.30        21.60362
343.75        21.74447
344.20        21.78678
344.66        21.69652
345.11        21.52063
345.56        21.32019
346.01        21.18404
346.46        21.13452
346.91        21.13404
347.36        21.14857
347.81        21.12684
348.26        21.06037
348.72        20.98309
349.17        20.90268
349.62        20.82637
350.07        20.76004
350.52        20.68266
350.97        20.64663
351.42        20.73802
351.87        20.95336
352.32        21.26198
352.77        21.52343
353.22        21.52384
353.67        21.23445
354.13         20.7399
354.58        20.19557
355.03        19.90497
355.48        19.94093
355.93        20.21442
356.38        20.56425
356.83        20.73449
357.28        20.65889
357.73        20.42077
358.18        20.12726
358.63        19.94341
359.08        19.90989
359.53        19.95973
359.98        20.02753
360.43        20.01917
360.88        19.90981
361.33        19.74029
361.78        19.53162
362.23         19.3489
362.68        19.21969
363.13         19.0551
363.58        18.85258
364.03        18.98449
364.48        18.84365
364.93        18.90339
365.38        18.94911
365.83        18.93836
366.28        18.85313
366.73        18.71527
367.18        18.54904
367.63        18.38192
368.08        18.22801
368.53         18.0763
368.98        17.93663
369.43        17.82337
369.88        17.73783
370.33         17.6849
370.78        17.63239
371.23        17.52526
371.68        17.35312
372.13        17.12554
372.58        16.90136
373.03        16.77802
373.48          16.775
373.93        16.86692
374.38        16.96991
374.83        16.94972
375.28         16.7824
375.72        16.50386
376.17        16.23093
376.62        16.10919
377.07        16.16357
377.52        16.32645
377.97        16.51174
378.42         16.5865
378.87        16.51603
379.32         16.3582
379.77        16.13722
380.22        15.88612
380.67        15.62958
381.11        15.35359
381.56        15.12111
382.01        15.03755
382.46        15.11355
382.91        15.31764
383.36        15.53267
383.81        15.57082
384.26        15.39603
384.71        15.06823
385.15        14.69268
385.60        14.46866
386.05        14.43562
386.50        14.53464
386.95        14.69475
387.40          14.804
387.85        14.82925
388.29        14.80081
388.74         14.7626
389.19        14.74057
389.64        14.73992
390.09        14.73156
390.54        14.71323
390.98        14.68713
391.43        14.65541
391.88        14.62497
392.33        14.56267
392.78        14.44104
393.23        14.27202
393.67        14.01174
394.12        13.73923
394.57        13.72098
395.02        13.72357
395.47        13.69605
395.91        13.58034
396.36        13.55128
396.81        13.60854
397.26        13.64966
397.71        13.64785
398.15        13.61598
398.60        13.56676
399.05        13.44585
399.50        13.30263
399.95        13.29289
400.39        13.38364
400.84        13.36463
401.29         13.2315
401.74        13.10732
402.18        13.02971
402.63        13.02736
403.08        13.08527
403.53        13.10402
403.97        13.07668
404.42        13.07669
404.87        13.09968
405.32        13.11393
405.76        13.11335
406.21        13.07152
406.66        13.00411
407.11         12.9976
407.55        13.02124
408.00        12.93839
408.45        12.75673
408.90        12.53554
409.34         12.3474
409.79        12.34808
410.24        12.50178
410.68        12.58812
411.13        12.58405
411.58        12.62322
412.03        12.70197
412.47        12.74592
412.92         12.7412
413.37        12.71264
413.81        12.66713
414.26        12.62591
414.71        12.59326
415.15        12.56521
415.60        12.54508
416.05        12.54177
416.49        12.55621
416.94        12.58202
417.39        12.60772
417.83        12.61652
418.28        12.59758
418.73         12.5484
419.17         12.4784
419.62        12.40759
420.07        12.34881
420.51        12.30861
420.96        12.26885
421.41        12.21508
421.85        12.14443
422.30        12.00874
422.74        11.87321
423.19        11.98353
423.64        12.28955
424.08        12.45845
424.53        12.41143
424.98        12.38345
425.42        12.37757
425.87        12.16642
426.31        11.84748
426.76        11.83396
427.21        12.07343
427.65        12.11481
428.10        11.95782
428.54         11.9102
428.99        11.96881
429.44        12.07744
429.88        12.14709
430.33        11.89855
430.77        11.47028
431.22        11.36915
431.66        11.59389
432.11        11.78461
432.56         11.8815
433.00        11.98707
433.45         11.9741
433.89        11.73314
434.34        11.48908
434.78        10.87125
435.23        11.28543
435.67        11.66157
436.12        11.85076
436.57        11.96711
437.01        11.90072
437.46        11.84474
437.90        11.85855
438.35        11.88655
438.79         11.5749
439.24        11.43316
439.68        11.37694
440.13        11.36344
440.57        11.37237
441.02        11.47309
441.46        11.62268
441.91         11.5561
442.35        11.35727
442.80        11.51374
443.24         11.9225
443.69         11.9123
444.13        11.51339
444.58        11.32446
445.02        11.35483
445.47        11.30229
445.91        11.16929
446.36        11.11859
446.80        11.14976
447.24        11.21339
447.69        11.28838
448.13        11.37375
448.58        11.44102
449.02        11.43764
449.47         11.3812
449.91        11.35474
450.36        11.36824
450.80        11.37345
451.25        11.36706
451.69        11.36464
452.13        11.35974
452.58        11.33929
453.02        11.29952
453.47        11.23989
453.91        11.16113
454.36        11.08628
454.80        11.00619
455.24        10.89524
455.69        10.78543
456.13        10.69695
456.58        10.65846
457.02        10.75022
457.46        10.90783
457.91        10.92841
458.35        10.86231
458.79        10.85486
459.24        10.92324
459.68        10.96616
460.13        10.98046
460.57        10.94444
461.01        10.90911
461.46        10.88483
461.90        10.83716
462.34        10.83161
462.79         11.0377
463.23        11.14933
463.68        11.18507
464.12        11.15562
464.56        11.06866
465.01        10.97745
465.45        10.87603
465.89        10.75375
466.34        10.66012
466.78         10.6301
467.22        10.64167
467.67        10.88129
468.11        10.84814
468.55        10.82847
468.99        10.71298
469.44        10.66577
469.88        10.69572
470.32        10.70841
470.77         10.7069
471.21        10.73126
471.65        10.78256
472.10        10.85381
472.54        10.91621
472.98        10.93882
473.42         10.9203
473.87        10.84043
474.31        10.74519
474.75        10.80813
475.20        11.00034
475.64        11.09663
476.08        11.06929
476.52        11.09176
476.97        11.17031
477.41        11.09382
477.85        10.99372
478.29        11.05945
478.74         11.0223
479.18        10.99617
479.62        11.23841
480.06         11.3043
480.50         11.3024
480.95        11.24419
481.39        11.14568
481.83        11.27304
482.27        11.29712
482.72        11.29585
483.16        11.50118
483.60        11.56244
484.04        11.55454
484.48        11.56605
484.93         11.7262
485.37        11.65425
485.81        11.79761
486.25        12.25413
486.69        12.01825
487.14        11.52972
487.58        12.31142
488.02        12.41532
488.46        12.20996
488.90        12.14862
489.34        11.90567
489.79          11.797
490.23        12.18176
490.67        12.43547
491.11        12.61908
491.55        12.62494
491.99        12.51681
492.43        12.55226
492.88        12.74552
493.32         12.9132
493.76        13.01987
494.20        13.13497
494.64        13.26264
495.08        13.34514
495.52         13.3982
495.96         13.5557
496.41         13.8246
496.85        13.81891
497.29        13.63242
497.73        13.77457
498.17        14.18406
498.61        14.39025
499.05        14.33162
499.49          14.272
499.93        14.26147
500.37          14.252
500.82        14.26182
501.26        14.35143
501.70        14.53369
502.14        14.49382
502.58        14.72799
503.02        14.81837
503.46        14.84797
503.90        14.84734
504.34        14.82512
504.78        14.84407
505.22        14.90805
505.66        14.97185
506.10        15.03455
506.54        15.13602
506.98        15.27509
507.42         15.3676
507.86         15.5099
508.30        15.56694
508.74        15.56927
509.18        15.52464
509.62        15.47025
510.06        15.46555
510.50        15.52427
510.94        15.63009
511.38        15.75243
511.82        15.84146
512.26         15.8824
512.70        15.89088
513.14        15.88552
513.58        15.88926
514.02        15.91066
514.46        15.95337
514.90        16.00987
515.34        16.01298
515.78        16.05135
516.22        16.05526
516.66        16.06593
517.10        16.10119
517.54        16.16275
517.98        16.24014
518.42         16.3082
518.86        16.33023
519.30        16.29867
519.74        16.22683
520.18        16.13998
520.62        16.07693
521.06        16.05003
521.50        16.05072
521.93        16.06674
522.37        16.06943
522.81         16.0529
523.25        16.02143
523.69        15.98633
524.13        15.96498
524.57        15.95828
525.01        15.95826
525.45        15.94349
525.89        15.88113
526.32        15.76616
526.76         15.6219
527.20        15.47664
527.64        15.37725
528.08        15.33532
528.52        15.33211
528.96        15.35495
529.40        15.38295
529.83        15.40401
530.27        15.42458
530.71        15.42428
531.15        15.37103
531.59        15.26488
532.03        15.11656
532.46        14.96713
532.90         14.8954
533.34        14.91361
533.78        14.99917
534.22        15.10849
534.66        15.17293
535.09        15.17457
535.53        15.13723
535.97        15.08496
536.41        15.05813
536.85        15.06858
537.28        15.10094
537.72        15.14522
538.16        15.18487
538.60        15.21463
539.04        15.24609
539.47         15.2741
539.91         15.2985
540.35        15.31694
540.79        15.33184
541.22        15.35197
541.66        15.39281
542.10        15.45696
542.54        15.54186
542.97        15.63304
543.41        15.71658
543.85        15.78712
544.29        15.85051
544.72        15.91717
545.16        16.01723
545.60        16.14967
546.04        16.30481
546.47        16.46725
546.91        16.60803
547.35        16.71778
547.79        16.81057
548.22        16.89239
548.66         16.9712
549.10        17.06229
549.53        17.22488
549.97        17.43487
550.41        17.59397
550.84        17.69055
551.28        17.77676
551.72        17.87164
552.15        17.98348
552.59        18.12152
553.03         18.2718
553.46        18.41922
553.90        18.55684
554.34         18.6768
554.77        18.78929
555.21        18.88522
555.65         18.9516
556.08        18.97038
556.52        18.98937
556.96        19.01589
557.39        19.08889
557.83        19.19866
558.27        19.25857
558.70        19.26956
559.14        19.30312
559.57        19.35649
560.01        19.41095
560.45        19.46198
560.88        19.49301
561.32        19.54342
561.75        19.65891
562.19        19.82241
562.63        19.99858
563.06        20.13005
563.50        20.07834
563.93        19.90232
564.37        19.87389
564.80         20.0084
565.24        20.17564
565.68        20.33833
566.11        20.48265
566.55        20.59837
566.98        20.70845
567.42        20.81302
567.85        20.85248
568.29        20.87102
568.72        20.92765
569.16        21.03132
569.60        21.21349
570.03        21.49132
570.47        21.60108
570.90        21.68222
571.34         22.2857
571.77         22.2042
572.21        22.19965
572.64        22.41558
573.08        22.39062
573.51        22.59913
573.95        22.80408
574.38        23.02079
574.82        22.99783
575.25        23.08402
575.69         22.9188
576.12         22.8104
576.56         23.1866
576.99        23.34535
577.42         23.3168
577.86        23.37393
578.29        23.60621
578.73        23.28747
579.16        23.30659
579.60        23.36063
580.03         23.3152
580.47        23.14598
580.90        23.12352
581.33         22.9696
581.77        23.06413
582.20        22.93678
582.64        22.56776
583.07        22.50014
583.51        22.33163
583.94        22.33101
584.37        22.28883
584.81        22.20365
585.24        22.11385
585.68        22.04767
586.11        21.90458
586.54        21.81872
586.98        21.62892
587.41        21.68671
587.85         21.3542
588.28        21.46473
588.71        21.59837
589.15        21.66852
589.58        21.39627
590.01        21.72297
590.45        21.70847
590.88        21.14186
591.31        21.04164
591.75        21.26895
592.18        21.31724
592.61        21.12976
593.05        21.61331
593.48         21.6525
593.91        21.50658
594.35        21.60004
594.78        21.76454
595.21        21.82751
595.65        21.91171
596.08        21.88745
596.51        22.17892
596.94        22.04896
597.38        22.26092
597.81        22.63978
598.24        22.61988
598.68        23.12531
599.11        23.37032
599.54        23.58112
599.97        23.69733
600.41        24.31285
600.84        24.62661
601.27        24.79541
601.70        25.09037
602.14        25.28075
602.57        25.72058
603.00        26.04217
603.43         26.4586
603.87        26.99822
604.30        27.22965
604.73         27.5562
605.16        28.25033
605.60        28.57133
606.03        29.06658
606.46         29.4667
606.89        29.58263
607.32         29.9501
607.76        30.54897
608.19        30.67213
608.62        31.08823
609.05        31.53994
609.48        31.90532
609.92        32.12485
610.35        32.49735
610.78        32.57264
611.21        32.75677
611.64        33.25303
612.07        33.60963
612.50        33.89754
612.94        34.21515
613.37        34.58175
613.80        34.81837
614.23        35.13549
614.66        35.38536
615.09         35.6376
615.52        35.99991
615.96        36.45864
616.39        36.55875
616.82        36.93964
617.25        37.11924
617.68         37.2851
618.11        37.56554
618.54        37.66755
618.97        37.95442
619.40        38.27338
619.84         38.6862
620.27        38.74497
620.70        38.89087
621.13         38.9753
621.56        39.14908
621.99        39.22223
622.42        39.16407
622.85        39.28507
623.28        39.72937
623.71        39.71439
624.14        39.75556
624.57        39.74475
625.00        40.00032
625.43         39.6828
625.86        39.63666
626.29        39.63898
626.72        39.32608
627.15        39.30588
627.58        39.15988
628.01        39.07729
628.44        38.81845
628.87        38.47898
629.30        38.32201
629.73        38.16094
630.16        37.53253
630.59        37.38982
631.02        37.05387
631.45        36.79094
631.88         36.4794
632.31        36.12559
632.74        35.58524
633.17        35.22442
633.60        34.78244
634.03         34.3706
634.46        33.97775
634.89        33.58556
635.32        33.15167
635.75        32.66913
636.18        32.17545
636.61        31.69743
637.04        31.23785
637.47        30.82454
637.89        30.53087
638.32        30.30559
638.75        30.02022
639.18        29.65979
639.61         29.2889
640.04        28.93254
640.47        28.61428
640.90         28.3463
641.33        28.10909
641.76        27.88839
642.18        27.73092
642.61        27.52289
643.04        27.35929
643.47        27.21867
643.90        27.11705
644.33        27.05798
644.76         27.0386
645.18        27.05302
645.61        27.08706
646.04        27.13847
646.47        27.21131
646.90        27.31775
647.33        27.47324
647.75        27.68523
648.18        27.95942
648.61        28.27404
649.04        28.60177
649.47        28.94277
649.89        29.26343
650.32        29.59294
650.75        30.10179
651.18        30.73205
651.61        31.15944
652.03        31.35364
652.46        31.66692
652.89        32.22712
653.32        32.55554
653.74        32.80171
654.17        34.09292
654.60         34.4337
655.03        34.56766
655.46        35.27151
655.88        36.40703
656.31        37.52455
656.74        39.91956
657.16        39.43589
657.59        39.05627
658.02         38.1833
658.45        39.04796
658.87        39.34003
659.30        39.80225
659.73        40.04399
660.15        40.04721
660.58        40.52153
661.01         41.0892
661.44        41.82505
661.86        42.19514
662.29         42.2179
662.72        42.33882
663.14        42.62492
663.57        42.91985
664.00        43.21819
664.42        43.51036
664.85        43.80408
665.27        44.16671
665.70        44.56101
666.13        44.87146
666.55        45.08601
666.98        45.24442
667.41        45.39646
667.83        45.61183
668.26        45.89966
668.69        46.24216
669.11        46.59295
669.54        46.86769
669.96        47.04953
670.39        47.16901
670.82         47.2713
671.24        47.38806
671.67        47.55098
672.09         47.8208
672.52        48.14813
672.94        48.32583
673.37        48.37408
673.80        48.47896
674.22        48.68225
674.65        48.88161
675.07        49.09252
675.50        49.36535
675.92         49.6621
676.35        49.87859
676.77        50.00552
677.20        50.07874
677.62        50.14114
678.05         50.2488
678.47        50.41516
678.90        50.62022
679.32        50.85034
679.75        51.08089
680.17        51.29335
680.60          51.547
681.02        51.78829
681.45        51.80855
681.87        51.66465
682.30        51.61067
682.72         51.7022
683.15        51.85632
683.57        52.06377
684.00        52.28133
684.42        52.50022
684.85        52.73899
685.27        52.97054
685.70        53.22431
686.12        53.43702
686.54        53.40778
686.97        53.21255
687.39        53.21712
687.82          53.445
688.24        53.58943
688.66        53.84539
689.09        53.90811
689.51        53.88595
689.94        53.98381
690.36        54.20818
690.78        54.29139
691.21        54.26927
691.63        54.45491
692.06        54.80183
692.48        54.96027
692.90        54.93077
693.33        54.96236
693.75        55.06657
694.17        55.10328
694.60        55.09167
695.02        55.15754
695.44        55.30863
695.87        55.50604
696.29        55.72623
696.71          55.949
697.14        56.13859
697.56        56.26879
697.98        56.34583
698.41        56.47112
698.83        56.63839
699.25        56.81341
699.68        56.96545
700.10        57.10802
700.52        57.22511
700.94        57.33455
701.37        57.39891
701.79        57.44688
702.21        57.46159
702.64        57.45794
703.06        57.45941
703.48        57.51794
703.90        57.65273
704.33        57.85323
704.75        58.08737
705.17        58.28038
705.59         58.4071
706.01        58.45418
706.44        58.48582
706.86        58.68872
707.28          58.905
707.70        59.30516
708.12        59.71645
708.55         59.7556
708.97        59.47684
709.39        59.37826
709.81        59.51497
710.23        59.57835
710.66        59.57961
711.08        59.75794
711.50        60.03754
711.92        60.19562
712.34        60.20614
712.76        60.13211
713.19        60.04189
713.61        60.08907
714.03        60.28568
714.45        60.57444
714.87        60.87093
715.29         61.0537
715.71        61.09315
716.13        61.03083
716.56        60.90828
716.98        60.86072
717.40        60.90818
717.82        61.02441
718.24        61.18476
718.66        61.35059
719.08        61.50291
719.50        61.64615
719.92        61.78936
720.34        61.94434
720.76        62.10718
721.19        62.26039
721.61        62.37677
722.03        62.38977
722.45        62.29376
722.87        62.11389
723.29        61.92589
723.71        61.84858
724.13        61.91637
724.55        62.10955
724.97        62.36575
725.39        62.54777
725.81        62.61628
726.23        62.65282
726.65        62.73791
727.07        62.72162
727.49        63.07022
727.91        63.37921
728.33        63.69058
728.75        63.84497
729.17        63.81171
729.59        63.64198
730.01        63.42051
730.43        63.29689
730.85        63.31189
731.27        63.41488
731.69        63.57622
732.10        63.75002
732.52        63.89903
732.94        64.09013
733.36         64.2932
733.78        64.34431
734.20         64.2198
734.62        64.41504
735.04        63.98071
735.46        64.23452
735.88        64.73866
736.30          64.757
736.72        64.35335
737.13        64.34358
737.55        64.69962
737.97        64.95186
738.39        65.01382
738.81        64.77257
739.23         64.3837
739.65        64.56395
740.06         65.1711
740.48        65.42511
740.90        65.26474
741.32          65.147
741.74        65.17459
742.16        65.22557
742.57        65.32877
742.99        65.53259
743.41         65.7562
743.83        65.77496
744.25        65.60246
744.67        65.44823
745.08         65.4013
745.50        65.41405
745.92        65.52113
746.34        65.78118
746.75        66.08625
747.17        66.22374
747.59        66.16096
748.01         65.9265
748.42        65.64594
748.84        65.62004
749.26        65.85331
749.68        66.03691
750.09        66.11533
750.51        66.26331
750.93        66.42743
751.35        66.41816
751.76        66.27647
752.18        66.19669
752.60        66.21148
753.01        66.23408
753.43        66.26155
753.85         66.3602
754.27        66.52654
754.68        66.74104
755.10        66.96163
755.52         67.1181
755.93        67.19716
756.35        67.21898
756.77        67.19963
757.18        67.22527
757.60        67.36296
758.02        67.36745
758.43        67.22976
758.85        67.52618
759.26        68.22984
759.68        67.26598
760.10        67.76134
760.51        66.89433
760.93        67.73965
761.34        67.63103
761.76        67.83745
762.18        68.20515
762.59        68.38542
763.01        68.44942
763.42        68.28899
763.84        68.18278
764.26         68.1974
764.67        68.11385
765.09        68.01569
765.50        68.17847
765.92        68.48436
766.33        68.40521
766.75        67.94173
767.16        67.58247
767.58        67.45982
768.00        67.76295
768.41         68.3802
768.83        68.68476
769.24        68.60574
769.66        68.57494
770.07        68.60745
770.49        68.51645
770.90        68.37573
771.32        68.42381
771.73        68.62122
772.15        68.71597
772.56        68.71056
772.97         68.6511
773.39        68.57935
773.80        68.78267
774.22        69.15537
774.63         69.2443
775.05        69.03883
775.46        69.02787
775.88        69.20885
776.29        69.33279
776.70        69.37794
777.12        69.45743
777.53        69.57846
777.95         69.6765
778.36        69.76088
778.77        69.79404
779.19        69.77397
779.60        69.84142
780.02        69.93405
780.43        69.78046
780.84        69.52138
781.26        69.51001
781.67        69.77769
782.09        70.33517
782.50        70.90602
782.91        70.56232
783.33         69.8334
783.74        69.48158
784.15         69.7044
784.57        69.94714
784.98        70.11581
785.39        70.10591
785.81        69.98592
786.22        70.24609
786.63        70.76439
787.04         71.0033
787.46        70.94602
787.87        70.75501
788.28        70.52496
788.70        70.82217
789.11        70.72533
789.52        71.07761
789.93        71.45228
790.35        71.44382
790.76         71.1143
791.17        70.87759
791.58        70.85904
792.00        70.99823
792.41        71.22985
792.82        71.37066
793.23        71.38946
793.65        71.24639
794.06        71.08425
794.47         71.3956
794.88         72.0408
795.29        72.14016
795.71        71.96516
796.12        71.78091
796.53        71.72385
796.94        71.41555
797.35        70.99709
797.76        71.12333
798.18        71.71666
798.59        72.05195
799.00        72.07217
799.41        72.15857
799.82        72.30806
800.23        72.34817
800.64        72.27544
801.06        72.11449
801.47        71.96265
801.88        71.88258
802.29        71.89271
802.70         72.0947
803.11        72.19888
803.52        72.29196
803.93        72.28453
804.34        72.21684
804.75        72.12527
805.17        72.11847
805.58        72.26306
805.99        72.33907
806.40        72.35928
806.81        72.74149
807.22        73.26685
807.63        73.06356
808.04        72.29668
808.45        72.03877
808.86        72.40146
809.27        72.79531
809.68        73.07158
810.09        73.23429
810.50        73.21986
810.91        73.02966
811.32        72.77845
811.73        72.63161
812.14        72.63646
812.55        72.82537
812.96        73.09954
813.37        73.09802
813.78        72.86111
814.19         72.8659
814.60        73.10296
815.01        73.19297
815.42         73.1321
815.83        73.13963
816.24        73.23212
816.65        73.32134
817.05        73.40458
817.46        73.46886
817.87        73.52954
818.28         73.5588
818.69        73.55559
819.10        73.52623
819.51         73.4846
819.92        73.47163
820.33        73.50446
820.74        73.53484
821.14        73.56071
821.55        73.71172
821.96        73.92426
822.37        73.96841
822.78        73.87298
823.19         73.8978
823.60        74.06332
824.00        74.24583
824.41        74.33659
824.82        74.31702
825.23        74.17967
825.64        73.94961
826.04        73.74627
826.45        73.72762
826.86         73.9378
827.27        74.31462
827.68        74.75739
828.08        75.12447
828.49         75.2891
828.90         75.3344
829.31        75.27335
829.72        75.13631
830.12         74.9753
830.53        74.73042
830.94        74.49325
831.35        74.38592
831.75        74.45648
832.16        74.64021
832.57        74.86325
832.97        74.94352
833.38         74.8325
833.79        74.60622
834.20        74.35829
834.60        74.22518
835.01         74.2559
835.42        74.38804
835.82        74.62374
836.23        74.88727
836.64        75.16325
837.04        75.48164
837.45        75.72693
837.86        75.81145
838.26        75.73309
838.67        75.50244
839.08        75.23164
839.48         75.0953
839.89        75.14362
840.29        75.33233
840.70        75.59695
841.11        75.82959
841.51        76.00963
841.92        76.12925
842.33        76.20748
842.73        76.27218
843.14        76.27768
843.54        76.22624
843.95        76.12758
844.35        76.02784
844.76        75.93028
845.17        75.84921
845.57        75.75462
845.98        75.54723
846.38        75.25105
846.79         74.8836
847.19        74.57327
847.60        74.47255
848.00         74.6353
848.41        74.96883
848.81        75.38765
849.22        75.67338
849.62        75.79353
850.03        75.77457
850.43         75.6805
850.84        75.53487
851.24        75.41824
851.65        75.26283
852.05        75.17815
852.46         75.2453
852.86        75.46446
853.27        75.80621
853.67        76.10023
854.07        76.31251
854.48        76.38567
854.88         76.3507
855.29        76.10709
855.69        75.90803
856.10        75.37376
856.50         74.8665
856.90         74.3799
857.31        74.10239
857.71        74.11333
858.12         74.3073
858.52        74.62238
858.92        74.80582
859.33        74.76592
859.73        74.60709
860.13          74.328
860.54        73.96727
860.94        73.61217
861.34         73.2266
861.75        72.88964
862.15        72.78629
862.55        72.91766
862.96        73.26485
863.36        73.68201
863.76        73.90144
864.17        73.84039
864.57        73.55899
864.97        73.22952
865.38        73.12154
865.78        73.33861
866.18        73.78057
866.58        74.20384
866.99        74.19648
867.39        73.70624
867.79        72.86885
868.19        72.00116
868.60        71.51802
869.00        71.50912
869.40        71.88489
869.80        72.46047
870.21        72.88712
870.61        73.09748
871.01        73.12139
871.41        73.06234
871.81        73.07462
872.22        73.17186
872.62        73.31897
873.02        73.45618
873.42        73.48454
873.82        73.38304
874.22        73.21673
874.63        73.07074
875.03        73.02185
875.43        73.09733
875.83        73.25913
876.23         73.4736
876.63        73.68676
877.03         73.8615
877.44        73.99058
877.84         74.0541
878.24        73.99152
878.64        73.80319
879.04        73.52233
879.44        73.20816
879.84        72.93812
880.24        72.73779
880.64        72.59902
881.04        72.52625
881.44        72.52151
881.84        72.57229
882.24        72.65894
882.65        72.73703
883.05        72.83531
883.45        72.90211
883.85        72.94777
884.25        72.93099
884.65        72.79025
885.05        72.53956
885.45        72.21156
885.85        71.93072
886.25        71.91344
886.65        72.19794
887.05        72.69247
887.45        73.25041
887.85         73.6507
888.25        73.81805
888.65        73.80485
889.04        73.62624
889.44        73.36001
889.84        73.03719
890.24        72.65267
890.64        72.27146
891.04        72.00016
891.44        71.87198
891.84         71.8858
892.24        71.99548
892.64        72.10538
893.04        72.19175
893.44        72.28224
893.83        72.42826
894.23        72.64854
894.63        72.96458
895.03        73.32863
895.43        73.70195
895.83        74.03136
896.23        74.28571
896.63        74.47336
897.02        74.56705
897.42        74.57061
897.82        74.48647
898.22          74.338
898.62        74.17802
899.01        74.10619
899.41        74.12901
899.81        74.22846
900.21        74.38216
900.61        74.54548
901.00        74.68002
901.40        74.80943
901.80         74.8788
902.20        74.81738
902.59        74.63086
902.99        74.32455
903.39        73.99361
903.79        73.78891
904.18        73.74377
904.58        73.82526
904.98        73.95267
905.38        74.00553
905.77        73.94378
906.17        73.81257
906.57        73.64729
906.96        73.53107
907.36        73.46994
907.76        73.46198
908.15        73.49287
908.55        73.46655
908.95        73.39919
909.34        73.29626
909.74         73.2569
910.14        73.37261
910.53        73.65928
910.93        74.05962
911.33        74.46513
911.72        74.69442
912.12        74.68221
912.52        74.49995
912.91        74.23808
913.31         74.0603
913.70        74.00267
914.10        74.01408
914.49        74.08037
914.89        74.10857
915.29        74.09304
915.68        74.06384
916.08        74.04597
916.47        74.06556
916.87        74.14518
917.26         74.2486
917.66        74.36987
918.05        74.46984
918.45         74.5267
918.84        74.57092
919.24        74.58692
919.64        74.63223
920.03        74.73682
920.42        74.88668
920.82        75.04519
921.21        75.14877
921.61        75.16476
922.00        75.09821
922.40        75.03756
922.79        75.21648
923.19        75.61856
923.58         76.2086
923.98        76.67561
924.37        76.60616
924.77        75.92838
925.16        74.76327
925.55          73.516
925.95         72.8849
926.34        73.06952
926.74         73.8686
927.13        74.90135
927.52        75.45055
927.92        75.35541
928.31        74.80284
928.70        74.15578
929.10        73.96581
929.49        74.35518
929.89        75.10181
930.28        75.92448
930.67        76.22518
931.07        75.83483
931.46        75.00436
931.85        74.03019
932.24        73.38828
932.64        73.21818
933.03        73.37103
933.42        73.71771
933.82        74.05153
934.21        74.28777
934.60        74.49344
934.99        74.66555
935.39        74.76286
935.78         74.8168
936.17        74.80405
936.56        74.74773
936.96        74.70203
937.35         74.7387
937.74        74.82119
938.13          74.951
938.53        75.12945
938.92        75.34608
939.31        75.57742
939.70        75.78847
940.09        75.91223
940.49        75.89634
940.88        75.79588
941.27        75.59772
941.66        75.28873
942.05        74.90279
942.44        74.48804
942.84        74.14822
943.23         73.9883
943.62        74.06642
944.01        74.33729
944.40        74.77444
944.79        75.30911
945.18         75.8616
945.57        76.40187
945.97        76.77567
946.36        76.85087
946.75        76.58083
947.14        75.99738
947.53         75.2689
947.92        74.70639
948.31        74.42835
948.70        74.40432
949.09         74.4893
949.48        74.42776
949.87        74.17002
950.26        73.79765
950.65        73.49965
951.04        73.57207
951.43        74.05653
951.82        74.82646
952.21        75.61475
952.60        75.97468
952.99        75.77798
953.38        75.16908
953.77        74.37615
954.16        73.74851
954.55         73.3942
954.94        73.21722
955.33        73.14414
955.72        73.05311
956.11        72.89476
956.50        72.72161
956.89        72.54698
957.28        72.37093
957.66        72.22851
958.05        72.09771
958.44        71.97597
958.83        71.86333
959.22         71.7615
959.61        71.65221
960.00        71.60496
960.39        71.72892
960.78        72.02303
961.16        72.47939
961.55          72.866
961.94        72.89444
962.33        72.51173
962.72        71.85004
963.11        71.15024
963.49        70.76868
963.88        70.79323
964.27        71.11357
964.66        71.62495
965.04        72.14732
965.43        72.50373
965.82        72.79029
966.21        72.97497
966.60        73.02598
966.98        72.95827
967.37        72.70049
967.76         72.3759
968.15        72.21158
968.53        72.28834
968.92        72.57856
969.31        72.87695
969.69        72.83231
970.08        72.38542
970.47        71.65855
970.86        71.01244
971.24        71.08593
971.63        71.91855
972.02        73.24068
972.40        74.64572
972.79        75.45506
973.17        75.61809
973.56        75.26577
973.95        74.62802
974.33        74.07344
974.72        73.75463
975.11        73.56796
975.49         73.4566
975.88        73.36492
976.26        73.27653
976.65         73.2242
977.04        73.21085
977.42        73.19786
977.81        73.11028
978.19        72.90025
978.58        72.68052
978.96        72.60419
979.35        72.67313
979.74        72.91022
980.12        73.13937
980.51        72.83179
980.89        72.03488
981.28        70.82516
981.66         69.7064
982.05        69.61568
982.43        70.73545
982.82        72.67107
983.20        74.82852
983.59        76.14429
983.97        76.43808
984.35        75.96557
984.74        74.98525
985.12        73.98841
985.51        73.23849
985.89        72.65671
986.28        72.37943
986.66        72.68433
987.04        73.51646
987.43        74.76132
987.81        76.15075
988.20        77.06116
988.58         77.3293
988.96        77.10023
989.35        76.39899
989.73        75.39256
990.12        74.12432
990.50        72.46551
990.88        70.83068
991.27        70.20092
991.65        70.86417
992.03        72.56567
992.42        74.27256
992.80        74.92886
993.18        74.23834
993.56        72.36307
993.95        69.96146
994.33        68.68588
994.71        69.33402
995.10        71.13993
995.48        73.09167
995.86        74.06689
996.24         73.9554
996.63         73.0106
997.01        71.80413
997.39        71.44372
997.77         72.3345
998.15        74.06818
998.54        75.72824
998.92        76.10677
999.30        74.99839
999.68        72.79018
1000.06        70.35002
1000.45        69.24879
1000.83        70.02616
1001.21        72.06348
1001.59        74.48701
1001.97        76.04838
1002.35        76.41195
1002.73        75.97346
1003.12        74.93781
1003.50        73.67694
1003.88        72.59823
1004.26        71.59788
1004.64        70.97853
1005.02        71.13361
1005.40        72.03762
1005.78        73.63856
1006.16        75.42829
1006.54         76.4086
1006.92        76.26793
1007.30        75.23478
1007.69        73.88445
1008.07        73.11891
1008.45        73.27453
1008.83        74.04274
1009.21         74.9626
1009.59         75.3703
1009.97        75.05695
1010.35        74.16208
1010.73        72.93354
1011.11        72.03102
1011.49        71.82588
1011.86        72.22764
1012.24        72.72902
1012.62        72.85472
1013.00        72.54158
1013.38        72.06914
1013.76        71.67203
1014.14        71.71635
1014.52        72.33662
1014.90         73.3355
1015.28        74.79556
1015.66        76.80633
1016.04        79.13737
1016.41        81.69034
1016.79        83.56368
1017.17        83.90198
1017.55        82.64084
1017.93        80.10284
1018.31        77.20232
1018.69        75.34826
1019.06        75.03262
1019.44        76.09622
1019.82        77.89687
1020.20        79.00741
1020.58        78.81339
1020.95        77.49278
1021.33        76.07622
1021.71        75.87244
1022.09        76.96431
1022.46        78.96923
1022.84        80.45219
1023.22        78.67729
1023.60         72.8161
1023.97        63.03921
1024.35        51.89274
1024.73        45.45121
