SpectraSmart Spectrum 2.9.0.0
--------- Device Information -----------
Spectrum Name :  反射率_0
Saving Time :  2024/04/27 23:03:23
Spectro-Module Model Name : SE2030-DUVN
Spectro-Module Serial Number : OS361AC55029948
Wavelength Start : 200
Wavelength End : 1025
Wavelength Unit : Wavelength(nm)
Spectrum Unit : Reflectance(%)
-----------Spectrum Setting ------------
Integration Time : 20ms
Average : 10
Boxcar : 0
Background removal :  enabled
linearity correction :  enabled
SC :  disabled
Intensity correction :  disabled
DWT denoise :  enabled
savitzky-golay :  disabled
FFT :  disabled
Running average :  disabled
Kalman :  disabled
High pass :  disabled
---------------BEGIN--------------------
Wavelength(nm)             Reflectance(%)
200.29               0
200.75       -41.50371
201.21       -23.91644
201.67       -8.253183
202.13       -1.191961
202.58       0.3303368
203.04       -0.642391
203.50         1.04599
203.96        10.81058
204.42        26.37004
204.88         43.4207
205.34        57.08519
205.80        63.84458
206.26        63.71793
206.72         55.8072
207.18        39.38017
207.64        25.55339
208.10        25.75999
208.55         35.1706
209.01        40.69562
209.47        35.73584
209.93        16.47807
210.39       -36.27345
210.85        -196.025
211.31       -383.8268
211.77        -147.152
212.23        4.621125
212.69        57.13762
213.14        71.96639
213.60        69.53877
214.06         53.6478
214.52        21.85271
214.98       -2.695147
215.44        6.155597
215.90        27.20498
216.36        44.64013
216.81        53.79165
217.27         56.8267
217.73        57.47295
218.19         55.8107
218.65        50.88512
219.11        42.91309
219.57        31.73053
220.02        19.48031
220.48        13.94781
220.94        17.43191
221.40        26.51188
221.86         37.9194
222.32         48.4653
222.77        56.98425
223.23        63.78555
223.69        67.69768
224.15        67.25202
224.61        62.85857
225.06        55.07777
225.52        46.40367
225.98        41.93157
226.44        42.70899
226.90        46.01652
227.36        49.54775
227.81        51.53696
228.27        51.96733
228.73        51.53886
229.19        50.16994
229.65         47.7436
230.10        44.53189
230.56        40.97559
231.02        37.81806
231.48        36.18337
231.93        36.06213
232.39        37.06835
232.85        38.67225
233.31        40.11661
233.77        41.16067
234.22        42.14474
234.68        42.68699
235.14        42.39481
235.60        41.25454
236.05        39.05851
236.51        36.85551
236.97        36.92021
237.43        39.95113
237.88         45.4681
238.34        50.90067
238.80        53.49877
239.26        52.48098
239.71        47.03993
240.17        37.27902
240.63        31.34937
241.08        36.75111
241.54        47.92194
242.00        56.90936
242.46        60.08837
242.91        57.98503
243.37        49.48717
243.83         30.2667
244.28        5.903609
244.74        5.696331
245.20        28.86541
245.66        49.22246
246.11        56.68153
246.57        54.27371
247.03        43.73666
247.48        24.81872
247.94        10.10635
248.40        13.57325
248.85        27.57775
249.31        43.02935
249.77         52.9818
250.22        57.24399
250.68         58.8534
251.14        58.67522
251.59        56.83317
252.05        53.39341
252.51        47.07383
252.96        38.04249
253.42        32.58541
253.88          34.179
254.33        40.17263
254.79        45.54268
255.25        46.80344
255.70        44.88334
256.16        41.99239
256.62        39.95332
257.07        40.62647
257.53        43.48411
257.99        46.76246
258.44        49.13073
258.90        49.77641
259.35        48.77549
259.81        47.14517
260.27        45.34912
260.72        43.92919
261.18        43.20154
261.63        42.68137
262.09        42.31226
262.55         41.7598
263.00        40.93086
263.46        40.05661
263.91        39.15162
264.37        38.48951
264.83        38.03779
265.28        37.69516
265.74        37.37342
266.19        36.82402
266.65        36.07471
267.11        35.16835
267.56        34.23039
268.02        33.54329
268.47         33.1194
268.93        32.87951
269.38        32.67358
269.84        32.28416
270.30        31.66119
270.75        30.89492
271.21        30.06852
271.66        29.27158
272.12         28.5657
272.57        27.88324
273.03        27.30172
273.48        26.86929
273.94        26.61352
274.39        26.48393
274.85        26.37151
275.31        26.05736
275.76        25.50347
276.22        24.79862
276.67        24.07359
277.13        23.59241
277.58        23.34925
278.04        23.28822
278.49        23.20939
278.95        22.91307
279.40        22.33192
279.86        21.61233
280.31        20.87542
280.77        20.38859
281.22        20.16864
281.68        20.15412
282.13        20.21251
282.59        20.18853
283.04        20.03797
283.50        19.81788
283.95        19.59204
284.41        19.47944
284.86        19.48464
285.32         19.5631
285.77        19.62889
286.22        19.58768
286.68         19.4376
287.13        19.19646
287.59        18.94376
288.04        18.73141
288.50        18.60798
288.95        18.53773
289.41        18.51833
289.86        18.51125
290.32        18.51897
290.77        18.54483
291.22        18.60226
291.68        18.70699
292.13        18.84903
292.59        19.02212
293.04        19.20483
293.50        19.38562
293.95        19.55765
294.40        19.74799
294.86        19.95663
295.31        20.17663
295.77        20.42188
296.22        20.67702
296.68        21.00472
297.13        21.48053
297.58        22.10266
298.04        22.82629
298.49         23.5266
298.95        24.02499
299.40        24.29234
299.85        24.38585
300.31         24.4476
300.76         24.6689
301.21        25.10647
301.67        25.69886
302.12        26.31828
302.58        26.80298
303.03        27.10145
303.48        27.26843
303.94        27.41504
304.39         27.6666
304.84        28.05667
305.30         28.5386
305.75         28.9798
306.20        29.21591
306.66        29.23275
307.11        29.06817
307.57        28.87965
308.02        28.84982
308.47        29.02931
308.93         29.3484
309.38        29.65981
309.83          29.761
310.29        29.61909
310.74        29.29234
311.19        28.90434
311.65        28.64746
312.10        28.55639
312.55        28.57608
313.00        28.62361
313.46        28.57358
313.91        28.38996
314.36        28.12077
314.82        27.81063
315.27        27.52302
315.72        27.28315
316.18        27.07456
316.63        26.87814
317.08        26.68676
317.53        26.49536
317.99        26.30875
318.44        26.13015
318.89        25.94686
319.35        25.75551
319.80        25.55372
320.25         25.3474
320.70        25.15363
321.16        24.96781
321.61        24.79154
322.06        24.60159
322.51        24.36309
322.97           24.07
323.42        23.74652
323.87        23.41797
324.32        23.13347
324.78        22.90499
325.23        22.71826
325.68        22.56281
326.13        22.42206
326.59        22.27601
327.04        22.15291
327.49        22.01304
327.94        21.79848
328.39        21.50135
328.85        21.12746
329.30        20.75857
329.75        20.54052
330.20        20.50919
330.66        20.61835
331.11        20.76374
331.56        20.72915
332.01        20.46131
332.46        20.01758
332.92        19.52179
333.37        19.21121
333.82        19.15035
334.27        19.26488
334.72        19.44745
335.17        19.51958
335.63         19.4198
336.08        19.22384
336.53        18.96702
336.98        18.71481
337.43         18.5046
337.88        18.31311
338.34        18.17488
338.79        18.15145
339.24        18.24475
339.69        18.43361
340.14        18.64144
340.59        18.73917
341.05        18.68889
341.50        18.52546
341.95         18.2908
342.40        18.06598
342.85        17.88226
343.30        17.72157
343.75        17.58106
344.20        17.45414
344.66        17.34453
345.11        17.26344
345.56        17.21102
346.01         17.1783
346.46        17.15739
346.91         17.1349
347.36        17.12003
347.81        17.12839
348.26        17.16051
348.72        17.21923
349.17        17.25578
349.62        17.19245
350.07        17.01987
350.52         16.7513
350.97        16.50022
351.42        16.44784
351.87        16.61801
352.32        16.95277
352.77        17.27376
353.22        17.30662
353.67        17.00394
354.13         16.4698
354.58        15.87582
355.03        15.54941
355.48        15.57119
355.93        15.84121
356.38        16.19007
356.83         16.3525
357.28        16.26042
357.73         16.0032
358.18        15.69574
358.63        15.51291
359.08         15.4976
359.53        15.57901
359.98        15.68383
360.43        15.70662
360.88        15.61783
361.33        15.45782
361.78        15.25309
362.23        15.07988
362.68        14.96778
363.13         14.8223
363.58         14.6262
364.03        14.74884
364.48        14.54992
364.93        14.53507
365.38         14.5066
365.83        14.46422
366.28        14.39582
366.73        14.30958
367.18        14.19854
367.63        14.03735
368.08        13.83128
368.53        13.59333
368.98        13.36021
369.43        13.18902
369.88        13.09591
370.33        13.06868
370.78        13.07713
371.23        13.07047
371.68        13.02688
372.13        12.94863
372.58         12.8551
373.03        12.77868
373.48        12.72882
373.93        12.70518
374.38        12.66412
374.83        12.53858
375.28        12.32575
375.72        12.03957
376.17        11.79723
376.62        11.74323
377.07        11.89154
377.52        12.17783
377.97        12.46737
378.42        12.55016
378.87        12.38353
379.32        12.04791
379.77        11.64422
380.22        11.32472
380.67        11.13711
381.11        11.03376
381.56        11.00115
382.01        11.01509
382.46        11.05563
382.91        11.13511
383.36        11.20895
383.81        11.20187
384.26        11.10247
384.71        10.92674
385.15        10.72804
385.60        10.62436
386.05        10.63357
386.50        10.73057
386.95        10.86261
387.40        10.94409
387.85        10.95552
388.29         10.9161
388.74        10.88558
389.19        10.92469
389.64        11.03815
390.09        11.18985
390.54        11.32942
390.98        11.37808
391.43        11.32233
391.88        11.19921
392.33        11.03568
392.78        10.88671
393.23        10.77628
393.67        10.64293
394.12        10.51825
394.57        10.56475
395.02        10.59166
395.47        10.57391
395.91        10.47348
396.36        10.43436
396.81        10.46294
397.26        10.47755
397.71        10.46167
398.15        10.43306
398.60         10.4019
399.05        10.32347
399.50        10.23463
399.95        10.25351
400.39        10.35254
400.84        10.36861
401.29        10.28782
401.74        10.18881
402.18        10.09912
402.63         10.0492
403.08        10.04195
403.53        10.02585
403.97         10.0039
404.42        10.02453
404.87        10.08032
405.32         10.1391
405.76        10.19067
406.21        10.21551
406.66        10.21543
407.11        10.24297
407.55        10.27097
408.00         10.1924
408.45        10.02723
408.90         9.84834
409.34        9.718176
409.79        9.752643
410.24        9.906916
410.68        9.979328
411.13        9.946417
411.58        9.923678
412.03        9.926169
412.47        9.927563
412.92        9.924751
413.37        9.925407
413.81        9.918839
414.26        9.897529
414.71        9.858887
415.15        9.809097
415.60        9.756851
416.05        9.717447
416.49        9.698112
416.94        9.691107
417.39        9.695951
417.83        9.713467
418.28        9.734402
418.73        9.751836
419.17        9.756544
419.62        9.736087
420.07        9.694659
420.51        9.648849
420.96        9.594352
421.41        9.537251
421.85        9.480243
422.30        9.375953
422.74        9.282552
423.19         9.40472
423.64        9.702979
424.08        9.915447
424.53        9.943313
424.98        9.920512
425.42        9.839848
425.87        9.537356
426.31         9.14349
426.76        9.062216
427.21        9.271483
427.65        9.407003
428.10        9.413134
428.54        9.449659
428.99        9.496966
429.44        9.533765
429.88        9.529323
430.33        9.329556
430.77        9.050846
431.22        9.065119
431.66        9.342382
432.11        9.539528
432.56        9.592023
433.00        9.601576
433.45        9.499334
433.89        9.257979
434.34        9.077032
434.78         8.64019
435.23        9.045959
435.67        9.423643
436.12         9.63769
436.57        9.782133
437.01         9.76596
437.46        9.744289
437.90        9.765823
438.35        9.782587
438.79        9.497256
439.24         9.32385
439.68        9.195756
440.13        9.086987
440.57        9.001426
441.02        9.024301
441.46        9.129525
441.91        9.097549
442.35        8.978201
442.80        9.134796
443.24        9.480913
443.69        9.487766
444.13        9.175107
444.58        9.016775
445.02        9.021579
445.47        8.952456
445.91        8.820954
446.36        8.774203
446.80        8.815485
447.24         8.90095
447.69        9.008532
448.13        9.131505
448.58        9.241117
449.02        9.294801
449.47         9.29705
449.91        9.302667
450.36        9.317683
450.80        9.307174
451.25        9.277956
451.69         9.25914
452.13        9.251318
452.58        9.241714
453.02         9.22449
453.47        9.194151
453.91        9.148417
454.36        9.106616
454.80        9.061826
455.24        8.993738
455.69        8.927053
456.13        8.876252
456.58        8.857575
457.02        8.927193
457.46        9.030951
457.91        9.004317
458.35        8.904449
458.79        8.870975
459.24        8.921355
459.68        8.967178
460.13        8.993266
460.57         8.95992
461.01        8.906727
461.46        8.851926
461.90        8.780044
462.34        8.764116
462.79        8.945526
463.23        9.066898
463.68          9.1385
464.12        9.164346
464.56        9.143016
465.01        9.119259
465.45        9.070654
465.89         8.96395
466.34        8.840823
466.78        8.738923
467.22         8.66716
467.67        8.822251
468.11         8.81003
468.55        8.849871
468.99        8.826536
469.44        8.831727
469.88        8.861005
470.32        8.849375
470.77        8.812757
471.21        8.806196
471.65        8.838736
472.10        8.895534
472.54        8.951061
472.98        8.977759
473.42        8.971948
473.87        8.919127
474.31        8.851425
474.75        8.902879
475.20          9.0482
475.64        9.105065
476.08        9.058067
476.52        9.059696
476.97        9.117675
477.41        9.057073
477.85        8.982029
478.29        9.041776
478.74        9.014976
479.18        8.996602
479.62        9.198548
480.06        9.259689
480.50        9.267927
480.95         9.22766
481.39        9.152095
481.83        9.264009
482.27        9.294041
482.72        9.304626
483.16        9.479622
483.60        9.528174
484.04        9.506062
484.48        9.477286
484.93         9.57036
485.37        9.549067
485.81        9.719484
486.25        10.26443
486.69        9.578392
487.14        9.346126
487.58        10.29933
488.02        10.10858
488.46        10.12576
488.90        10.25322
489.34         9.86229
489.79        9.808671
490.23        10.17283
490.67        10.43869
491.11        10.62279
491.55        10.62139
491.99        10.50043
492.43        10.52279
492.88        10.70655
493.32        10.85754
493.76          10.956
494.20        11.09817
494.64        11.28862
495.08        11.46541
495.52        11.61536
495.96        11.80944
496.41        12.05305
496.85        12.01572
497.29        11.81091
497.73         11.9242
498.17        12.31423
498.61        12.56125
499.05        12.58928
499.49         12.5953
499.93        12.61343
500.37        12.61063
500.82        12.61361
501.26        12.69078
501.70        12.85931
502.14        12.83659
502.58        13.05388
503.02        13.12926
503.46        13.13651
503.90        13.11038
504.34         13.0741
504.78        13.10715
505.22        13.21664
505.66        13.35067
506.10        13.49213
506.54        13.65219
506.98         13.8204
507.42        13.92609
507.86         14.0558
508.30        14.08744
508.74        14.05355
509.18        13.96374
509.62         13.8658
510.06        13.83607
510.50        13.89352
510.94        14.01944
511.38        14.17628
511.82        14.30107
512.26        14.37306
512.70        14.40811
513.14        14.42455
513.58        14.44685
514.02         14.4826
514.46        14.53182
514.90        14.58263
515.34        14.56772
515.78        14.56843
516.22        14.52625
516.66        14.48905
517.10        14.48785
517.54        14.52916
517.98        14.60153
518.42        14.67532
518.86        14.70524
519.30        14.68017
519.74        14.61334
520.18        14.53368
520.62        14.48623
521.06        14.48274
521.50        14.51116
521.93        14.54757
522.37        14.54578
522.81        14.49802
523.25        14.41623
523.69         14.3289
524.13         14.2799
524.57        14.27666
525.01        14.30342
525.45        14.32593
525.89        14.29076
526.32        14.18573
526.76        14.03847
527.20        13.88321
527.64        13.77604
528.08        13.73161
528.52        13.72902
528.96        13.74925
529.40        13.76267
529.83        13.75675
530.27        13.74068
530.71        13.70819
531.15        13.64778
531.59        13.56273
532.03        13.45823
532.46        13.35427
532.90        13.29547
533.34         13.2878
533.78        13.31923
534.22        13.37185
534.66        13.41662
535.09        13.44253
535.53        13.45834
535.97        13.46334
536.41        13.45849
536.85         13.4463
537.28        13.42576
537.72        13.40546
538.16        13.39862
538.60        13.40993
539.04        13.44143
539.47         13.4814
539.91        13.51907
540.35        13.54782
540.79        13.57275
541.22        13.60229
541.66        13.64998
542.10        13.71803
542.54        13.80357
542.97        13.89124
543.41        13.96572
543.85        14.02357
544.29         14.0724
544.72        14.12876
545.16         14.2316
545.60         14.3808
546.04        14.56206
546.47        14.75394
546.91        14.91692
547.35        15.03887
547.79          15.138
548.22        15.21882
548.66        15.28866
549.10        15.36352
549.53         15.4961
549.97        15.67894
550.41        15.84419
550.84         15.9799
551.28         16.1416
551.72        16.32555
552.15        16.45832
552.59        16.53156
553.03        16.72947
553.46        16.75164
553.90        16.89176
554.34        17.05878
554.77        17.25491
555.21        17.44136
555.65        17.56252
556.08        17.59253
556.52         17.5876
556.96        17.57942
557.39        17.64086
557.83        17.77161
558.27        17.87897
558.70        17.94507
559.14         18.0073
559.57        18.05614
560.01        18.08568
560.45        18.10607
560.88        18.12304
561.32        18.17798
561.75        18.30448
562.19        18.47884
562.63        18.65729
563.06        18.78292
563.50        18.73228
563.93        18.56057
564.37        18.52111
564.80        18.63095
565.24        18.76997
565.68        18.91111
566.11        19.05406
566.55        19.18939
566.98        19.33116
567.42        19.47153
567.85        19.54165
568.29        19.57814
568.72        19.64071
569.16        19.73813
569.60        19.88322
570.03         20.0924
570.47        20.13713
570.90        20.25002
571.34        20.67439
571.77        20.71812
572.21        20.77424
572.64        21.07461
573.08        21.04749
573.51        21.30316
573.95        21.44608
574.38         21.5723
574.82        21.58744
575.25        21.68828
575.69        21.61667
576.12        21.58602
576.56         21.9572
576.99        21.96649
577.42        21.88691
577.86        21.95769
578.29        22.06049
578.73         21.7302
579.16        21.66597
579.60         21.6376
580.03        21.60602
580.47        21.56861
580.90        21.46217
581.33        21.55152
581.77        21.70181
582.20        20.99274
582.64        20.95596
583.07        20.81591
583.51        20.83147
583.94        20.88726
584.37        20.84819
584.81        20.68069
585.24        20.49101
585.68        20.40396
586.11        20.05334
586.54        20.04918
586.98          20.079
587.41        20.24635
587.85        19.86273
588.28        19.88311
588.71        20.02523
589.15        20.01781
589.58        19.72601
590.01        19.87373
590.45        19.89681
590.88        19.54221
591.31        19.56288
591.75        19.82038
592.18        19.87019
592.61        19.65415
593.05        20.11757
593.48        20.12313
593.91        19.70215
594.35        19.95435
594.78        20.13713
595.21        20.27716
595.65        20.34405
596.08        20.25086
596.51        20.52368
596.94        20.53478
597.38        20.81467
597.81        21.21646
598.24        21.27927
598.68        21.63809
599.11        22.24704
599.54        22.28771
599.97        22.37497
600.41        23.10108
600.84        23.42776
601.27        23.60195
601.70        23.84833
602.14        23.99768
602.57        24.56298
603.00        25.14058
603.43        25.59658
603.87        25.99449
604.30        26.21167
604.73        26.65252
605.16        27.40714
605.60        27.76108
606.03        28.32935
606.46        28.83105
606.89        29.09894
607.32        29.51268
607.76        30.15112
608.19        30.26552
608.62        30.61963
609.05         31.0305
609.48        31.42345
609.92         31.7138
610.35        32.45816
610.78         32.7132
611.21        32.71239
611.64        33.45622
612.07        33.70894
612.50        33.86853
612.94        34.13652
613.37        34.57254
613.80        34.89335
614.23        35.33837
614.66        35.70223
615.09         36.0296
615.52        36.38134
615.96        36.79658
616.39         36.8695
616.82        37.24135
617.25        37.74642
617.68         37.9448
618.11        38.24887
618.54         38.4832
618.97        38.88134
619.40        39.39312
619.84        39.45264
620.27        39.79403
620.70         39.7085
621.13        39.46374
621.56         40.0022
621.99         40.3182
622.42        40.35213
622.85        40.20771
623.28        40.50168
623.71        40.54392
624.14        40.53532
624.57        40.70966
625.00        40.57455
625.43        40.50568
625.86         40.4684
626.29         40.5637
626.72        40.16448
627.15        40.11023
627.58        39.85565
628.01        39.71553
628.44        39.25433
628.87        39.01277
629.30         39.0482
629.73        38.46677
630.16        38.01669
630.59        37.77581
631.02        37.48199
631.45         37.1841
631.88        36.81135
632.31        36.37271
632.74        35.71406
633.17        35.24064
633.60        34.73361
634.03        34.31494
634.46        33.96008
634.89         33.6194
635.32        33.19705
635.75        32.67118
636.18        32.09639
636.61        31.51707
637.04        30.96464
637.47        30.47725
637.89        30.11714
638.32        29.83307
638.75        29.49927
639.18        29.09975
639.61        28.70155
640.04         28.3198
640.47        27.95989
640.90        27.63109
641.33        27.31907
641.76        27.02537
642.18        26.82102
642.61        26.60328
643.04        26.45836
643.47        26.35124
643.90        26.27354
644.33        26.22206
644.76        26.19948
645.18        26.21353
645.61        26.27287
646.04         26.3781
646.47        26.52299
646.90        26.70176
647.33        26.89986
647.75        27.12039
648.18        27.38637
648.61        27.68934
649.04         28.0198
649.47        28.38376
649.89        28.74502
650.32        29.14885
650.75        29.75866
651.18        30.51762
651.61        31.18665
652.03        31.67485
652.46        32.06152
652.89        32.50115
653.32        32.92485
653.74        33.46893
654.17        34.86077
654.60        34.99218
655.03        35.59647
655.46        36.20208
655.88        37.31903
656.31        38.17968
656.74        38.91967
657.16         38.9018
657.59         39.3507
658.02        39.49876
658.45        40.47388
658.87        41.49509
659.30        41.90705
659.73        42.05256
660.15        42.40762
660.58        42.68562
661.01          43.234
661.44        43.87751
661.86        44.33738
662.29        44.60976
662.72        44.94801
663.14        45.38765
663.57        45.78378
664.00        46.14201
664.42        46.50547
664.85        46.88899
665.27        47.31575
665.70        47.74949
666.13        48.09978
666.55        48.35896
666.98        48.56705
667.41         48.7691
667.83        49.02203
668.26        49.33281
668.69        49.68903
669.11        50.05787
669.54        50.37439
669.96        50.62628
670.39        50.83867
670.82        51.03439
671.24         51.2128
671.67        51.39466
672.09          51.639
672.52        51.93143
672.94        52.11887
673.37        52.23329
673.80        52.45418
674.22        52.77076
674.65        52.98309
675.07        53.09071
675.50        53.17739
675.92        53.28103
676.35         53.4147
676.77        53.59449
677.20        53.81836
677.62        54.05517
678.05        54.23815
678.47         54.3544
678.90        54.43174
679.32        54.51098
679.75        54.66618
680.17        54.90562
680.60        55.21099
681.02        55.51927
681.45        55.70066
681.87        55.75096
682.30        55.72253
682.72        55.68073
683.15        55.73787
683.57        55.90744
684.00         56.0353
684.42        56.13166
684.85        56.33089
685.27        56.61624
685.70        56.90138
686.12        57.13943
686.54        57.31986
686.97        57.41786
687.39        57.44293
687.82        57.42884
688.24        57.33141
688.66        57.45281
689.09        57.50738
689.51        57.59523
689.94        57.76937
690.36        58.00104
690.78        58.13901
691.21        58.18235
691.63        58.25688
692.06        58.36504
692.48        58.41316
692.90        58.41751
693.33        58.44455
693.75        58.50485
694.17         58.5944
694.60        58.70202
695.02        58.79472
695.44        58.87874
695.87         59.0433
696.29        59.26024
696.71        59.41645
697.14        59.48101
697.56        59.49695
697.98        59.49518
698.41        59.57271
698.83        59.72671
699.25        59.93119
699.68        60.13612
700.10         60.3207
700.52        60.45689
700.94        60.55386
701.37        60.60424
701.79        60.63211
702.21        60.63051
702.64          60.606
703.06        60.57611
703.48        60.58736
703.90        60.65605
704.33        60.77276
704.75        60.91294
705.17        61.01195
705.59         61.0532
706.01        61.02829
706.44         60.9916
706.86        61.12955
707.28         61.2792
707.70         61.5819
708.12         61.8995
708.55        61.98101
708.97        61.84735
709.39        61.80378
709.81        61.87973
710.23        61.89322
710.66        61.85529
711.08        61.91059
711.50         62.0377
711.92        62.15137
712.34        62.24409
712.76        62.34372
713.19        62.44288
713.61        62.56778
714.03        62.70011
714.45        62.82502
714.87        62.94481
715.29        63.07087
715.71        63.20291
716.13        63.33752
716.56        63.43819
716.98        63.51747
717.40        63.55296
717.82        63.53518
718.24        63.49665
718.66        63.53674
719.08         63.6458
719.50        63.70241
719.92        63.70786
720.34        63.75721
720.76        63.84778
721.19         63.9118
721.61         63.9492
722.03        63.95963
722.45        63.94124
722.87        63.89594
723.29        63.84215
723.71        63.80925
724.13        63.81196
724.55        63.85221
724.97        63.92739
725.39        64.02863
725.81        64.14899
726.23        64.28223
726.65        64.43161
727.07        64.60558
727.49         64.7959
727.91        64.98869
728.33        65.14564
728.75         65.2073
729.17        65.16342
729.59          65.039
730.01        64.87714
730.43        64.74726
730.85        64.67651
731.27        64.65202
731.69        64.67454
732.10        64.74149
732.52         64.8271
732.94        64.97223
733.36        65.14854
733.78        65.22184
734.20        65.16558
734.62        65.46603
735.04        65.05963
735.46        65.45811
735.88        65.41958
736.30        65.45654
736.72        65.35471
737.13        65.43115
737.55        65.63519
737.97        65.87245
738.39        66.08795
738.81        65.75556
739.23        65.50025
739.65        65.54859
740.06        65.95663
740.48        66.09073
740.90        65.90295
741.32        65.83006
741.74        65.82938
742.16         65.8904
742.57        65.99424
742.99        66.20544
743.41        66.45939
743.83        66.50484
744.25        66.38143
744.67        66.40958
745.08        66.59982
745.50         66.6624
745.92        66.60332
746.34        66.59316
746.75        66.61903
747.17        66.58826
747.59        66.50925
748.01        66.37119
748.42        66.22834
748.84         66.2896
749.26        66.51686
749.68        66.57546
750.09        66.48545
750.51        66.60703
750.93        66.90254
751.35        67.06706
751.76        67.09123
752.18         67.1359
752.60        67.20281
753.01        67.20489
753.43        67.16573
753.85        67.18048
754.27        67.25928
754.68        67.44505
755.10        67.66815
755.52         67.6609
755.93        67.48191
756.35        67.50351
756.77         67.6843
757.18        67.81161
757.60        67.91442
758.02         67.8486
758.43        67.53503
758.85         68.3068
759.26        67.74924
759.68        67.67828
760.10        67.52779
760.51        67.00538
760.93        67.41912
761.34        67.35065
761.76        68.24566
762.18        68.24648
762.59        67.82771
763.01        67.84163
763.42        68.32867
763.84        68.45753
764.26        68.22768
764.67        68.10179
765.09        68.16728
765.50        68.27602
765.92        68.41567
766.33        68.55506
766.75        68.61355
767.16        68.51234
767.58         68.2715
768.00        68.34514
768.41        68.71639
768.83        68.69132
769.24        68.46089
769.66         68.6001
770.07        69.04435
770.49        69.23643
770.90        69.14505
771.32        69.03431
771.73        68.97733
772.15        68.92674
772.56         68.9136
772.97        69.01447
773.39        69.16398
773.80         69.1618
774.22        69.04107
774.63        69.21696
775.05        69.62283
775.46        69.87862
775.88        69.91493
776.29        69.98022
776.70        70.07273
777.12        70.09595
777.53        70.07493
777.95        70.02531
778.36        69.96886
778.77        69.92091
779.19        69.89301
779.60        69.88941
780.02        69.91439
780.43        70.00611
780.84         70.1394
781.26        70.27706
781.67        70.44584
782.09        70.56387
782.50        70.46637
782.91        70.81777
783.33         69.8765
783.74         69.7295
784.15        69.88855
784.57        70.06272
784.98        70.19006
785.39        70.39771
785.81        70.62521
786.22        70.65733
786.63        70.54403
787.04        70.55895
787.46        70.72945
787.87         70.8942
788.28        71.01225
788.70        71.07764
789.11        71.07082
789.52         70.9967
789.93        70.89811
790.35        70.92209
790.76        71.07771
791.17        71.07033
791.58        70.95384
792.00        71.13728
792.41        71.55105
792.82        71.68401
793.23        71.51152
793.65        71.35673
794.06        71.36878
794.47        71.56358
794.88        71.78481
795.29        72.38226
795.71        71.90147
796.12        71.83992
796.53        71.80617
796.94        71.60976
797.35         71.3197
797.76        71.32629
798.18        71.61932
798.59        71.78296
799.00        71.79317
799.41        71.85786
799.82         71.9734
800.23        72.04517
800.64        72.07064
801.06        72.04946
801.47        72.02702
801.88        72.02415
802.29        72.05319
802.70          72.052
803.11        72.03345
803.52        72.14285
803.93        72.33079
804.34        72.31429
804.75        72.12179
805.17        72.08675
805.58        72.27013
805.99        72.34908
806.40        72.31229
806.81        72.52636
807.22        72.82624
807.63        72.52467
808.04        71.79063
808.45        71.53725
808.86        71.87054
809.27        72.31303
809.68        72.69844
810.09        72.93774
810.50        72.95745
810.91        72.78025
811.32        72.53812
811.73        72.46783
812.14        72.63222
812.55        72.91916
812.96        73.21481
813.37         73.4315
813.78        73.46358
814.19        73.14359
814.60        72.63121
815.01        72.36779
815.42         72.4196
815.83         72.5884
816.24        72.80006
816.65        72.99263
817.05        73.11366
817.46        73.14219
817.87        73.13102
818.28        73.10719
818.69        73.08811
819.10        73.07046
819.51        73.04234
819.92        73.00591
820.33        72.97186
820.74        72.89628
821.14        72.83486
821.55         73.0209
821.96        73.39211
822.37        73.65069
822.78        73.73547
823.19        73.78894
823.60        73.79562
824.00        73.65575
824.41        73.37678
824.82        73.14644
825.23        73.01038
825.64        72.93055
826.04        72.94577
826.45        73.07594
826.86        73.31616
827.27        73.65178
827.68        73.99905
828.08        74.24244
828.49        74.27699
828.90        74.17123
829.31        73.97851
829.72        73.80344
830.12        73.70956
830.53        73.62202
830.94        73.56971
831.35        73.56182
831.75        73.61426
832.16        73.69241
832.57        73.76661
832.97         73.7402
833.38        73.59299
833.79        73.36713
834.20        73.14359
834.60        73.04063
835.01        73.09662
835.42        73.26612
835.82        73.52012
836.23        73.72633
836.64        73.86523
837.04        73.98171
837.45        74.03675
837.86        74.06908
838.26        74.10023
838.67        74.10124
839.08        74.09347
839.48        74.09943
839.89        74.12774
840.29        74.18105
840.70        74.25815
841.11        74.35441
841.51        74.48305
841.92        74.60413
842.33         74.7216
842.73        74.83692
843.14        74.89558
843.54        74.92157
843.95        74.90884
844.35        74.87299
844.76        74.80987
845.17        74.72141
845.57        74.62299
845.98        74.49786
846.38        74.37697
846.79        74.25513
847.19        74.15344
847.60        74.04852
848.00        73.96476
848.41        73.87028
848.81        73.82775
849.22         73.8633
849.62        74.00751
850.03         74.2146
850.43        74.41953
850.84        74.43933
851.24        74.28444
851.65        73.93705
852.05        73.57655
852.46         73.4222
852.86        73.53851
853.27        73.87405
853.67        74.19807
854.07        74.37041
854.48        74.31747
854.88        74.12579
855.29        73.82156
855.69        73.66389
856.10        73.63572
856.50        73.74652
856.90        73.86422
857.31        73.81721
857.71        73.61065
858.12        73.24338
858.52        72.86475
858.92        72.58451
859.33        72.42729
859.73        72.40414
860.13         72.4087
860.54         72.2806
860.94        72.02242
861.34        71.66079
861.75        71.30557
862.15        71.18163
862.55        71.30911
862.96        71.64701
863.36        72.03673
863.76        72.20723
864.17        72.08298
864.57        71.73537
864.97        71.38061
865.38        71.35229
865.78          71.758
866.18        72.47032
866.58        73.17188
866.99        73.31768
867.39        72.81033
867.79         71.8227
868.19         70.7278
868.60        70.02541
869.00        69.83701
869.40        70.05762
869.80        70.50983
870.21        70.85976
870.61        71.04546
871.01        71.10312
871.41        71.12601
871.81        71.24783
872.22        71.47515
872.62        71.77262
873.02        72.06215
873.42        72.21078
873.82        72.18351
874.22         72.0478
874.63        71.91581
875.03        71.91336
875.43        72.07713
875.83        72.35352
876.23        72.68668
876.63        72.98288
877.03        73.19308
877.44        73.32685
877.84         73.3687
878.24        73.26801
878.64        73.03104
879.04        72.68149
879.44        72.30196
879.84        72.00256
880.24        71.81144
880.64        71.72243
881.04        71.68877
881.44        71.62184
881.84        71.49814
882.24        71.32864
882.65        71.17129
883.05        71.22399
883.45        71.46755
883.85        71.84563
884.25        72.19482
884.65        72.27989
885.05        72.06342
885.45        71.61483
885.85        71.12423
886.25        70.92109
886.65        71.09563
887.05        71.55408
887.45        72.09031
887.85        72.38806
888.25        72.36708
888.65        72.10993
889.04         71.7836
889.44        71.70866
889.84        71.93456
890.24        72.34792
890.64        72.74899
891.04        72.83196
891.44        72.54054
891.84        72.00881
892.24        71.41426
892.64        71.02445
893.04        70.92393
893.44        71.02824
893.83        71.30289
894.23        71.62285
894.63        71.95339
895.03        72.31544
895.43        72.64568
895.83        72.83457
896.23         72.8655
896.63        72.76081
897.02        72.59098
897.42         72.5195
897.82        72.56377
898.22        72.67828
898.62         72.8242
899.01        72.93933
899.41        72.97919
899.81        72.99211
900.21        72.94955
900.61        72.80418
901.00         72.5522
901.40        72.21445
901.80        71.90195
902.20        71.80363
902.59        71.95904
902.99        72.30869
903.39        72.68335
903.79        72.78528
904.18        72.55986
904.58        72.12455
904.98        71.68302
905.38        71.54597
905.77         71.7591
906.17        72.20972
906.57        72.73946
906.96        73.10248
907.36        73.18415
907.76         73.0897
908.15        72.86126
908.55         72.4963
908.95        72.08012
909.34        71.60028
909.74        71.23754
910.14        71.21497
910.53        71.57117
910.93        72.22745
911.33        72.99293
911.72        73.52145
912.12        73.68491
912.52        73.58568
912.91        73.34224
913.31        73.17124
913.70        73.12526
914.10        73.12352
914.49        73.15821
914.89        73.15714
915.29        73.11991
915.68        73.08905
916.08         73.0556
916.47        72.98544
916.87         72.8917
917.26        72.74929
917.66        72.63051
918.05        72.61439
918.45         72.7057
918.84        72.91854
919.24        73.11216
919.64        73.14208
920.03        72.99416
920.42        72.69392
920.82        72.41485
921.21        72.41663
921.61        72.73605
922.00        73.32031
922.40        73.94798
922.79        74.30943
923.19        74.27471
923.58        73.96958
923.98        73.55706
924.37        73.34912
924.77        73.40573
925.16        73.62129
925.55        73.87206
925.95        73.93738
926.34        73.75715
926.74        73.41865
927.13        73.05194
927.52        72.74557
927.92        72.57145
928.31        72.48771
928.70         72.5274
929.10        72.73507
929.49        73.09476
929.89        73.54802
930.28         74.0604
930.67        74.44051
931.07        74.60399
931.46        74.60792
931.85        74.44121
932.24        74.14245
932.64        73.75307
933.03         73.2821
933.42        72.83205
933.82        72.55975
934.21        72.50587
934.60        72.64638
934.99        72.88255
935.39        73.01051
935.78        72.99979
936.17        72.88385
936.56        72.73835
936.96         72.6869
937.35         72.8133
937.74        73.04321
938.13        73.29496
938.53        73.46186
938.92        73.52578
939.31        73.50544
939.70        73.48422
940.09        73.59875
940.49        73.83964
940.88        74.17812
941.27        74.47138
941.66         74.5156
942.05        74.28114
942.44        73.85706
942.84        73.38588
943.23        73.03903
943.62        72.91093
944.01        72.95193
944.40        73.13317
944.79        73.39233
945.18        73.67287
945.57        73.96443
945.97        74.18539
946.36        74.29433
946.75        74.24458
947.14        74.03854
947.53        73.70032
947.92        73.29371
948.31        72.87191
948.70        72.46386
949.09        72.09981
949.48        71.80669
949.87         71.5995
950.26        71.48138
950.65        71.48076
951.04        71.63199
951.43        71.91911
951.82        72.30753
952.21        72.68572
952.60        72.87444
952.99        72.81306
953.38        72.53188
953.77        72.13189
954.16        71.77635
954.55        71.51392
954.94        71.31895
955.33        71.12123
955.72        70.80048
956.11        70.33702
956.50        69.77997
956.89        69.26437
957.28        69.00436
957.66        69.08807
958.05        69.45199
958.44        69.91795
958.83        70.19706
959.22         70.2026
959.61        69.95842
960.00        69.68268
960.39        69.73648
960.78        70.16793
961.16        70.89117
961.55        71.47379
961.94        71.28894
962.33        70.23847
962.72        68.62332
963.11         66.9716
963.49        66.02868
963.88        65.97709
964.27        66.60767
964.66        67.65903
965.04        68.65231
965.43         69.2844
965.82        69.70498
966.21        69.96511
966.60         70.1782
966.98        70.38594
967.37        70.44646
967.76        70.36732
968.15        70.18881
968.53        69.95477
968.92        69.74379
969.31         69.5054
969.69        69.09694
970.08        68.53371
970.47        67.90131
970.86        67.53636
971.24        68.01055
971.63        69.30018
972.02        71.11651
972.40        73.00589
972.79        74.24436
973.17        74.76944
973.56        74.69524
973.95         74.2375
974.33        73.75425
974.72        73.39249
975.11        73.05534
975.49        72.69691
975.88        72.27985
976.26        71.81275
976.65        71.36018
977.04        70.97832
977.42        70.68988
977.81        70.46588
978.19        70.28438
978.58        70.23994
978.96         70.4334
979.35        70.82143
979.74        71.35461
980.12        71.91172
980.51        72.08493
980.89        71.89903
981.28        71.38419
981.66        70.71814
982.05        70.27367
982.43        70.17329
982.82        70.29158
983.20         70.5986
983.59        70.85216
983.97         71.0714
984.35        71.28173
984.74        71.45242
985.12        71.50227
985.51        71.42683
985.89         71.2765
986.28        71.16306
986.66        71.35173
987.04        71.82924
987.43         72.4427
987.81        73.09938
988.20        73.53567
988.58        73.69981
988.96        73.69945
989.35        73.36571
989.73        72.51603
990.12        71.10615
990.50        69.07928
990.88        67.05292
991.27        66.43986
991.65        67.63921
992.03        70.19332
992.42        72.75311
992.80        73.95498
993.18        73.46458
993.56        71.51733
993.95        68.87937
994.33        67.47477
994.71        68.19298
995.10        70.12975
995.48        72.14603
995.86        72.95599
996.24        72.43823
996.63        70.95782
997.01        69.10027
997.39        68.08512
997.77        68.46365
998.15        69.78297
998.54        71.35514
998.92        72.30534
999.30        72.41024
999.68        71.97817
1000.06        71.29981
1000.45        70.83195
1000.83        70.83161
1001.21        71.05083
1001.59        71.38596
1001.97        71.71867
1002.35        71.99837
1002.73        72.33306
1003.12        72.58643
1003.50        72.31664
1003.88        71.53607
1004.26        70.40009
1004.64        69.35046
1005.02        68.92461
1005.40        69.17718
1005.78        69.98846
1006.16        70.95016
1006.54        71.32716
1006.92        70.89221
1007.30        69.80938
1007.69        68.64768
1008.07        68.22356
1008.45        68.81799
1008.83        70.19148
1009.21        71.63328
1009.59         72.1194
1009.97          71.388
1010.35        69.53659
1010.73        67.33934
1011.11        66.72174
1011.49        68.40553
1011.86        71.78267
1012.24        75.09601
1012.62        76.22063
1013.00        74.85266
1013.38        71.80107
1013.76        68.16923
1014.14        65.78731
1014.52        65.31003
1014.90        66.18388
1015.28        68.16686
1015.66        70.66608
1016.04        73.15438
1016.41        75.82599
1016.79        77.85913
1017.17        78.44969
1017.55        77.57287
1017.93        75.43898
1018.31        72.94836
1018.69        71.61112
1019.06        71.87808
1019.44        73.46024
1019.82        75.72369
1020.20        77.18938
1020.58        77.21706
1020.95        76.20264
1021.33        74.74111
1021.71        73.50695
1022.09        72.64427
1022.46        71.89098
1022.84        71.03103
1023.22        69.57294
1023.60        67.39004
1023.97        64.46484
1024.35        61.59985
1024.73        60.04891
