SpectraSmart Spectrum 2.9.0.0
--------- Device Information -----------
Spectrum Name :  反射率_0
Saving Time :  2024/04/27 22:50:51
Spectro-Module Model Name : SE2030-DUVN
Spectro-Module Serial Number : OS361AC55029948
Wavelength Start : 200
Wavelength End : 1025
Wavelength Unit : Wavelength(nm)
Spectrum Unit : Reflectance(%)
-----------Spectrum Setting ------------
Integration Time : 20ms
Average : 10
Boxcar : 0
Background removal :  enabled
linearity correction :  enabled
SC :  disabled
Intensity correction :  disabled
DWT denoise :  enabled
savitzky-golay :  disabled
FFT :  disabled
Running average :  disabled
Kalman :  disabled
High pass :  disabled
---------------BEGIN--------------------
Wavelength(nm)             Reflectance(%)
200.29               0
200.75       -20.70516
201.21        24.43416
201.67        57.98366
202.13         70.0954
202.58        68.40644
203.04         59.8604
203.50        50.19943
203.96        47.12408
204.42        51.14013
204.88        58.32206
205.34        64.90475
205.80        67.90479
206.26        66.84548
206.72         61.2332
207.18        51.60817
207.64        46.63206
208.10        51.88981
208.55        61.78124
209.01        67.08479
209.47         64.3698
209.93          51.502
210.39         14.7346
210.85       -98.52647
211.31       -235.8787
211.77       -71.66774
212.23        36.05916
212.69        72.92476
213.14          81.323
213.60        75.00684
214.06        55.56947
214.52        19.46679
214.98        -8.99704
215.44      -0.4978756
215.90        22.47328
216.36        42.51644
216.81        54.62933
217.27        61.07761
217.73        65.62408
218.19        67.92607
218.65        66.18685
219.11        60.17178
219.57        49.71522
220.02        36.88879
220.48        29.57116
220.94        30.57726
221.40        37.03444
221.86        45.83729
222.32        53.66903
222.77        59.60809
223.23        64.33566
223.69        67.02782
224.15        66.59991
224.61        63.33786
225.06          57.402
225.52        51.00238
225.98        48.38041
226.44         50.0681
226.90        53.69971
227.36        56.94235
227.81        57.93346
228.27        56.77108
228.73        54.08609
229.19        50.47754
229.65        47.30288
230.10        45.25501
230.56        44.30979
231.02        43.92601
231.48        43.45279
231.93        42.67732
232.39        41.87086
232.85        41.55521
233.31        42.44629
233.77        44.44201
234.22        47.21012
234.68        49.58418
235.14        50.13291
235.60        48.62092
236.05        45.18254
236.51        41.14618
236.97        39.60587
237.43        41.76185
237.88        46.93065
238.34         52.3976
238.80        55.15308
239.26        54.32521
239.71        49.42286
240.17        40.52613
240.63        34.97958
241.08        39.71263
241.54        49.57194
242.00        57.65851
242.46        61.02758
242.91        60.33385
243.37        55.18563
243.83        42.93272
244.28        27.41782
244.74        27.72367
245.20         43.0195
245.66        56.01229
246.11        60.06249
246.57         56.9973
247.03         47.5547
247.48        32.04707
247.94         22.4822
248.40        30.15746
248.85        47.17781
249.31        63.38218
249.77        71.15314
250.22        71.69265
250.68        69.07288
251.14        65.60002
251.59        62.69319
252.05        60.32968
252.51        57.08862
252.96        52.57203
253.42        49.40523
253.88        48.97795
254.33        50.82969
254.79        52.49955
255.25        51.62273
255.70        48.79788
256.16         45.6673
256.62        43.68001
257.07        44.39046
257.53        47.22762
257.99        50.45085
258.44        52.81455
258.90          53.621
259.35        52.84355
259.81        51.42098
260.27        49.65911
260.72        47.92366
261.18        46.63505
261.63        45.47656
262.09        44.53313
262.55        43.58694
263.00        42.55896
263.46        41.61689
263.91        40.79973
264.37        40.43126
264.83        40.41872
265.28        40.59002
265.74        40.73149
266.19        40.41774
266.65        39.68174
267.11        38.65058
267.56        37.53049
268.02        36.73703
268.47        36.32876
268.93        36.17613
269.38        36.16272
269.84        36.12885
270.30        35.98921
270.75        35.78577
271.21         35.4439
271.66        34.80799
272.12        33.90241
272.57        32.74659
273.03        31.56388
273.48        30.63181
273.94        30.06569
274.39         29.7608
274.85        29.59275
275.31        29.30107
275.76        28.81966
276.22        28.25723
276.67        27.69667
277.13        27.33645
277.58        27.15513
278.04        27.11081
278.49        27.03881
278.95        26.81308
279.40        26.36452
279.86         25.8057
280.31        25.21263
280.77        24.80085
281.22        24.56971
281.68         24.4916
282.13        24.43792
282.59        24.27068
283.04        23.95188
283.50        23.54108
283.95        23.13372
284.41        22.90459
284.86        22.86601
285.32        22.97026
285.77         23.0761
286.22        23.01205
286.68        22.76738
287.13         22.3791
287.59        21.99708
288.04        21.77621
288.50         21.7766
288.95        21.91432
289.41        22.10173
289.86        22.16839
290.32        22.09686
290.77        21.93901
291.22        21.78323
291.68        21.75484
292.13        21.87348
292.59        22.10243
293.04        22.38579
293.50        22.66134
293.95        22.90232
294.40        23.15034
294.86        23.41832
295.31        23.71583
295.77         24.0583
296.22        24.41765
296.68        24.83264
297.13        25.34509
297.58        25.94921
298.04        26.61627
298.49        27.25491
298.95        27.73945
299.40        28.05193
299.85        28.23901
300.31        28.41176
300.76         28.7106
301.21         29.1767
301.67         29.7588
302.12        30.36052
302.58        30.87255
303.03        31.24973
303.48        31.53902
303.94        31.79834
304.39        32.07013
304.84        32.38163
305.30        32.71055
305.75         33.0129
306.20        33.26332
306.66        33.46342
307.11        33.60013
307.57        33.70691
308.02        33.76942
308.47         33.8077
308.93        33.82682
309.38        33.81129
309.83        33.76026
310.29        33.68886
310.74        33.59388
311.19        33.50214
311.65        33.45009
312.10        33.42534
312.55         33.4169
313.00        33.41446
313.46        33.40366
313.91        33.36979
314.36        33.31981
314.82        33.22039
315.27        33.01622
315.72         32.7113
316.18        32.33834
316.63        31.96617
317.08        31.72315
317.53        31.63741
317.99        31.66917
318.44         31.7565
318.89        31.77928
319.35        31.70083
319.80        31.55458
320.25        31.37554
320.70        31.22759
321.16        31.12284
321.61        31.04218
322.06        30.96318
322.51        30.85759
322.97        30.71436
323.42        30.56166
323.87        30.40027
324.32        30.23612
324.78        30.07055
325.23        29.90146
325.68        29.74654
326.13        29.64161
326.59        29.57881
327.04        29.57347
327.49         29.5602
327.94        29.43999
328.39        29.19347
328.85        28.83959
329.30        28.47895
329.75        28.27475
330.20        28.27222
330.66        28.41516
331.11        28.60822
331.56        28.64462
332.01         28.4696
332.46        28.13655
332.92        27.74552
333.37        27.50266
333.82        27.45979
334.27        27.55624
334.72        27.70153
335.17        27.74754
335.63        27.64372
336.08        27.45987
336.53        27.24164
336.98        27.07248
337.43        26.98813
337.88         26.9635
338.34        26.99029
338.79        27.06281
339.24        27.16858
339.69        27.30573
340.14        27.45562
340.59        27.58558
341.05        27.68122
341.50         27.7479
341.95        27.77046
342.40         27.7419
342.85         27.6649
343.30        27.53778
343.75        27.39797
344.20        27.30456
344.66        27.27648
345.11         27.3075
345.56        27.34337
346.01        27.29008
346.46        27.13503
346.91        26.90733
347.36        26.70402
347.81        26.67151
348.26        26.83337
348.72        27.14239
349.17        27.47314
349.62        27.62673
350.07        27.55531
350.52        27.31069
350.97        27.02814
351.42        26.92573
351.87        27.04925
352.32         27.3266
352.77        27.60775
353.22        27.66757
353.67        27.45872
354.13        27.06731
354.58        26.61651
355.03        26.35084
355.48        26.33225
355.93        26.49386
356.38        26.69234
356.83         26.7047
357.28        26.48622
357.73        26.11612
358.18        25.73983
358.63        25.57901
359.08        25.67419
359.53        25.93646
359.98        26.22952
360.43        26.34506
360.88         26.2298
361.33        25.95312
361.78        25.59088
362.23        25.30124
362.68        25.13618
363.13         24.9787
363.58        24.79834
364.03        24.89438
364.48        24.69396
364.93        24.66791
365.38        24.61677
365.83        24.49508
366.28         24.2933
366.73        24.02545
367.18        23.76464
367.63        23.61958
368.08        23.60924
368.53        23.69656
368.98        23.79146
369.43        23.74615
369.88          23.529
370.33        23.19264
370.78        22.81644
371.23        22.53212
371.68        22.37674
372.13         22.3006
372.58        22.27456
373.03        22.24877
373.48        22.20088
373.93        22.16173
374.38        22.09042
374.83        21.91804
375.28        21.64495
375.72        21.27463
376.17        20.93964
376.62        20.81295
377.07        20.91428
377.52        21.17427
377.97        21.44337
378.42        21.48444
378.87         21.2524
379.32        20.84228
379.77        20.36856
380.22        20.00326
380.67        19.79782
381.11        19.69229
381.56        19.67338
382.01        19.71895
382.46        19.80295
382.91         19.9367
383.36        20.04561
383.81        20.00919
384.26        19.81078
384.71        19.47851
385.15        19.11352
385.60        18.91405
386.05         18.9121
386.50        19.05886
386.95        19.24822
387.40         19.3101
387.85        19.21142
388.29        19.00175
388.74        18.79726
389.19        18.71773
389.64        18.77751
390.09        18.91167
390.54        19.04895
390.98        19.07663
391.43        18.97817
391.88         18.8085
392.33        18.58467
392.78        18.35829
393.23        18.16035
393.67        17.89437
394.12         17.6395
394.57        17.71472
395.02        17.80744
395.47        17.86535
395.91        17.77688
396.36        17.71091
396.81        17.66765
397.26        17.53837
397.71        17.36639
398.15        17.28283
398.60         17.3159
399.05        17.34806
399.50        17.37427
399.95        17.50196
400.39         17.6636
400.84        17.61073
401.29        17.35629
401.74        17.09719
402.18        16.90345
402.63        16.80323
403.08        16.79361
403.53        16.77534
403.97        16.74556
404.42        16.79611
404.87         16.9039
405.32        16.99497
405.76        17.04998
406.21        17.03983
406.66        16.98757
407.11        17.01445
407.55        17.08288
408.00        17.00699
408.45        16.79524
408.90        16.52593
409.34        16.29352
409.79        16.30403
410.24        16.50862
410.68        16.61146
411.13        16.58355
411.58        16.60602
412.03        16.67847
412.47        16.71092
412.92         16.6894
413.37        16.64176
413.81        16.58038
414.26        16.53767
414.71        16.51746
415.15        16.51514
415.60         16.5159
416.05        16.50173
416.49        16.46968
416.94        16.42192
417.39        16.37536
417.83        16.35703
418.28        16.36467
418.73        16.38201
419.17        16.39132
419.62        16.36729
420.07        16.31334
420.51         16.2528
420.96         16.1867
421.41        16.13441
421.85        16.09869
422.30        15.99675
422.74        15.89334
423.19        16.08937
423.64        16.51176
424.08        16.72069
424.53        16.62641
424.98        16.56318
425.42        16.54474
425.87        16.26549
426.31        15.85141
426.76        15.83959
427.21        16.16248
427.65         16.2223
428.10        16.03848
428.54        16.04877
428.99        16.25004
429.44        16.55141
429.88        16.80356
430.33        16.57108
430.77        16.03143
431.22        15.90757
431.66        16.21432
432.11        16.47653
432.56        16.61789
433.00        16.77355
433.45        16.75772
433.89         16.4077
434.34        16.03641
434.78        15.14197
435.23        15.68484
435.67        16.17188
436.12        16.40337
436.57        16.53874
437.01        16.43796
437.46        16.39161
437.90         16.4799
438.35        16.61524
438.79        16.28025
439.24        16.14965
439.68        16.09794
440.13        16.07497
440.57        16.05761
441.02        16.15633
441.46        16.32006
441.91        16.17924
442.35        15.86926
442.80        16.09431
443.24         16.7122
443.69        16.77682
444.13        16.30298
444.58         16.0961
445.02        16.16385
445.47        16.08407
445.91        15.87553
446.36        15.78988
446.80        15.83665
447.24        15.94043
447.69        16.06986
448.13        16.21691
448.58         16.3414
449.02        16.36691
449.47        16.32607
449.91        16.34576
450.36        16.43917
450.80        16.53077
451.25        16.59543
451.69        16.62345
452.13        16.60282
452.58        16.52683
453.02        16.41736
453.47        16.31722
453.91        16.23771
454.36         16.1953
454.80        16.15987
455.24        16.06377
455.69        15.94176
456.13        15.83457
456.58        15.78044
457.02        15.89227
457.46        16.07884
457.91        16.04682
458.35        15.89204
458.79        15.86298
459.24         15.9866
459.68        16.10032
460.13        16.18028
460.57        16.16629
461.01        16.12359
461.46        16.08084
461.90         15.9813
462.34         15.9143
462.79        16.13553
463.23        16.19767
463.68        16.16826
464.12        16.11823
464.56         16.0658
465.01        16.06483
465.45        16.06228
465.89        15.97126
466.34         15.8498
466.78        15.77221
467.22         15.7337
467.67        16.05854
468.11        16.02203
468.55        16.02862
468.99        15.90081
469.44        15.85739
469.88        15.90567
470.32         15.9186
470.77         15.9007
471.21        15.91068
471.65        15.95282
472.10        16.01451
472.54        16.07168
472.98        16.10991
473.42        16.12933
473.87        16.08993
474.31        16.02399
474.75        16.13212
475.20         16.3614
475.64        16.39262
476.08        16.23345
476.52        16.20798
476.97        16.33714
477.41        16.29449
477.85        16.22857
478.29        16.34631
478.74        16.23499
479.18        16.09058
479.62        16.33404
480.06        16.38466
480.50        16.41558
480.95        16.41642
481.39         16.3717
481.83        16.61255
482.27        16.63873
482.72        16.58349
483.16         16.8082
483.60         16.8429
484.04        16.82178
484.48        16.81488
484.93        16.96136
485.37        16.86689
485.81        17.24872
486.25        17.55629
486.69        17.18354
487.14        16.82505
487.58        17.71752
488.02        17.48251
488.46         17.7199
488.90        17.77188
489.34        17.44321
489.79        17.19522
490.23        17.60468
490.67        17.92794
491.11        18.25621
491.55        18.32916
491.99        18.19629
492.43        18.22877
492.88        18.43788
493.32        18.55663
493.76        18.57915
494.20        18.68056
494.64        18.88088
495.08        19.07214
495.52        19.23306
495.96        19.50001
496.41         19.8387
496.85        19.74361
497.29        19.37654
497.73        19.50958
498.17        20.06657
498.61        20.36463
499.05        20.31147
499.49        20.27136
499.93         20.3061
500.37        20.34897
500.82        20.40647
501.26        20.53673
501.70        20.75194
502.14        20.61313
502.58        20.84955
503.02        20.90404
503.46        20.90592
503.90        20.88837
504.34         20.8577
504.78        20.89061
505.22        20.98656
505.66        21.08735
506.10        21.18254
506.54        21.31205
506.98         21.4732
507.42        21.55153
507.86        21.69978
508.30        21.75919
508.74        21.77778
509.18         21.7536
509.62         21.7219
510.06        21.73875
510.50        21.81361
510.94        21.93252
511.38        22.05414
511.82        22.11052
512.26        22.08799
512.70        22.01276
513.14        21.92624
513.58        21.88552
514.02        21.90851
514.46        21.99225
514.90        22.11772
515.34        22.17588
515.78        22.27939
516.22        22.33244
516.66        22.38019
517.10        22.43028
517.54        22.48442
517.98        22.53401
518.42        22.56347
518.86        22.55458
519.30        22.50691
519.74        22.43196
520.18        22.35439
520.62        22.30966
521.06        22.30822
521.50        22.34278
521.93        22.39713
522.37        22.43485
522.81        22.44684
523.25        22.43561
523.69        22.41473
524.13        22.40699
524.57        22.41409
525.01        22.42655
525.45        22.41686
525.89        22.34332
526.32        22.19936
526.76        22.01168
527.20        21.82014
527.64        21.68959
528.08        21.63633
528.52        21.63974
528.96        21.67097
529.40        21.68306
529.83        21.65942
530.27        21.61548
530.71        21.55559
531.15         21.4878
531.59        21.41752
532.03        21.34011
532.46        21.26293
532.90        21.21226
533.34        21.18956
533.78        21.19298
534.22        21.20793
534.66        21.20948
535.09          21.191
535.53        21.16323
535.97        21.13913
536.41         21.1437
536.85        21.18023
537.28        21.23753
537.72         21.2994
538.16        21.33693
538.60        21.34519
539.04        21.34253
539.47        21.33116
539.91        21.32692
540.35        21.33145
540.79        21.34438
541.22        21.37811
541.66        21.45332
542.10         21.5694
542.54        21.72054
542.97        21.87484
543.41        21.99517
543.85        22.07016
544.29        22.11177
544.72        22.14616
545.16        22.23232
545.60        22.37507
546.04         22.5567
546.47        22.74921
546.91        22.90327
547.35        23.00457
547.79        23.07986
548.22        23.14369
548.66        23.21209
549.10        23.30785
549.53         23.5053
549.97        23.77345
550.41        23.98044
550.84        24.10846
551.28        24.22848
551.72          24.352
552.15        24.46754
552.59        24.58687
553.03        24.70145
553.46        24.81645
553.90        24.96117
554.34         25.1317
554.77        25.32835
555.21        25.51728
555.65        25.64455
556.08        25.67427
556.52        25.68122
556.96        25.68498
557.39         25.7534
557.83        25.87739
558.27         25.9334
558.70        25.92279
559.14        25.94305
559.57        25.99149
560.01        26.04703
560.45        26.09908
560.88        26.11629
561.32        26.15143
561.75        26.26666
562.19        26.45317
562.63        26.68382
563.06        26.88314
563.50        26.85606
563.93        26.66014
564.37        26.62477
564.80        26.76549
565.24         26.9215
565.68        27.05954
566.11         27.1897
566.55        27.30735
566.98        27.42395
567.42        27.53899
567.85          27.594
568.29        27.63281
568.72        27.68802
569.16        27.77477
569.60         27.9602
570.03        28.26823
570.47        28.33344
570.90        28.45676
571.34        29.06308
571.77        29.01905
572.21        28.97174
572.64        29.24059
573.08        29.17116
573.51        29.58091
573.95        29.75148
574.38        29.82305
574.82        29.75299
575.25        29.80726
575.69        29.74046
576.12        29.64104
576.56        30.14415
576.99        30.13184
577.42        30.16521
577.86        30.07828
578.29        30.27714
578.73        29.81039
579.16        29.83645
579.60        29.96763
580.03        29.98505
580.47         29.8518
580.90        29.62709
581.33        29.65013
581.77        29.74407
582.20        29.45489
582.64        29.20489
583.07        29.18006
583.51        29.11424
583.94        29.17728
584.37        29.10017
584.81        28.86604
585.24         28.6698
585.68        28.63744
586.11        28.21598
586.54        28.23087
586.98         28.2398
587.41         28.4074
587.85        27.85218
588.28        27.90885
588.71        28.13393
589.15        28.16061
589.58        27.62717
590.01        27.94911
590.45        28.02905
590.88        27.61884
591.31        27.73921
591.75        28.13465
592.18        28.14319
592.61        27.78176
593.05        28.03549
593.48        28.32628
593.91        27.85133
594.35        27.99174
594.78        28.17599
595.21        28.32353
595.65        28.48349
596.08        28.49938
596.51        28.69168
596.94        28.79625
597.38        29.05279
597.81        29.43028
598.24        29.48274
598.68        29.89492
599.11        30.25644
599.54        30.56048
599.97        30.40763
600.41        31.21923
600.84        31.52046
601.27        31.68709
601.70        32.01886
602.14         32.3121
602.57        32.72013
603.00        33.21244
603.43         33.6597
603.87        34.23597
604.30         34.4325
604.73        34.79642
605.16        35.33376
605.60         35.7899
606.03        36.25821
606.46        36.65202
606.89        36.79041
607.32        37.42037
607.76        38.18413
608.19        38.19943
608.62        38.51241
609.05        38.90154
609.48         39.2964
609.92        39.59035
610.35        40.26083
610.78        40.58468
611.21        40.25386
611.64        41.04088
612.07        41.22928
612.50        41.42006
612.94         41.6672
613.37        42.01805
613.80        42.43546
614.23        42.76454
614.66        43.18169
615.09        43.60323
615.52        43.90913
615.96        44.10492
616.39        44.35817
616.82        44.44509
617.25        44.91462
617.68        44.94642
618.11        45.22195
618.54        45.52169
618.97        45.83208
619.40        46.10603
619.84        46.52496
620.27        46.69757
620.70        46.87799
621.13        46.87536
621.56        47.23714
621.99        47.09241
622.42        46.98668
622.85          47.071
623.28        47.60892
623.71        47.59955
624.14        47.25407
624.57         47.3826
625.00        47.67453
625.43        47.32506
625.86        47.25533
626.29        47.18495
626.72        46.96089
627.15        46.87286
627.58         46.8135
628.01        46.91059
628.44        46.43938
628.87        46.08387
629.30        46.21123
629.73         45.8088
630.16        45.13488
630.59        45.05159
631.02        44.73825
631.45        44.50495
631.88        44.23331
632.31        43.93695
632.74        43.42384
633.17        43.11929
633.60        42.66972
634.03        42.20385
634.46        41.71762
634.89        41.22026
635.32        40.71263
635.75        40.19938
636.18        39.71247
636.61         39.2547
637.04        38.77964
637.47         38.3099
637.89        37.95274
638.32        37.67134
638.75        37.34771
639.18          36.973
639.61        36.61052
640.04         36.2706
640.47        35.95074
640.90        35.65764
641.33        35.38042
641.76        35.10954
642.18        34.91665
642.61        34.66485
643.04        34.46755
643.47        34.30584
643.90        34.21462
644.33        34.19648
644.76        34.24054
645.18        34.31624
645.61        34.36903
646.04        34.38683
646.47        34.38282
646.90        34.39281
647.33        34.47592
647.75        34.65849
648.18        34.93083
648.61        35.25287
649.04        35.60839
649.47        35.97816
649.89        36.22541
650.32        36.43387
650.75        37.00469
651.18        37.83891
651.61        38.35889
652.03         38.5018
652.46        38.69167
652.89        39.11479
653.32        39.43024
653.74        39.76901
654.17         41.0813
654.60         41.1824
655.03        41.26769
655.46        42.08986
655.88        43.09235
656.31        43.97764
656.74        44.90403
657.16        45.03563
657.59        45.20889
658.02         45.1167
658.45        45.72917
658.87        45.90703
659.30        46.35414
659.73        46.77641
660.15        46.79123
660.58        47.44702
661.01        47.98155
661.44        48.63069
661.86        48.89769
662.29        48.91621
662.72        49.00478
663.14        49.25127
663.57        49.55997
664.00        49.90866
664.42        50.12373
664.85        50.39149
665.27        50.64811
665.70        50.94413
666.13        51.21137
666.55        51.45039
666.98        51.68135
667.41        51.91613
667.83        52.16866
668.26        52.43256
668.69         52.7081
669.11        52.98362
669.54        53.23528
669.96        53.46483
670.39        53.66756
670.82        53.85831
671.24         54.0764
671.67        54.31855
672.09        54.51841
672.52        54.68838
672.94        54.87204
673.37        55.06982
673.80        55.21987
674.22         55.3316
674.65        55.43109
675.07        55.53741
675.50        55.61617
675.92        55.69937
676.35        55.83929
676.77        56.04796
677.20        56.31278
677.62        56.59528
678.05         56.8088
678.47        56.93312
678.90        57.01143
679.32        57.09612
679.75        57.20963
680.17        57.47865
680.60        57.79559
681.02        58.11659
681.45        58.29415
681.87        58.32446
682.30        58.23307
682.72        58.11121
683.15        58.19932
683.57        58.48738
684.00         58.6129
684.42        58.56788
684.85        58.77284
685.27        58.95994
685.70        59.15914
686.12        59.27222
686.54          59.443
686.97        59.67308
687.39         59.6748
687.82        59.86587
688.24        59.88789
688.66        60.17669
689.09        60.10381
689.51        60.37998
689.94        60.47414
690.36        60.57593
690.78        60.64423
691.21         60.6941
691.63        60.81626
692.06        60.97267
692.48        60.97868
692.90        60.88578
693.33        60.92799
693.75        61.12914
694.17        61.37328
694.60        61.59446
695.02        61.78564
695.44        61.92411
695.87        61.93058
696.29        61.87878
696.71        62.09654
697.14        62.49668
697.56        62.57309
697.98        62.36754
698.41        62.43617
698.83        62.78438
699.25        63.09227
699.68        63.28149
700.10        63.62771
700.52        63.75681
700.94        63.92047
701.37        64.00784
701.79         64.0531
702.21        64.05053
702.64        64.02486
703.06        63.99638
703.48        64.00457
703.90        64.06885
704.33        64.17514
704.75        64.33141
705.17        64.52345
705.59        64.73969
706.01        64.95943
706.44        65.16158
706.86        65.40955
707.28        65.50767
707.70        65.63621
708.12        65.78451
708.55        65.78053
708.97        66.05613
709.39        66.13243
709.81        66.15784
710.23        66.24705
710.66        66.40701
711.08        66.58246
711.50        66.71488
711.92        66.77859
712.34        66.77078
712.76        66.70296
713.19        66.63506
713.61        66.71369
714.03         66.9418
714.45        67.26974
714.87        67.62073
715.29        67.87778
715.71        68.00925
716.13         68.0533
716.56        68.01734
716.98        67.99288
717.40        67.98895
717.82        67.98258
718.24        67.99942
718.66        68.11357
719.08        68.32407
719.50        68.52513
719.92        68.67918
720.34        68.87884
720.76        69.13093
721.19        68.96246
721.61        69.15338
722.03        69.07649
722.45        68.97378
722.87        68.82855
723.29        68.71072
723.71        68.71573
724.13        68.85867
724.55        69.12842
724.97        69.44128
725.39        69.65488
725.81        69.73151
726.23        69.70308
726.65         69.6515
727.07        69.71268
727.49        69.91524
727.91        70.21243
728.33        70.51308
728.75        70.66721
729.17        70.63854
729.59        70.48228
730.01        70.28487
730.43        70.18429
730.85        70.21771
731.27        70.33393
731.69        70.49342
732.10        70.64061
732.52        70.74192
732.94        70.85222
733.36        70.95462
733.78        70.95847
734.20         70.8589
734.62        70.94566
735.04        70.61158
735.46        70.82399
735.88        71.26933
736.30        71.26733
736.72        70.89129
737.13        70.88255
737.55        71.23499
737.97        71.56837
738.39        71.77561
738.81        71.71432
739.23         71.4839
739.65        71.58631
740.06        71.92995
740.48        72.10066
740.90        72.08023
741.32        71.77775
741.74        71.96745
742.16        71.96152
742.57        71.99905
742.99        72.08159
743.41        72.20022
743.83        72.29539
744.25        72.35036
744.67        72.38401
745.08         72.4459
745.50        72.54151
745.92        72.74389
746.34        72.97086
746.75        73.17696
747.17        73.23596
747.59        73.12624
748.01        72.95593
748.42        72.78001
748.84        72.52852
749.26        72.31372
749.68        72.45391
750.09        72.84605
750.51        73.06563
750.93        73.04179
751.35        72.94139
751.76        72.83095
752.18        72.76626
752.60        72.77378
753.01        72.85808
753.43        72.94618
753.85        73.05164
754.27        73.14149
754.68        73.46545
755.10         73.5905
755.52        73.78756
755.93        73.92754
756.35        74.05467
756.77        74.18477
757.18        74.32375
757.60        74.48251
758.02        74.67381
758.43        74.79383
758.85         74.8299
759.26        74.28042
759.68        74.14241
760.10        74.39662
760.51        73.85639
760.93        74.18606
761.34        74.32989
761.76        74.37775
762.18        74.61547
762.59        75.01105
763.01        74.58282
763.42        74.98795
763.84        74.97095
764.26        75.03923
764.67        75.09167
765.09        75.15347
765.50        75.11027
765.92         75.0086
766.33        74.99292
766.75        75.00293
767.16        75.00034
767.58        74.92465
768.00        74.83662
768.41        74.82417
768.83        74.92314
769.24        75.11179
769.66        75.43221
770.07        75.73258
770.49        75.63068
770.90         75.2276
771.32        75.14399
771.73        75.40768
772.15        75.49515
772.56        75.42023
772.97        75.51691
773.39        75.73724
773.80         75.8787
774.22        75.91642
774.63        75.92464
775.05        76.18714
775.46        76.21206
775.88        76.12681
776.29          76.344
776.70        76.78251
777.12        76.98062
777.53        76.91393
777.95        76.79797
778.36        76.71099
778.77        76.66136
779.19         76.6786
779.60        76.77462
780.02        76.88836
780.43        76.95825
780.84        76.95769
781.26        76.85568
781.67        76.77544
782.09        76.89288
782.50        77.09817
782.91        77.58352
783.33        77.25143
783.74        77.29575
784.15        77.37981
784.57           77.32
784.98        77.17422
785.39        77.14243
785.81        77.33773
786.22        77.46318
786.63        77.52727
787.04        77.64377
787.46        77.81195
787.87        77.93639
788.28        78.01084
788.70        78.06924
789.11         78.0934
789.52        78.05459
789.93        77.98376
790.35        77.99459
790.76        78.09214
791.17        78.07311
791.58        77.95907
792.00        77.96439
792.41        78.11164
792.82         78.2011
793.23        78.26115
793.65        78.45988
794.06        78.77795
794.47        79.08685
794.88        79.32137
795.29        79.23347
795.71        79.25323
796.12        79.02285
796.53        78.75143
796.94        78.59032
797.35        78.61063
797.76        78.80936
798.18        79.07873
798.59        79.24241
799.00        79.27863
799.41        78.95275
799.82        78.90337
800.23        78.78925
800.64        78.81664
801.06        78.91002
801.47        79.06643
801.88        79.18542
802.29        79.23512
802.70          79.251
803.11        79.25388
803.52        79.27589
803.93        79.33544
804.34        79.41521
804.75         79.5151
805.17        79.65971
805.58        79.87839
805.99        80.04077
806.40        80.13288
806.81         80.3607
807.22        80.59083
807.63        80.32378
808.04        79.69357
808.45        79.40659
808.86         79.5568
809.27        79.77669
809.68        79.97323
810.09        80.13921
810.50        80.22782
810.91        80.23904
811.32        80.21362
811.73        80.23406
812.14        80.32422
812.55        80.41432
812.96        80.46989
813.37        80.55654
813.78        80.61073
814.19        80.39214
814.60        80.02642
815.01        79.93049
815.42        80.14942
815.83        80.48666
816.24        80.84209
816.65        81.10681
817.05        81.21519
817.46        81.15053
817.87        81.00764
818.28        80.87923
818.69        80.79972
819.10        80.75269
819.51        80.71835
819.92        80.66297
820.33         80.5862
820.74        80.50925
821.14        80.47701
821.55        80.58491
821.96         80.8244
822.37        81.16788
822.78        81.52552
823.19        81.73747
823.60        81.75266
824.00        81.63017
824.41        81.41053
824.82        81.26871
825.23        81.25428
825.64        81.32985
826.04        81.46902
826.45        81.57788
826.86        81.63957
827.27        81.68171
827.68        81.71833
828.08        81.79928
828.49        81.86021
828.90        81.92068
829.31         81.9689
829.72        81.99393
830.12         82.0194
830.53        82.00522
830.94        81.97842
831.35        81.94372
831.75         81.9304
832.16        81.88101
832.57        81.84043
832.97        81.84299
833.38        81.88371
833.79        81.96693
834.20        82.04418
834.60        82.03592
835.01        81.94563
835.42        81.78204
835.82        81.64391
836.23        81.61597
836.64        81.74899
837.04        82.02871
837.45        82.30537
837.86        82.43645
838.26        82.40141
838.67        82.24372
839.08        82.06566
839.48        82.01632
839.89        82.13689
840.29        82.36382
840.70        82.67303
841.11        83.03658
841.51        83.43358
841.92        83.82019
842.33        84.11396
842.73        84.17295
843.14        83.92349
843.54        83.44984
843.95        82.87779
844.35        82.44176
844.76        82.20898
845.17        82.14286
845.57        82.20245
845.98        82.25752
846.38        82.29379
846.79        82.32165
847.19         82.3722
847.60        82.43058
848.00        82.51528
848.41        82.56463
848.81        82.60134
849.22        82.59464
849.62        82.57997
850.03        82.54848
850.43        82.50657
850.84        82.37238
851.24        82.19312
851.65        81.91327
852.05        81.70925
852.46        81.75277
852.86        82.06815
853.27        82.60836
853.67        83.06924
854.07        83.24322
854.48        83.05078
854.88        82.59407
855.29        81.98367
855.69        81.68098
856.10        81.71957
856.50        82.06902
856.90        82.47396
857.31        82.56042
857.71        82.28506
858.12        81.70852
858.52        81.07726
858.92        80.65382
859.33         80.5062
859.73        80.60033
860.13        80.77836
860.54        80.79175
860.94        80.61463
861.34        80.30182
861.75        79.96161
862.15        79.81857
862.55        79.88831
862.96        80.09276
863.36        80.32078
863.76        80.38168
864.17        80.21526
864.57        79.90582
864.97        79.54005
865.38         79.2278
865.78        79.06432
866.18        79.00091
866.58        79.00291
866.99        79.02168
867.39        79.07523
867.79        79.14879
868.19        79.26638
868.60        79.42539
869.00        79.60814
869.40        79.82265
869.80        80.02714
870.21        80.15794
870.61        80.26617
871.01         80.2988
871.41        80.27315
871.81        80.21698
872.22        80.10907
872.62        79.97453
873.02        79.83937
873.42        79.74168
873.82        79.70436
874.22        79.74874
874.63        79.84255
875.03        79.89148
875.43        79.89074
875.83         79.8343
876.23        79.81527
876.63        79.99469
877.03        80.37682
877.44        80.88387
877.84         81.3115
878.24        81.28871
878.64        80.76675
879.04        79.91469
879.44        79.00925
879.84        78.42641
880.24        78.25371
880.64        78.38539
881.04        78.71291
881.44        79.04063
881.84        79.28082
882.24        79.47664
882.65        79.60356
883.05        79.72901
883.45        79.81822
883.85        79.84435
884.25        79.80288
884.65        79.70713
885.05        79.57236
885.45        79.41109
885.85        79.27179
886.25        79.23009
886.65        79.30416
887.05        79.47527
887.45        79.67567
887.85        79.79803
888.25        79.81062
888.65        79.73151
889.04        79.60362
889.44        79.54436
889.84         79.5596
890.24        79.60892
890.64        79.63592
891.04         79.5539
891.44        79.35796
891.84        79.11154
892.24        78.85851
892.64        78.65916
893.04        78.54409
893.44        78.49042
893.83        78.57575
894.23        78.85057
894.63        79.32726
895.03        79.97253
895.43        80.61146
895.83        80.96286
896.23        80.96115
896.63        80.66903
897.02        80.28249
897.42        80.15384
897.82         80.3373
898.22        80.75433
898.62        81.19009
899.01        81.29741
899.41        80.97156
899.81        80.33476
900.21        79.65857
900.61        79.38092
901.00        79.59995
901.40        80.20247
901.80        80.88206
902.20        81.16824
902.59        80.96151
902.99        80.39053
903.39        79.75406
903.79        79.52415
904.18         79.8021
904.58        80.42663
904.98        81.11684
905.38        81.48143
905.77        81.42004
906.17        81.06045
906.57        80.59398
906.96        80.36161
907.36        80.43973
907.76        80.75785
908.15        81.13692
908.55        81.20638
908.95        80.91568
909.34        80.35107
909.74        79.81139
910.14        79.69369
910.53        80.08139
910.93        80.82936
911.33        81.61777
911.72         81.9059
912.12        81.57272
912.52        80.85193
912.91         80.0675
913.31        79.71423
913.70        79.89021
914.10        80.41889
914.49        81.16633
914.89        81.80766
915.29        82.21196
915.68        82.44315
916.08        82.49455
916.47        82.35868
916.87        82.08398
917.26        81.65857
917.66        81.16866
918.05        80.72488
918.45         80.3699
918.84        80.13048
919.24        80.00984
919.64        80.07435
920.03        80.33752
920.42        80.77312
920.82        81.27376
921.21         81.6655
921.61        81.87782
922.00        81.92781
922.40        81.92319
922.79        82.15896
923.19        82.63771
923.58        83.30938
923.98        83.86226
924.37        83.88174
924.77        83.30038
925.16        82.25015
925.55        81.14373
925.95        80.68114
926.34        81.05484
926.74        82.04375
927.13        83.23775
927.52        83.88012
927.92         83.7972
928.31         83.1788
928.70        82.40641
929.10        82.05502
929.49         82.2667
929.89        82.83142
930.28        83.47247
930.67        83.58619
931.07         83.0181
931.46        82.02824
931.85         80.9776
932.24        80.43672
932.64        80.54314
933.03        81.10798
933.42        81.86678
933.82        82.39531
934.21        82.56244
934.60        82.49221
934.99        82.32024
935.39        82.24374
935.78        82.36723
936.17        82.59328
936.56        82.83573
936.96        82.95971
937.35        82.97559
937.74        82.91002
938.13        82.82612
938.53         82.8065
938.92        82.86212
939.31        82.93807
939.70        82.99083
940.09        82.94971
940.49        82.77113
940.88        82.53555
941.27        82.22088
941.66        81.79314
942.05        81.27584
942.44        80.70092
942.84        80.21658
943.23        80.00375
943.62        80.13679
944.01        80.58119
944.40         81.1803
944.79        81.63981
945.18        81.84888
945.57        81.83867
945.97        81.73624
946.36        81.83088
946.75        82.13663
947.14        82.55405
947.53        82.87361
947.92        82.74949
948.31        82.12251
948.70        81.16174
949.09        80.12345
949.48         79.3784
949.87        79.04948
950.26        79.05615
950.65        79.30624
951.04        79.64037
951.43        79.98773
951.82        80.37547
952.21        80.79958
952.60        81.24709
952.99         81.6762
953.38        82.02673
953.77        82.22981
954.16        82.21614
954.55        81.98568
954.94        81.57848
955.33        81.07533
955.72         80.6084
956.11        80.23216
956.50        79.93193
956.89        79.71026
957.28        79.54692
957.66        79.46219
958.05        79.46268
958.44        79.51143
958.83        79.52831
959.22        79.48769
959.61        79.36449
960.00        79.25669
960.39        79.33417
960.78        79.60862
961.16        80.06039
961.55        80.40109
961.94        80.26703
962.33        79.59641
962.72        78.55447
963.11        77.47926
963.49        76.85445
963.88        76.79443
964.27        77.17238
964.66        77.77269
965.04        78.21912
965.43         78.2927
965.82        78.15121
966.21        77.94453
966.60        77.91699
966.98        78.13105
967.37        78.42605
967.76        78.71361
968.15        78.81728
968.53        78.69811
968.92        78.46426
969.31        78.12757
969.69        77.66512
970.08        77.11236
970.47        76.48389
970.86        76.09328
971.24        76.48603
971.63        77.63402
972.02        79.30425
972.40        80.99454
972.79        81.90032
973.17        81.96916
973.56        81.35338
973.95        80.43951
974.33        79.89317
974.72        79.92812
975.11        80.34834
975.49         80.9043
975.88         81.1999
976.26        81.12035
976.65        80.78619
977.04        80.32136
977.42        79.89722
977.81        79.52983
978.19        79.13973
978.58        78.83945
978.96         78.7986
979.35        79.00004
979.74         79.4627
980.12        79.98878
980.51        80.00121
980.89        79.51537
981.28        78.59145
981.66         77.6506
982.05        77.47183
982.43        78.24627
982.82        79.66801
983.20        81.30424
983.59        82.33501
983.97        82.63205
984.35        82.34137
984.74        81.70903
985.12        81.19037
985.51        80.95522
985.89        80.91828
986.28        80.95127
986.66         80.9313
987.04        80.80172
987.43        80.58466
987.81        80.46119
988.20        80.60451
988.58        81.09592
988.96        81.87312
989.35         82.5429
989.73        82.62088
990.12        81.93196
990.50        80.48391
990.88        78.85217
991.27        78.36655
991.65        79.42712
992.03        81.59094
992.42        83.59209
992.80        84.08427
993.18        82.75487
993.56        79.82225
993.95        76.23337
994.33        74.48658
994.71        75.62834
995.10        78.48512
995.48        81.47181
995.86        82.93253
996.24         82.7096
996.63        81.23771
997.01         79.1091
997.39        77.55524
997.77        77.21254
998.15        77.68978
998.54        78.44747
998.92        78.75053
999.30        78.42152
999.68        77.80208
1000.06        77.22592
1000.45        77.16093
1000.83        77.83747
1001.21        78.94733
1001.59        80.28909
1001.97        81.66984
1002.35        83.01975
1002.73        84.42317
1003.12        85.65073
1003.50        86.10114
1003.88        85.65299
1004.26        84.50749
1004.64        83.19032
1005.02        82.36202
1005.40        82.12241
1005.78        82.31077
1006.16          82.643
1006.54        82.60417
1006.92        82.03323
1007.30        81.09428
1007.69        80.07713
1008.07        79.32417
1008.45        79.03379
1008.83        79.12002
1009.21        79.31253
1009.59         79.2011
1009.97        78.67091
1010.35         77.7769
1010.73        76.89883
1011.11        76.91936
1011.49        78.16135
1011.86        80.35277
1012.24        82.56503
1012.62        83.87414
1013.00        84.10867
1013.38        83.51784
1013.76        82.57581
1014.14        82.09049
1014.52        82.31421
1014.90        83.04425
1015.28        83.89851
1015.66        84.12696
1016.04        83.51846
1016.41        82.49429
1016.79        81.32562
1017.17        80.73324
1017.55        80.84708
1017.93        81.41583
1018.31        82.23665
1018.69        82.98161
1019.06        83.60355
1019.44        84.29759
1019.82        84.94073
1020.20        85.24751
1020.58        85.16619
1020.95        84.58976
1021.33        84.18101
1021.71        84.83073
1022.09        86.54747
1022.46        89.01605
1022.84        91.32951
1023.22        91.65656
1023.60        89.36284
1023.97        84.59619
1024.35        78.36691
1024.73        73.24094
