SpectraSmart Spectrum 2.9.0.0
--------- Device Information -----------
Spectrum Name :  反射率_0
Saving Time :  2024/04/27 22:12:02
Spectro-Module Model Name : SE2030-DUVN
Spectro-Module Serial Number : OS361AC55029948
Wavelength Start : 200
Wavelength End : 1025
Wavelength Unit : Wavelength(nm)
Spectrum Unit : Reflectance(%)
-----------Spectrum Setting ------------
Integration Time : 20ms
Average : 10
Boxcar : 0
Background removal :  enabled
linearity correction :  enabled
SC :  disabled
Intensity correction :  disabled
DWT denoise :  enabled
savitzky-golay :  disabled
FFT :  disabled
Running average :  disabled
Kalman :  disabled
High pass :  disabled
---------------BEGIN--------------------
Wavelength(nm)             Reflectance(%)
200.29               0
200.75        28.51299
201.21        53.44498
201.67        68.06551
202.13        68.06081
202.58        58.79259
203.04        45.05754
203.50        33.74286
203.96        34.56093
204.42        46.33453
204.88        62.43603
205.34        77.41319
205.80        87.68571
206.26         93.8189
206.72        97.85134
207.18        98.84496
207.64        93.82053
208.10        85.08592
208.55        77.43982
209.01        71.53975
209.47        65.48441
209.93        56.04644
210.39        35.41344
210.85       -23.45589
211.31       -93.48426
211.77        -7.62533
212.23         48.9993
212.69        69.39758
213.14        76.85316
213.60        78.88845
214.06        77.95217
214.52        75.13244
214.98         76.4775
215.44        83.45904
215.90        90.08195
216.36        93.33189
216.81        92.57403
217.27        89.06775
217.73        83.80899
218.19        78.09628
218.65        74.16004
219.11        72.98115
219.57        74.14759
220.02        77.35222
220.48        82.06923
220.94        86.69471
221.40        90.79798
221.86        93.82583
222.32         95.6284
222.77         96.3934
223.23        96.25466
223.69        95.68285
224.15        95.23393
224.61        94.99373
225.06        94.83475
225.52        94.70367
225.98        94.02347
226.44        93.03476
226.90        92.18044
227.36        91.80323
227.81        92.08989
228.27        93.18462
228.73        94.87003
229.19        96.95301
229.65         98.8838
230.10        100.1412
230.56        100.9053
231.02        101.1282
231.48        100.9799
231.93         100.442
232.39        99.69564
232.85        98.62325
233.31        97.22752
233.77        95.62974
234.22         93.9978
234.68        92.50346
235.14         91.2563
235.60        90.24794
236.05        89.40767
236.51        88.75356
236.97        88.50516
237.43        88.68484
237.88        89.33949
238.34         89.8019
238.80        89.66312
239.26        88.62779
239.71        86.41165
240.17        82.16136
240.63        77.47353
241.08        75.52654
241.54        76.14511
242.00        77.27874
242.46        76.95086
242.91        74.63042
243.37        69.06181
243.83        57.32773
244.28        41.38823
244.74        37.74521
245.20        48.61078
245.66         59.1409
246.11        61.92595
246.57        57.91734
247.03        47.82995
247.48        31.65066
247.94        20.81313
248.40        27.24945
248.85        43.58877
249.31        60.99753
249.77        72.99728
250.22        79.33805
250.68        82.39458
251.14        83.83366
251.59        85.21143
252.05        87.11248
252.51        89.08227
252.96        89.96386
253.42        87.62836
253.88        82.00134
254.33        76.19056
254.79        72.03803
255.25        68.88692
255.70        66.32699
256.16         64.7822
256.62        64.69505
257.07        66.59444
257.53        69.92802
257.99        73.27686
258.44        75.48888
258.90        76.11555
259.35        75.09007
259.81        73.50491
260.27        71.63699
260.72        69.86111
261.18         68.7014
261.63        67.69893
262.09        67.09609
262.55        66.70448
263.00        66.36679
263.46        66.25491
263.91        66.15765
264.37        66.19711
264.83         66.2411
265.28        66.20543
265.74        66.12495
266.19        65.76833
266.65        65.23764
267.11        64.53857
267.56        63.75182
268.02        63.13215
268.47        62.67053
268.93        62.31131
269.38        61.97702
269.84        61.58711
270.30        61.09257
270.75        60.52874
271.21        59.83746
271.66        58.86394
272.12        57.64817
272.57        56.19763
273.03        54.78185
273.48        53.71078
273.94        53.10379
274.39        52.79887
274.85        52.59851
275.31        52.08465
275.76        51.17052
276.22        50.06089
276.67         48.9085
277.13        48.08725
277.58        47.56871
278.04        47.26402
278.49        46.95033
278.95        46.47425
279.40          45.725
279.86        44.87971
280.31        43.93325
280.77        43.03276
281.22        42.17953
281.68         41.4177
282.13        40.75361
282.59        40.29354
283.04        39.98156
283.50        39.78907
283.95        39.61137
284.41        39.35695
284.86        38.96431
285.32        38.49997
285.77         37.9282
286.22        37.25895
286.68        36.53707
287.13        35.74086
287.59        34.99904
288.04         34.4139
288.50        34.04499
288.95        33.82602
289.41        33.69773
289.86        33.50142
290.32        33.22465
290.77        32.89196
291.22        32.56311
291.68         32.3214
292.13        32.16996
292.59        32.08834
293.04        32.03597
293.50        31.98949
293.95        31.92544
294.40         31.8664
294.86        31.82054
295.31        31.78623
295.77        31.77457
296.22         31.7697
296.68        31.78904
297.13        31.83765
297.58        31.92201
298.04        32.04032
298.49         32.1632
298.95        32.26049
299.40        32.31644
299.85        32.33427
300.31        32.36295
300.76        32.44366
301.21        32.59512
301.67        32.81126
302.12        33.00509
302.58        33.08704
303.03         33.0279
303.48        32.86501
303.94        32.72392
304.39        32.74696
304.84        32.96722
305.30        33.33535
305.75        33.68261
306.20        33.79292
306.66         33.6396
307.11        33.26739
307.57        32.86268
308.02        32.65203
308.47        32.69779
308.93        32.91884
309.38        33.13834
309.83        33.11243
310.29        32.80299
310.74        32.28568
311.19        31.71964
311.65        31.35225
312.10        31.22991
312.55        31.27692
313.00        31.37888
313.46        31.36248
313.91        31.17566
314.36        30.87971
314.82        30.53175
315.27        30.21579
315.72        29.96573
316.18         29.7599
316.63         29.5755
317.08        29.40207
317.53        29.23383
317.99        29.07694
318.44        28.94257
318.89         28.8285
319.35        28.72975
319.80        28.63778
320.25        28.53827
320.70        28.41706
321.16        28.26383
321.61         28.0912
322.06        27.89722
322.51        27.68344
322.97        27.45297
323.42        27.21844
323.87        26.99434
324.32        26.81078
324.78        26.67155
325.23        26.57326
325.68        26.49525
326.13        26.40549
326.59        26.28242
327.04        26.15454
327.49        26.01409
327.94        25.85888
328.39        25.69267
328.85         25.5099
329.30        25.34025
329.75        25.22868
330.20        25.18545
330.66        25.18816
331.11        25.21131
331.56        25.16522
332.01        25.03006
332.46         24.8307
332.92        24.60763
333.37         24.4586
333.82        24.40378
334.27        24.41004
334.72        24.45188
335.17        24.48738
335.63        24.49005
336.08        24.49136
336.53        24.45658
336.98        24.33822
337.43        24.14031
337.88        23.88144
338.34        23.63853
338.79        23.54256
339.24        23.62273
339.69        23.83845
340.14        24.11084
340.59        24.30735
341.05        24.38335
341.50        24.37756
341.95        24.31355
342.40        24.24142
342.85        24.18153
343.30        24.11267
343.75        24.04515
344.20         23.9997
344.66        23.98326
345.11        23.99775
345.56        24.01781
346.01        23.99401
346.46        23.91733
346.91         23.7978
347.36        23.68311
347.81        23.64555
348.26        23.69904
348.72        23.82675
349.17        23.96092
349.62        23.99264
350.07        23.89937
350.52        23.70617
350.97        23.51185
351.42        23.47582
351.87        23.62106
352.32        23.88904
352.77        24.14369
353.22        24.17872
353.67        23.95726
354.13        23.56808
354.58         23.1185
355.03        22.83044
355.48          22.767
355.93        22.86519
356.38        23.03714
356.83        23.14475
357.28        23.14376
357.73        23.07474
358.18        22.97848
358.63        22.91636
359.08        22.89944
359.53        22.89313
359.98        22.86219
360.43         22.7608
360.88        22.58172
361.33        22.34832
361.78        22.08139
362.23        21.84639
362.68        21.67109
363.13        21.47893
363.58        21.25751
364.03        21.34748
364.48        21.15653
364.93        21.14564
365.38        21.12871
365.83        21.10241
366.28        21.05055
366.73        20.97695
367.18        20.86768
367.63        20.68891
368.08        20.44532
368.53        20.15552
368.98        19.86166
369.43        19.62959
369.88        19.48098
370.33        19.40304
370.78        19.37372
371.23        19.35411
371.68        19.32183
372.13        19.27357
372.58        19.21133
373.03        19.13913
373.48        19.05854
373.93        18.97669
374.38        18.86301
374.83        18.67178
375.28        18.40943
375.72        18.08741
376.17         17.8209
376.62        17.74811
377.07        17.88123
377.52        18.15633
377.97        18.44695
378.42        18.55429
378.87        18.43406
379.32        18.16071
379.77        17.81097
380.22        17.50265
380.67        17.27724
381.11        17.09453
381.56        16.97272
382.01        16.94139
382.46        16.99306
382.91        17.12687
383.36        17.25703
383.81         17.2434
384.26        17.06331
384.71        16.75454
385.15        16.41933
385.60        16.25421
386.05        16.29079
386.50        16.47512
386.95        16.70437
387.40        16.81549
387.85        16.77373
388.29        16.62661
388.74        16.47628
389.19         16.4288
389.64        16.49868
390.09        16.62727
390.54        16.75656
390.98        16.79671
391.43        16.73076
391.88         16.6015
392.33        16.41706
392.78        16.21092
393.23        16.01308
393.67        15.75295
394.12        15.50029
394.57        15.53271
395.02        15.57835
395.47        15.58564
395.91        15.49116
396.36        15.49695
396.81        15.60095
397.26        15.68062
397.71        15.69433
398.15        15.64452
398.60        15.54845
399.05        15.35311
399.50        15.13406
399.95        15.09386
400.39        15.20043
400.84        15.20904
401.29        15.10122
401.74        14.99358
402.18        14.91978
402.63        14.91536
403.08         14.9712
403.53        14.98684
403.97         14.9583
404.42        14.96811
404.87         14.9988
405.32        14.99515
405.76        14.95099
406.21        14.84611
406.66        14.72597
407.11         14.7305
407.55        14.83319
408.00        14.86485
408.45        14.79908
408.90        14.64321
409.34        14.46145
409.79        14.45071
410.24        14.59068
410.68         14.6594
411.13        14.64185
411.58        14.68314
412.03        14.76986
412.47        14.80106
412.92        14.75915
413.37        14.68289
413.81        14.58955
414.26        14.51388
414.71        14.46234
415.15        14.42545
415.60        14.40197
416.05        14.39533
416.49        14.40487
416.94        14.42871
417.39        14.45288
417.83        14.45553
418.28        14.42766
418.73        14.36886
419.17         14.3031
419.62        14.27314
420.07         14.2947
420.51        14.36433
420.96        14.44072
421.41        14.47773
421.85        14.45996
422.30        14.33065
422.74        14.17658
423.19          14.306
423.64         14.6638
424.08         14.8521
424.53        14.76593
424.98        14.66339
425.42        14.54946
425.87        14.16976
426.31        13.68469
426.76        13.63123
427.21        13.96323
427.65        14.14466
428.10        14.11922
428.54        14.16747
428.99        14.26733
429.44        14.36695
429.88        14.40191
430.33        14.10652
430.77        13.65634
431.22        13.63389
431.66        13.99626
432.11        14.24494
432.56         14.2894
433.00        14.25276
433.45        14.05519
433.89        13.74781
434.34        13.59836
434.78        13.01732
435.23         13.6257
435.67        14.13778
436.12        14.35025
436.57         14.3809
437.01        14.15965
437.46        14.04166
437.90        14.11834
438.35        14.28233
438.79        14.06115
439.24        13.99542
439.68        13.96243
440.13        13.93299
440.57        13.89654
441.02        13.96001
441.46        14.08493
441.91         13.9495
442.35         13.6636
442.80         13.8228
443.24        14.30232
443.69        14.29647
444.13        13.84289
444.58        13.65829
445.02        13.75182
445.47        13.75491
445.91        13.65371
446.36        13.62049
446.80        13.65208
447.24        13.69507
447.69        13.74391
448.13        13.82735
448.58        13.91926
449.02        13.94514
449.47         13.9169
449.91        13.91841
450.36        13.95733
450.80        13.98278
451.25        13.98952
451.69        13.99281
452.13        13.98754
452.58        13.95754
453.02         13.9128
453.47        13.87681
453.91        13.85238
454.36        13.85728
454.80        13.85739
455.24        13.78262
455.69        13.66227
456.13        13.53286
456.58        13.44547
457.02        13.52469
457.46        13.69774
457.91        13.70656
458.35           13.61
458.79        13.58513
459.24        13.65075
459.68        13.68166
460.13         13.6811
460.57        13.63228
461.01        13.59924
461.46        13.59514
461.90        13.55771
462.34        13.53886
462.79        13.74783
463.23         13.8104
463.68        13.78964
464.12        13.75712
464.56        13.72943
465.01        13.74695
465.45        13.75763
465.89        13.68011
466.34        13.56363
466.78        13.47581
467.22        13.41802
467.67        13.67412
468.11         13.6304
468.55        13.63041
468.99        13.52137
469.44        13.48652
469.88         13.5294
470.32        13.54053
470.77        13.52547
471.21         13.5356
471.65        13.57566
472.10         13.6378
472.54        13.69153
472.98        13.70941
473.42        13.69105
473.87        13.60509
474.31        13.50689
474.75        13.60904
475.20        13.87144
475.64        14.00988
476.08        13.97956
476.52        13.98594
476.97        14.03592
477.41        13.86979
477.85        13.67002
478.29        13.70066
478.74          13.637
479.18        13.61201
479.62        13.93211
480.06        14.02712
480.50        14.02414
480.95        13.94172
481.39        13.80142
481.83        13.93397
482.27        13.93232
482.72        13.89168
483.16        14.10237
483.60        14.13521
484.04        14.07023
484.48        14.06393
484.93        14.26807
485.37        14.11327
485.81        14.14764
486.25        14.98624
486.69        14.34119
487.14        14.03583
487.58        14.95523
488.02        14.77762
488.46        14.67451
488.90        14.92796
489.34        14.35543
489.79        14.20066
490.23        14.60242
490.67        14.82991
491.11        14.96324
491.55        14.94326
491.99        14.83824
492.43        14.86488
492.88        15.03484
493.32        15.17499
493.76        15.25813
494.20        15.36846
494.64        15.51389
495.08        15.62555
495.52        15.70269
495.96        15.87759
496.41        16.14203
496.85         16.0632
497.29        15.77642
497.73        15.91164
498.17        16.40447
498.61        16.69913
499.05        16.69595
499.49        16.65719
499.93        16.63003
500.37        16.57061
500.82        16.51988
501.26         16.5819
501.70        16.78061
502.14        16.74268
502.58        17.02552
503.02        17.12276
503.46        17.12449
503.90        17.07427
504.34        16.99794
504.78        16.99229
505.22        17.06815
505.66        17.16638
506.10        17.26756
506.54        17.38884
506.98        17.52224
507.42        17.57938
507.86        17.69091
508.30        17.73494
508.74        17.75335
509.18        17.74402
509.62        17.72646
510.06        17.73212
510.50         17.7677
510.94        17.82584
511.38         17.8929
511.82        17.94581
512.26        17.97605
512.70        17.99045
513.14        17.99266
513.58        17.98113
514.02        17.95872
514.46        17.93994
514.90        17.93067
515.34        17.87775
515.78        17.88746
516.22        17.87632
516.66        17.88273
517.10        17.91392
517.54        17.96958
517.98        18.04505
518.42        18.11815
518.86        18.15661
519.30        18.15292
519.74        18.11417
520.18         18.0661
520.62        18.05052
521.06        18.07615
521.50        18.13045
521.93        18.18703
522.37        18.19486
522.81        18.14559
523.25        18.05391
523.69        17.94899
524.13        17.87564
524.57        17.84527
525.01        17.84575
525.45        17.85185
525.89        17.82305
526.32         17.7491
526.76        17.65296
527.20        17.56038
527.64        17.51413
528.08         17.5219
528.52        17.56272
528.96        17.61556
529.40        17.64921
529.83        17.65136
530.27        17.63314
530.71        17.58992
531.15        17.51453
531.59        17.41301
532.03        17.29084
532.46        17.17373
532.90        17.11455
533.34        17.12018
533.78        17.17734
534.22        17.25694
534.66        17.31279
535.09           17.33
535.53        17.32195
535.97        17.30166
536.41        17.29347
536.85        17.30417
537.28        17.32618
537.72        17.34887
538.16        17.35378
538.60        17.34061
539.04         17.3242
539.47        17.31497
539.91        17.33754
540.35        17.39124
540.79        17.46905
541.22        17.55977
541.66        17.64653
542.10        17.72147
542.54        17.78997
542.97         17.8459
543.41        17.89111
543.85        17.92583
544.29        17.95167
544.72        17.98016
545.16        18.04417
545.60        18.14346
546.04        18.27142
546.47        18.41124
546.91        18.52953
547.35        18.61709
547.79        18.69108
548.22          18.761
548.66        18.83929
549.10        18.94189
549.53        19.12902
549.97        19.37102
550.41        19.55428
550.84        19.66248
551.28        19.75431
551.72        19.84408
552.15        19.93072
552.59        20.02674
553.03        20.12439
553.46        20.22359
553.90        20.34062
554.34        20.47221
554.77        20.62263
555.21        20.77202
555.65         20.8882
556.08        20.94339
556.52        20.99285
556.96        21.04385
557.39        21.14005
557.83        21.26987
558.27        21.33291
558.70        21.33213
559.14        21.35142
559.57        21.38939
560.01        21.42834
560.45        21.45714
560.88        21.44468
561.32         21.4354
561.75        21.49103
562.19        21.61078
562.63        21.76706
563.06        21.90791
563.50        21.90737
563.93         21.7945
564.37        21.78061
564.80        21.87283
565.24        21.96812
565.68        22.05395
566.11        22.14996
566.55        22.25627
566.98        22.38268
567.42        22.52093
567.85        22.59456
568.29        22.64298
568.72        22.73104
569.16        22.85614
569.60        23.02931
570.03        23.26901
570.47        23.28289
570.90        23.33628
571.34        23.85564
571.77        23.81844
572.21        23.82803
572.64        24.07882
573.08        24.03072
573.51         24.3752
573.95        24.41725
574.38        24.27486
574.82        24.52969
575.25        24.46811
575.69        24.37963
576.12        24.24499
576.56        24.76522
576.99        25.03596
577.42        24.81957
577.86        24.76412
578.29         24.8705
578.73        24.60703
579.16        24.59552
579.60        24.56358
580.03        24.50972
580.47        24.42596
580.90        24.32406
581.33        24.55879
581.77        24.29396
582.20        24.09313
582.64        23.66854
583.07        23.76925
583.51        23.73564
583.94        23.78238
584.37        23.74462
584.81        23.60303
585.24        23.39382
585.68        23.22213
586.11        23.14956
586.54        23.00065
586.98        23.15678
587.41        23.53926
587.85         23.0192
588.28        22.81039
588.71        22.83445
589.15        23.02154
589.58        22.72795
590.01        23.12804
590.45        23.11572
590.88        22.57347
591.31        22.48996
591.75        22.74186
592.18        22.90809
592.61         22.8877
593.05        23.18991
593.48        23.16051
593.91        22.69358
594.35        22.98735
594.78         23.2462
595.21        23.41769
595.65        23.48837
596.08        23.35186
596.51        23.66717
596.94        23.64628
597.38        23.92616
597.81        24.32191
598.24         24.2711
598.68        24.72507
599.11        25.13018
599.54        25.16005
599.97        25.09772
600.41        25.93832
600.84        26.25071
601.27        26.36823
601.70        26.55526
602.14        26.62955
602.57        27.23304
603.00        27.89469
603.43        28.28345
603.87        28.48061
604.30        28.59089
604.73        29.08432
605.16        29.57107
605.60        30.03323
606.03        30.52478
606.46        30.95662
606.89        31.31536
607.32        31.60908
607.76        32.26861
608.19        32.36017
608.62        32.68539
609.05        33.05525
609.48         33.4197
609.92        33.66022
610.35        34.49158
610.78        34.52433
611.21        34.42649
611.64        35.04683
612.07        35.32193
612.50        35.59095
612.94        35.86426
613.37         36.1863
613.80        36.39216
614.23        36.71164
614.66        37.01614
615.09        37.33689
615.52        37.64145
615.96        37.95676
616.39        37.97372
616.82         38.3704
617.25        38.65083
617.68         38.8829
618.11        39.05651
618.54        39.19727
618.97        39.49731
619.40        39.87569
619.84        40.32053
620.27        40.36103
620.70        40.40038
621.13        40.32154
621.56        40.76593
621.99        40.71987
622.42        41.02878
622.85        40.91043
623.28        41.29853
623.71        41.07306
624.14        41.06741
624.57        41.13488
625.00        41.16245
625.43         41.0023
625.86        40.92976
626.29        40.86743
626.72        40.89294
627.15        40.62272
627.58        40.45227
628.01        40.32256
628.44         40.0235
628.87        39.74183
629.30        39.75779
629.73        39.32304
630.16         38.7352
630.59        38.62617
631.02        38.33995
631.45        38.07994
631.88        37.76581
632.31        37.40678
632.74        36.83762
633.17        36.45037
633.60        35.99216
634.03        35.58138
634.46        35.20197
634.89        34.82454
635.32        34.38643
635.75        33.87653
636.18         33.3427
636.61        32.81912
637.04        32.31759
637.47        31.87256
637.89        31.55835
638.32        31.32766
638.75        31.05678
639.18         30.7291
639.61         30.4058
640.04        30.10183
640.47        29.82383
640.90        29.57885
641.33        29.35163
641.76        29.12767
642.18        28.95805
642.61        28.72799
643.04        28.53648
643.47        28.37444
643.90        28.28024
644.33        28.26029
644.76        28.30472
645.18        28.38745
645.61        28.46115
646.04        28.51418
646.47        28.55841
646.90         28.6221
647.33        28.74774
647.75        28.95371
648.18        29.24184
648.61        29.57778
649.04        29.91912
649.47        30.26168
649.89         30.5602
650.32         30.8686
650.75        31.42282
651.18        32.15006
651.61        32.66333
652.03        32.91692
652.46        33.20629
652.89        33.65972
653.32        34.03353
653.74        34.51435
654.17        35.65362
654.60        35.96211
655.03        36.60202
655.46        37.15769
655.88        38.11069
656.31         39.4775
656.74        39.98673
657.16         39.9426
657.59        40.60503
658.02        40.67476
658.45        40.91692
658.87        41.61088
659.30         42.0987
659.73        42.44564
660.15        42.39994
660.58        42.83994
661.01        43.33955
661.44         44.0695
661.86        44.45394
662.29        44.52435
662.72         44.7119
663.14        45.07458
663.57        45.47073
664.00         45.8508
664.42        46.12806
664.85        46.30411
665.27        46.47498
665.70        46.67184
666.13        46.88568
666.55        47.12966
666.98        47.41346
667.41        47.72021
667.83        48.00651
668.26        48.24832
668.69        48.46444
669.11        48.66864
669.54        48.83374
669.96        48.96179
670.39        49.13074
670.82         49.3679
671.24        49.30135
671.67        49.58585
672.09        49.70691
672.52        49.86169
672.94        50.01188
673.37         50.1587
673.80        50.27279
674.22        50.36489
674.65        50.46157
675.07        50.57904
675.50        50.68717
675.92        50.79213
676.35        50.90501
676.77        51.03077
677.20        51.16696
677.62        51.31259
678.05        51.45051
678.47        51.57816
678.90        51.70903
679.32        51.84584
679.75        52.00382
680.17        52.18003
680.60        52.36945
681.02        52.55304
681.45        52.68491
681.87        52.76789
682.30        52.80606
682.72        52.83155
683.15        52.90883
683.57        53.04869
684.00        53.16186
684.42        53.26478
684.85         53.4346
685.27        53.66054
685.70        53.93077
686.12        54.18806
686.54        54.31091
686.97        54.32221
687.39        54.36703
687.82        54.60273
688.24        54.61673
688.66        54.71846
689.09        54.79717
689.51         54.9347
689.94        55.03921
690.36        55.10996
690.78        55.16112
691.21        55.22597
691.63        55.34863
692.06        55.49659
692.48        55.76778
692.90        55.73582
693.33        55.84735
693.75        55.98133
694.17        56.08529
694.60        56.15594
695.02        56.25685
695.44        56.39223
695.87        56.52958
696.29        56.67128
696.71        56.86884
697.14        57.09992
697.56        57.26443
697.98        57.32955
698.41        57.58418
698.83        57.63841
699.25        57.76797
699.68        57.85283
700.10        57.95835
700.52        58.07835
700.94        58.20729
701.37        58.32551
701.79        58.42059
702.21        58.47469
702.64        58.50699
703.06        58.53513
703.48        58.60411
703.90        58.72969
704.33        58.89479
704.75        59.08022
705.17        59.23505
705.59        59.34289
706.01        59.39209
706.44        59.41719
706.86        59.57356
707.28        59.70218
707.70        59.94176
708.12        60.18591
708.55        60.26758
708.97        60.20004
709.39        60.18535
709.81        60.26188
710.23        60.33989
710.66        60.42873
711.08         60.6194
711.50        60.84756
711.92        60.98752
712.34        61.02205
712.76        60.98513
713.19        60.93242
713.61        60.99815
714.03        61.18892
714.45        61.46144
714.87        61.74122
715.29        61.91692
715.71        61.96478
716.13        61.92551
716.56         61.8421
716.98        61.84679
717.40        61.95293
717.82        62.13914
718.24        62.37936
718.66        62.56913
719.08        62.78735
719.50        62.95724
719.92        63.10244
720.34        63.20775
720.76        63.27297
721.19        63.29327
721.61        63.28175
722.03        63.23879
722.45        63.17435
722.87        63.09458
723.29         63.0397
723.71         63.0662
724.13        63.18758
724.55        63.40391
724.97        63.66943
725.39        63.84785
725.81        63.90161
726.23        63.95408
726.65        64.10965
727.07        63.97714
727.49         64.4735
727.91        64.83435
728.33        65.20225
728.75        65.34937
729.17        65.23882
729.59        64.92982
730.01        64.55331
730.43        64.37439
730.85        64.45686
731.27        64.66875
731.69        64.89875
732.10        65.24666
732.52        65.21094
732.94        65.24258
733.36        65.25072
733.78         65.1936
734.20        65.07234
734.62        65.37831
735.04        65.08279
735.46        65.34348
735.88        65.73528
736.30        65.68156
736.72        65.26781
737.13        65.21571
737.55        65.52905
737.97        65.79446
738.39        65.92905
738.81        65.89831
739.23        65.76469
739.65        65.88507
740.06        66.18283
740.48         66.2998
740.90        66.19324
741.32        66.14732
741.74        66.12672
742.16        66.19745
742.57         66.3442
742.99        66.62029
743.41        66.92031
743.83        66.91918
744.25        66.65778
744.67        66.50245
745.08        66.53865
745.50        66.58405
745.92        66.66641
746.34        66.91931
746.75        67.25745
747.17        67.44034
747.59        67.42023
748.01        67.29866
748.42        67.14355
748.84        66.94711
749.26        66.77872
749.68        66.88831
750.09        67.18156
750.51        67.13623
750.93         66.8247
751.35        66.90955
751.76        67.35445
752.18        67.45343
752.60        67.37171
753.01        67.31901
753.43        67.40813
753.85        67.39752
754.27        67.25522
754.68        67.88962
755.10        67.71927
755.52        67.94416
755.93        68.09503
756.35        68.20759
756.77        68.25087
757.18         68.3764
757.60          68.637
758.02        68.66486
758.43        68.39353
758.85        69.22705
759.26        68.67903
759.68        68.76131
760.10         68.8987
760.51        68.07053
760.93        68.50813
761.34        68.54016
761.76        69.00643
762.18        69.00444
762.59        68.73337
763.01         68.6912
763.42        68.94773
763.84        69.27177
764.26        69.54865
764.67        69.40244
765.09        68.96077
765.50        68.92758
765.92        69.30326
766.33        69.24162
766.75        68.64071
767.16         69.1047
767.58        68.68735
768.00        69.01263
768.41        69.44045
768.83        69.59971
769.24        69.47645
769.66        69.69767
770.07        69.90842
770.49         69.9495
770.90        69.76597
771.32        69.69032
771.73        69.74953
772.15        69.76115
772.56        69.75288
772.97        69.77925
773.39         69.8312
773.80        70.02936
774.22        70.29173
774.63        70.37067
775.05        70.31739
775.46        70.35184
775.88        70.47866
776.29        70.58488
776.70        70.62706
777.12         70.6142
777.53         70.5618
777.95        70.45309
778.36        70.36745
778.77         70.3895
779.19         70.5296
779.60        70.83036
780.02        71.18206
780.43        71.27467
780.84        71.12333
781.26         71.1293
781.67        71.35416
782.09        71.39718
782.50         71.1344
782.91         71.5359
783.33        70.81562
783.74        70.78517
784.15        70.90765
784.57        71.12191
784.98        71.34026
785.39        71.36398
785.81        71.25034
786.22        71.34911
786.63        71.63689
787.04        71.80203
787.46        71.83626
787.87        71.89859
788.28        71.99753
788.70        72.00815
789.11        71.90248
789.52        71.87225
789.93        71.90889
790.35        71.64339
790.76        71.26054
791.17        71.52023
791.58        72.28089
792.00        72.62172
792.41         72.4906
792.82         72.3615
793.23        72.35286
793.65        72.41298
794.06         72.5792
794.47        72.89688
794.88        73.26958
795.29        73.26859
795.71         73.3083
796.12        73.16681
796.53        73.02337
796.94        72.77837
797.35        72.54752
797.76        72.73028
798.18        73.21329
798.59        73.40491
799.00        73.25233
799.41        73.05842
799.82        72.90105
800.23        72.78775
800.64        72.75454
801.06        72.77105
801.47        72.85194
801.88        72.94581
802.29        73.03249
802.70         73.1179
803.11        73.19018
803.52        73.22918
803.93        73.23827
804.34        73.22228
804.75        73.19465
805.17        73.20634
805.58         73.3054
805.99        73.35445
806.40        73.37475
806.81        73.64894
807.22        74.03352
807.63        73.96392
808.04        73.53164
808.45        73.38815
808.86        73.59319
809.27        73.78248
809.68        73.87706
810.09         73.9071
810.50        73.85264
810.91        73.71748
811.32        73.56922
811.73        73.53167
812.14        73.63767
812.55        73.80686
812.96        74.00233
813.37        74.26425
813.78        74.50893
814.19         74.5103
814.60        74.31767
815.01        74.22466
815.42         74.2639
815.83        74.27359
816.24        74.26847
816.65        74.35314
817.05        74.53467
817.46        74.75021
817.87         74.9648
818.28        75.07212
818.69        75.05165
819.10        74.92892
819.51         74.7757
819.92         74.7225
820.33        74.80806
820.74        74.99297
821.14         75.1954
821.55        75.32433
821.96        75.33389
822.37        75.25501
822.78        75.14156
823.19        75.08728
823.60        75.12382
824.00        75.24541
824.41        75.35347
824.82        75.38049
825.23        75.30807
825.64        75.16933
826.04        75.05348
826.45        75.06316
826.86        75.23228
827.27        75.51834
827.68        75.83337
828.08        76.06606
828.49        76.10431
828.90        76.01368
829.31        75.85425
829.72        75.73235
830.12        75.70554
830.53        75.70094
830.94        75.68979
831.35        75.58788
831.75         75.4033
832.16        75.12865
832.57        74.86261
832.97        74.72871
833.38        74.75417
833.79         74.9056
834.20        75.11095
834.60        75.26084
835.01        75.33485
835.42        75.34585
835.82        75.35383
836.23         75.3812
836.64        75.46799
837.04        75.62431
837.45        75.75074
837.86         75.7891
838.26        75.74286
838.67        75.62251
839.08        75.53385
839.48        75.62937
839.89        75.92822
840.29        76.36134
840.70        76.81164
841.11        77.09987
841.51        77.19199
841.92        77.10724
842.33        76.90347
842.73        76.67606
843.14         76.4277
843.54        76.17466
843.95        75.96442
844.35        75.89101
844.76        75.95975
845.17        76.15826
845.57        76.42072
845.98        76.58603
846.38        76.62965
846.79        76.55116
847.19        76.41525
847.60        76.28584
848.00         76.2097
848.41        76.13025
848.81        76.04697
849.22        75.88485
849.62        75.67336
850.03        75.42751
850.43        75.20531
850.84        75.00113
851.24         74.8757
851.65        74.77061
852.05        74.77748
852.46        74.93241
852.86        75.21518
853.27        75.60263
853.67        75.91676
854.07        76.10783
854.48        76.11815
854.88        75.99992
855.29        75.72469
855.69        75.46724
856.10        75.19693
856.50        74.98161
856.90        74.77209
857.31        74.51216
857.71        74.25093
858.12        73.96895
858.52        73.78619
858.92        73.76001
859.33        73.87949
859.73        74.14343
860.13        74.43716
860.54        74.58424
860.94        74.56486
861.34        74.39583
861.75        74.11111
862.15        73.83585
862.55        73.59114
862.96        73.36883
863.36        73.19085
863.76        73.07844
864.17        73.02816
864.57        73.05275
864.97         73.1439
865.38        73.26079
865.78        73.42609
866.18        73.61065
866.58        73.74889
866.99        73.74887
867.39        73.62578
867.79        73.38258
868.19        73.10268
868.60        72.87287
869.00        72.71029
869.40        72.62466
869.80        72.60324
870.21        72.62469
870.61        72.74156
871.01        72.88574
871.41        73.03236
871.81         73.1458
872.22        73.18999
872.62        73.20538
873.02        73.18367
873.42        73.10909
873.82        73.00226
874.22        72.89131
874.63        72.85382
875.03        72.97281
875.43        73.25915
875.83        73.65598
876.23        74.10254
876.63        74.49541
877.03         74.7738
877.44        74.94521
877.84        74.95601
878.24        74.69837
878.64        74.19965
879.04        73.53853
879.44        72.89314
879.84        72.50237
880.24        72.41258
880.64        72.56316
881.04        72.86049
881.44        73.12921
881.84        73.29021
882.24        73.36545
882.65        73.34234
883.05        73.31395
883.45        73.26319
883.85        73.18058
884.25        73.04253
884.65        72.82187
885.05         72.5275
885.45         72.1757
885.85        71.87827
886.25        71.81701
886.65        72.02738
887.05         72.4596
887.45        72.92284
887.85        73.12521
888.25        72.99921
888.65        72.60639
889.04        72.14082
889.44        71.97742
889.84        72.17925
890.24        72.63168
890.64        73.08944
891.04        73.16695
891.44        72.79311
891.84        72.12354
892.24        71.40297
892.64        71.00343
893.04        71.03104
893.44         71.3727
893.83        71.90603
894.23        72.36799
894.63        72.68938
895.03        72.92041
895.43        73.10167
895.83        73.29482
896.23        73.51103
896.63        73.71174
897.02        73.83187
897.42        73.83275
897.82        73.70574
898.22        73.48988
898.62        73.27919
899.01        73.23454
899.41        73.36813
899.81        73.63419
900.21        73.93551
900.61        74.10802
901.00        74.09175
901.40        73.95824
901.80        73.73487
902.20        73.48004
902.59        73.23925
902.99        72.98285
903.39        72.78248
903.79        72.74002
904.18        72.86854
904.58        73.16013
904.98        73.50475
905.38        73.74052
905.77        73.82356
906.17        73.78454
906.57        73.72782
906.96        73.86354
907.36        74.19881
907.76        74.67348
908.15        75.11142
908.55        75.15034
908.95        74.75454
909.34        74.03427
909.74        73.26033
910.14        72.78795
910.53         72.7245
910.93        72.95319
911.33        73.34506
911.72        73.66898
912.12        73.81879
912.52           73.88
912.91        73.87256
913.31        73.85746
913.70        73.85384
914.10        73.81374
914.49        73.78666
914.89        73.81386
915.29         73.9153
915.68        74.06792
916.08        74.21129
916.47        74.23782
916.87         74.1433
917.26        73.95432
917.66        73.72506
918.05        73.50056
918.45        73.30412
918.84        73.15554
919.24        73.05996
919.64        73.11002
920.03        73.32353
920.42        73.65096
920.82        74.01705
921.21        74.29824
921.61        74.43145
922.00        74.43758
922.40        74.34541
922.79        74.29386
923.19        74.29285
923.58        74.37978
923.98        74.41324
924.37        74.23135
924.77        73.81067
925.16         73.1823
925.55        72.64127
925.95         72.6778
926.34        73.37045
926.74        74.53949
927.13        75.74112
927.52        76.17371
927.92        75.70924
928.31        74.59988
928.70        73.34746
929.10        72.72593
929.49        72.92325
929.89        73.65283
930.28        74.65337
930.67        75.33257
931.07        75.46262
931.46        75.27861
931.85        74.83844
932.24        74.25317
932.64        73.62513
933.03        72.92402
933.42        72.34702
933.82        72.23072
934.21        72.62932
934.60        73.45377
934.99        74.45704
935.39        75.17329
935.78        75.48212
936.17         75.4753
936.56        75.25732
936.96         75.0292
937.35        74.92986
937.74        74.86171
938.13         74.8361
938.53        74.88444
938.92         74.9977
939.31        75.16918
939.70        75.35361
940.09        75.44142
940.49        75.37937
940.88        75.24828
941.27        75.03788
941.66        74.74474
942.05        74.39935
942.44        74.01496
942.84        73.73743
943.23        73.74582
943.62        74.09666
944.01        74.73457
944.40        75.46743
944.79        75.93918
945.18         76.0314
945.57        75.82347
945.97        75.45071
946.36        75.21078
946.75        75.14307
947.14        75.15294
947.53          75.161
947.92        75.03938
948.31        74.75457
948.70        74.39129
949.09         73.9791
949.48        73.53493
949.87        73.10055
950.26         72.6968
950.65        72.39935
951.04        72.33057
951.43        72.50149
951.82        72.84536
952.21        73.29317
952.60        73.71889
952.99        74.03869
953.38        74.25931
953.77        74.28851
954.16        74.00311
954.55        73.40774
954.94        72.54119
955.33        71.59867
955.72        70.91273
956.11        70.58242
956.50        70.55597
956.89         70.6717
957.28        70.60851
957.66        70.31448
958.05        69.89983
958.44        69.52877
958.83        69.45052
959.22        69.71281
959.61        70.16333
960.00        70.73579
960.39        71.35347
960.78        71.93971
961.16        72.53617
961.55        72.89346
961.94        72.70098
962.33        71.94065
962.72        70.77463
963.11        69.56606
963.49        68.84038
963.88        68.72929
964.27        69.10905
964.66        69.80799
965.04        70.50247
965.43        70.95974
965.82        71.29123
966.21        71.52558
966.60        71.73657
966.98        71.95239
967.37        72.06205
967.76        72.06517
968.15        71.96991
968.53        71.81053
968.92        71.65105
969.31        71.46936
969.69        71.18699
970.08         70.8111
970.47        70.37612
970.86        70.14532
971.24        70.57413
971.63        71.61481
972.02        73.04871
972.40        74.45753
972.79        75.14169
973.17        75.07358
973.56        74.39247
973.95        73.41073
974.33        72.66264
974.72        72.34859
975.11        72.31369
975.49        72.45053
975.88        72.59933
976.26        72.70091
976.65        72.84147
977.04        72.95057
977.42        72.86875
977.81        72.51793
978.19         71.8585
978.58        71.24037
978.96        71.24049
979.35        71.94164
979.74         73.2279
980.12         74.5508
980.51        74.78808
980.89        73.82661
981.28        71.87952
981.66        69.73688
982.05        68.88638
982.43        69.71823
982.82        71.70223
983.20        74.03028
983.59        75.29356
983.97        75.22297
984.35        74.20288
984.74        72.66995
985.12        71.40509
985.51        70.74638
985.89         70.4842
986.28        70.57471
986.66        71.05776
987.04        71.81934
987.43         72.8298
987.81        73.91115
988.20        74.59286
988.58        74.78491
988.96        74.60474
989.35        74.04739
989.73         73.2464
990.12        72.22423
990.50        70.83052
990.88        69.52918
991.27        69.33881
991.65        70.49243
992.03        72.70765
992.42        74.72804
992.80         75.2373
993.18        73.92606
993.56        70.94693
993.95        67.36436
994.33        65.87177
994.71        67.54005
995.10        71.05286
995.48        74.58974
995.86        76.23399
996.24        75.84098
996.63         73.9199
997.01        71.27641
997.39         69.6629
997.77        69.89537
998.15        71.39137
998.54        73.22649
998.92        74.17287
999.30        73.93329
999.68        72.94025
1000.06        71.72716
1000.45        71.16496
1000.83        71.61262
1001.21        72.65627
1001.59        73.84986
1001.97        74.60341
1002.35        74.75462
1002.73        74.51056
1003.12        73.98972
1003.50        73.32076
1003.88        72.70532
1004.26        72.08019
1004.64        71.58063
1005.02        71.36631
1005.40        71.41652
1005.78        71.74029
1006.16        72.06377
1006.54        71.87972
1006.92        71.08866
1007.30        69.83574
1007.69        68.62897
1008.07        68.19014
1008.45        68.76353
1008.83        70.09789
1009.21        71.64108
1009.59        72.61658
1009.97        72.81522
1010.35        72.35818
1010.73         71.5939
1011.11        71.38438
1011.49        72.06853
1011.86        73.39603
1012.24        74.59336
1012.62        74.88659
1013.00        74.19408
1013.38        72.89951
1013.76        71.46259
1014.14        70.62371
1014.52        70.64246
1014.90        71.25121
1015.28        72.42978
1015.66        74.04739
1016.04        75.86606
1016.41         77.9881
1016.79        79.61401
1017.17        79.99189
1017.55        79.08217
1017.93        77.09454
1018.31         75.0383
1018.69        74.52756
1019.06        76.06486
1019.44        79.47583
1019.82        83.62503
1020.20        85.98102
1020.58        85.57241
1020.95        82.93963
1021.33        79.90886
1021.71        78.84573
1022.09        80.02359
1022.46        82.72659
1022.84         85.2263
1023.22        84.25238
1023.60        78.72713
1023.97        69.03065
1024.35        57.55883
1024.73        50.12893
