SpectraSmart Spectrum 2.9.0.0
--------- Device Information -----------
Spectrum Name :  反射率_0
Saving Time :  2024/04/27 22:12:25
Spectro-Module Model Name : SE2030-DUVN
Spectro-Module Serial Number : OS361AC55029948
Wavelength Start : 200
Wavelength End : 1025
Wavelength Unit : Wavelength(nm)
Spectrum Unit : Reflectance(%)
-----------Spectrum Setting ------------
Integration Time : 20ms
Average : 10
Boxcar : 0
Background removal :  enabled
linearity correction :  enabled
SC :  disabled
Intensity correction :  disabled
DWT denoise :  enabled
savitzky-golay :  disabled
FFT :  disabled
Running average :  disabled
Kalman :  disabled
High pass :  disabled
---------------BEGIN--------------------
Wavelength(nm)             Reflectance(%)
200.29               0
200.75       -35.23092
201.21       -7.150859
201.67        21.57107
202.13        36.19795
202.58        40.95532
203.04        42.17322
203.50        43.61232
203.96        48.82448
204.42        56.93938
204.88        65.16027
205.34        71.42677
205.80        74.52197
206.26        74.47888
206.72          71.036
207.18        63.41594
207.64        55.32196
208.10        52.63223
208.55         54.9939
209.01        56.28268
209.47        53.18113
209.93        43.44528
210.39        17.42593
210.85       -60.40398
211.31       -148.6593
211.77       -31.18276
212.23        42.46215
212.69        67.40399
213.14        73.90162
213.60        71.17567
214.06          60.805
214.52        41.40591
214.98        27.72858
215.44        35.04622
215.90        49.42031
216.36        61.05847
216.81        67.36994
217.27        69.93037
217.73        71.03469
218.19        70.59026
218.65        67.80035
219.11        62.73531
219.57        55.27369
220.02         47.1916
220.48        44.48756
220.94         48.6499
221.40        57.10058
221.86        66.54279
222.32        73.82961
222.77        78.55438
223.23        81.60133
223.69        83.44419
224.15        84.61336
224.61        85.44261
225.06        85.82041
225.52         85.9425
225.98        85.70135
226.44        85.28436
226.90        84.85957
227.36        84.72503
227.81        85.06104
228.27        85.96288
228.73        87.24736
229.19        88.54207
229.65         89.0359
230.10         88.3461
230.56         86.9873
231.02        85.32855
231.48        83.98734
231.93         83.0699
232.39        82.61038
232.85        82.43082
233.31        82.41832
233.77        82.48662
234.22        82.62569
234.68         82.8108
235.14        83.00498
235.60        83.17554
236.05        83.32945
236.51        83.25758
236.97        82.66039
237.43        81.50887
237.88        80.13319
238.34        78.60561
238.80        77.36096
239.26        76.32244
239.71        75.31176
240.17         74.0023
240.63        72.82839
241.08        72.59213
241.54        73.00259
242.00        73.23271
242.46        72.34772
242.91        69.93233
243.37        64.57198
243.83        53.42732
244.28         38.2409
244.74        34.67305
245.20        44.93764
245.66        55.62013
246.11        60.27732
246.57        60.34138
247.03        57.69827
247.48        52.13061
247.94        47.12881
248.40        47.15907
248.85         49.6778
249.31        54.53472
249.77        62.01832
250.22        70.21999
250.68        77.91813
251.14        83.46404
251.59        85.51424
252.05        84.46342
252.51        80.26813
252.96        73.05463
253.42        67.59703
253.88        67.20152
254.33        69.99476
254.79        73.10824
255.25        74.00921
255.70        72.89292
256.16        71.37604
256.62        70.29109
257.07        70.50857
257.53        72.01456
257.99        73.65451
258.44        74.49387
258.90        74.23252
259.35        72.76752
259.81        71.06464
260.27        69.41029
260.72        68.18684
261.18        67.78302
261.63        67.61855
262.09        67.76544
262.55        67.86668
263.00        67.76837
263.46          67.724
263.91        67.58293
264.37         67.5613
264.83         67.5522
265.28        67.43871
265.74        67.27583
266.19        66.85332
266.65        66.26879
267.11        65.52834
267.56        64.66783
268.02        63.86481
268.47        63.11409
268.93        62.40854
269.38        61.73984
269.84        61.13421
270.30        60.57019
270.75        60.04058
271.21        59.47006
271.66        58.67565
272.12        57.66569
272.57         56.4455
273.03        55.21053
273.48        54.15863
273.94        53.40503
274.39        52.83332
274.85        52.35159
275.31        51.69766
275.76        50.80793
276.22        49.82628
276.67        48.84256
277.13         48.1349
277.58        47.65572
278.04        47.36554
278.49        47.04119
278.95        46.52708
279.40        45.72423
279.86        44.79674
280.31        43.80799
280.77        43.01194
281.22        42.39881
281.68        41.95993
282.13         41.5782
282.59        41.18477
283.04        40.71643
283.50        40.23596
283.95        39.74777
284.41        39.32905
284.86        38.96181
285.32         38.6391
285.77        38.30751
286.22        37.95495
286.68        37.58939
287.13        37.18622
287.59        36.76854
288.04        36.27468
288.50        35.75136
288.95         35.1876
289.41        34.67395
289.86        34.28053
290.32        34.04674
290.77        33.93175
291.22         33.8787
291.68        33.79102
292.13        33.62695
292.59        33.42052
293.04         33.2205
293.50        33.14002
293.95        33.18487
294.40        33.33236
294.86        33.49481
295.31        33.52542
295.77         33.4124
296.22        33.19502
296.68        33.00662
297.13        33.03371
297.58        33.31399
298.04        33.76962
298.49        34.25983
298.95        34.59183
299.40        34.71131
299.85        34.68611
300.31         34.6085
300.76         34.5894
301.21        34.67692
301.67         34.8305
302.12        34.99853
302.58        35.15128
303.03        35.25079
303.48        35.32117
303.94        35.38115
304.39        35.40502
304.84        35.40968
305.30        35.40491
305.75        35.36427
306.20        35.29014
306.66        35.19978
307.11        35.07155
307.57        34.96042
308.02        34.88588
308.47        34.86474
308.93        34.88279
309.38        34.88004
309.83        34.78908
310.29        34.60601
310.74        34.34262
311.19        34.04576
311.65        33.78903
312.10        33.57836
312.55        33.39865
313.00        33.24353
313.46        33.10172
313.91         32.9604
314.36        32.83178
314.82         32.6838
315.27        32.45927
315.72         32.1574
316.18        31.80332
316.63        31.45746
317.08        31.23763
317.53        31.16619
317.99        31.20409
318.44        31.28339
318.89        31.27635
319.35        31.14933
319.80        30.94107
320.25         30.7045
320.70        30.53275
321.16        30.44247
321.61        30.40166
322.06        30.37281
322.51        30.30202
322.97        30.16757
323.42        30.00587
323.87        29.81038
324.32        29.57504
324.78        29.30774
325.23        29.01545
325.68        28.74769
326.13        28.59343
326.59        28.55601
327.04        28.63041
327.49        28.72758
327.94        28.70661
328.39        28.52871
328.85        28.22359
329.30        27.87281
329.75        27.61146
330.20        27.48773
330.66        27.45597
331.11        27.47591
331.56        27.43178
332.01        27.29368
332.46        27.09876
332.92         26.8966
333.37        26.79676
333.82        26.81633
334.27        26.91129
334.72        27.02931
335.17        27.09009
335.63        27.05938
336.08        26.98219
336.53        26.85552
336.98        26.68731
337.43        26.49745
337.88        26.28868
338.34        26.11742
338.79        26.07884
339.24        26.19023
339.69        26.42729
340.14        26.71057
340.59        26.90606
341.05        26.97306
341.50        26.94461
341.95        26.87018
342.40        26.84394
342.85        26.88881
343.30        26.96867
343.75        27.04252
344.20        27.04768
344.66        26.97427
345.11        26.85107
345.56          26.707
346.01        26.58088
346.46        26.48723
346.91        26.40878
347.36        26.35696
347.81         26.3475
348.26        26.37739
348.72        26.44892
349.17         26.5112
349.62        26.48035
350.07        26.34381
350.52           26.12
350.97        25.90009
351.42        25.83348
351.87        25.94235
352.32        26.17339
352.77        26.40569
353.22        26.45402
353.67        26.28254
354.13        25.97061
354.58        25.59972
355.03        25.35166
355.48        25.28005
355.93        25.33307
356.38        25.44718
356.83        25.52383
357.28        25.52759
357.73        25.48493
358.18        25.41836
358.63        25.36112
359.08        25.31704
359.53         25.2633
359.98        25.17508
360.43        25.02061
360.88        24.80059
361.33        24.53784
361.78        24.25307
362.23        24.01128
362.68        23.83831
363.13        23.65505
363.58        23.45445
364.03        23.57542
364.48         23.4371
364.93        23.48059
365.38        23.49799
365.83        23.44422
366.28        23.30123
366.73        23.09371
367.18        22.84431
367.63        22.57826
368.08        22.31769
368.53        22.06255
368.98        21.84279
369.43         21.7027
369.88        21.64829
370.33          21.669
370.78        21.71988
371.23          21.725
371.68         21.6578
372.13        21.52688
372.58        21.36503
373.03        21.23037
373.48        21.14238
373.93        21.09459
374.38        21.04626
374.83        20.93315
375.28        20.74874
375.72        20.50461
376.17        20.30249
376.62        20.25809
377.07        20.38049
377.52        20.61311
377.97        20.83898
378.42        20.87803
378.87        20.69454
379.32        20.35863
379.77        19.96067
380.22        19.63592
380.67        19.42753
381.11         19.2963
381.56        19.22774
382.01        19.19744
382.46        19.18718
382.91        19.20577
383.36        19.22151
383.81        19.17966
384.26        19.06997
384.71        18.90381
385.15        18.70624
385.60        18.55348
386.05        18.45726
386.50        18.40836
386.95        18.39392
387.40        18.39068
387.85        18.39161
388.29        18.39018
388.74        18.41554
389.19        18.46855
389.64        18.54102
390.09        18.61135
390.54        18.65843
390.98        18.64941
391.43        18.58689
391.88        18.48936
392.33        18.34974
392.78        18.18784
393.23        18.02529
393.67        17.78502
394.12        17.53901
394.57         17.5908
395.02         17.6326
395.47        17.61353
395.91        17.46064
396.36        17.40262
396.81        17.44666
397.26        17.46145
397.71        17.43301
398.15        17.40839
398.60        17.40436
399.05        17.33718
399.50        17.24549
399.95          17.296
400.39        17.43761
400.84        17.40596
401.29        17.20293
401.74        17.00442
402.18        16.86723
402.63        16.82319
403.08        16.85828
403.53          16.853
403.97        16.80104
404.42         16.8001
404.87        16.83775
405.32        16.85896
405.76        16.85516
406.21         16.7991
406.66         16.7195
407.11        16.74327
407.55         16.8327
408.00        16.79895
408.45        16.64601
408.90        16.44058
409.34        16.26792
409.79        16.33611
410.24        16.57768
410.68        16.66767
411.13        16.57627
411.58        16.49135
412.03        16.45739
412.47        16.46443
412.92        16.51471
413.37        16.61038
413.81        16.70015
414.26        16.72159
414.71        16.65854
415.15        16.53243
415.60        16.38219
416.05        16.28452
416.49        16.26555
416.94        16.30061
417.39        16.35631
417.83        16.38165
418.28        16.35583
418.73        16.28831
419.17        16.20734
419.62        16.15958
420.07        16.16304
420.51        16.21174
420.96        16.25964
421.41        16.25705
421.85        16.19196
422.30        16.00757
422.74        15.80591
423.19        15.93568
423.64        16.33635
424.08        16.55965
424.53        16.49528
424.98        16.43974
425.42         16.3959
425.87        16.07018
426.31        15.60994
426.76        15.57678
427.21        15.90935
427.65        16.00818
428.10        15.85817
428.54        15.84382
428.99        15.95549
429.44        16.12044
429.88        16.23175
430.33        15.93052
430.77        15.40266
431.22        15.32479
431.66        15.68026
432.11        15.95864
432.56        16.07087
433.00        16.16055
433.45         16.0874
433.89        15.76444
434.34        15.50199
434.78        14.77606
435.23        15.44958
435.67        16.00357
436.12        16.21762
436.57        16.27112
437.01         16.0663
437.46        15.94862
437.90        16.01405
438.35        16.16317
438.79        15.87053
439.24        15.75761
439.68        15.69174
440.13        15.63421
440.57        15.58497
441.02          15.679
441.46        15.86937
441.91        15.79919
442.35        15.56058
442.80        15.75874
443.24        16.26566
443.69        16.26041
444.13        15.78111
444.58          15.561
445.02        15.61321
445.47        15.56732
445.91        15.42536
446.36        15.38353
446.80         15.4411
447.24        15.53513
447.69        15.64399
448.13        15.77398
448.58        15.88935
449.02        15.91167
449.47         15.8605
449.91        15.84186
450.36        15.86905
450.80        15.87909
451.25         15.8725
451.69        15.87645
452.13        15.88621
452.58        15.88344
453.02        15.86512
453.47        15.83354
453.91        15.78883
454.36        15.75839
454.80        15.72536
455.24        15.64556
455.69        15.55721
456.13        15.48688
456.58        15.46842
457.02        15.60967
457.46        15.81804
457.91        15.80835
458.35        15.66275
458.79        15.60707
459.24        15.66992
459.68        15.70155
460.13        15.70433
460.57        15.65819
461.01        15.63435
461.46        15.64875
461.90        15.62612
462.34        15.61964
462.79        15.86847
463.23        15.93998
463.68        15.90707
464.12         15.8525
464.56        15.79825
465.01        15.79242
465.45        15.77948
465.89        15.67022
466.34        15.52301
466.78        15.41592
467.22        15.35064
467.67        15.65271
468.11        15.61822
468.55         15.6372
468.99        15.53318
469.44        15.51424
469.88        15.58429
470.32        15.61998
470.77        15.61752
471.21        15.62245
471.65        15.63769
472.10        15.65343
472.54        15.66206
472.98         15.6743
473.42        15.69494
473.87        15.67902
474.31           15.64
474.75        15.74515
475.20        15.93815
475.64        15.91909
476.08         15.7163
476.52        15.67305
476.97        15.81457
477.41        15.81326
477.85         15.7986
478.29        15.94936
478.74        15.85487
479.18         15.7136
479.62        15.93763
480.06        15.96298
480.50        15.96065
480.95        15.91543
481.39        15.82556
481.83        16.03265
482.27        16.05877
482.72        16.03034
483.16        16.27035
483.60         16.2937
484.04        16.21695
484.48        16.09663
484.93        16.13169
485.37         16.0422
485.81        16.43681
486.25        16.93826
486.69        16.38912
487.14        15.95245
487.58        16.80601
488.02        16.79176
488.46        16.69532
488.90        17.15884
489.34        16.53009
489.79        16.34514
490.23        16.74913
490.67        16.95524
491.11        17.07675
491.55        17.02373
491.99        16.88022
492.43         16.9025
492.88         17.1053
493.32        17.29614
493.76         17.4308
494.20        17.57798
494.64        17.73954
495.08        17.84097
495.52        17.89018
495.96        18.05761
496.41        18.33066
496.85        18.22325
497.29        17.87972
497.73        18.00188
498.17        18.51418
498.61        18.79359
499.05        18.74833
499.49        18.70157
499.93        18.70912
500.37        18.71077
500.82        18.72692
501.26        18.83544
501.70        19.05225
502.14        18.96551
502.58        19.22682
503.02         19.2947
503.46        19.27988
503.90        19.21977
504.34        19.13529
504.78        19.12189
505.22        19.18778
505.66        19.27592
506.10        19.36198
506.54        19.45892
506.98        19.55986
507.42        19.56728
507.86        19.64599
508.30        19.69191
508.74        19.75563
509.18        19.82411
509.62        19.88962
510.06        19.93902
510.50        19.96809
510.94        19.98309
511.38        19.99459
511.82        20.01908
512.26        20.05937
512.70        20.11048
513.14        20.16197
513.58        20.18836
514.02        20.18538
514.46        20.17821
514.90         20.1796
515.34        20.13831
515.78        20.17594
516.22        20.19189
516.66        20.22683
517.10        20.28685
517.54        20.36983
517.98        20.47181
518.42        20.56373
518.86        20.60242
519.30        20.57945
519.74        20.50542
520.18        20.41945
520.62        20.38397
521.06        20.41294
521.50         20.4903
521.93        20.57606
522.37        20.59565
522.81        20.53618
523.25        20.41957
523.69        20.29187
524.13        20.22455
524.57        20.23253
525.01        20.29134
525.45        20.35645
525.89        20.35805
526.32         20.2779
526.76        20.14929
527.20        20.00851
527.64        19.91545
528.08        19.88547
528.52        19.89399
528.96        19.92188
529.40        19.94033
529.83        19.93673
530.27        19.92407
530.71        19.89238
531.15        19.82518
531.59        19.72545
532.03        19.59843
532.46         19.4742
532.90        19.41452
533.34        19.42693
533.78        19.49453
534.22        19.57966
534.66        19.62331
535.09         19.6093
535.53        19.55807
535.97        19.49379
536.41        19.45807
536.85        19.46321
537.28        19.49802
537.72         19.5448
538.16        19.57288
538.60        19.57717
539.04        19.57397
539.47         19.5771
539.91        19.61866
540.35        19.69677
540.79        19.79989
541.22        19.90669
541.66        19.98531
542.10          20.027
542.54        20.04628
542.97        20.04922
543.41        20.05671
543.85        20.07518
544.29        20.10176
544.72        20.14624
545.16        20.23923
545.60        20.37541
546.04        20.54553
546.47        20.72456
546.91        20.86621
547.35         20.9576
547.79        21.02115
548.22        21.06865
548.66         21.1157
549.10        21.18439
549.53        21.34315
549.97        21.57034
550.41        21.75694
550.84         21.8877
551.28        22.02275
551.72        22.16174
552.15         22.2768
552.59        22.37434
553.03        22.45189
553.46        22.52228
553.90        22.62434
554.34        22.75896
554.77        22.92425
555.21        23.08747
555.65        23.19636
556.08        23.21792
556.52        23.22203
556.96        23.22927
557.39        23.30471
557.83        23.44009
558.27        23.52068
558.70        23.54145
559.14        23.58186
559.57        23.63614
560.01        23.68608
560.45        23.72647
560.88        23.73626
561.32        23.76545
561.75        23.86961
562.19        24.03522
562.63         24.2296
563.06        24.38366
563.50        24.32454
563.93        24.11526
564.37        24.06973
564.80        24.20466
565.24        24.37081
565.68        24.52624
566.11        24.65915
566.55         24.7609
566.98        24.85484
567.42        24.95292
567.85        25.00425
568.29        25.06062
568.72         25.1801
569.16        25.34688
569.60        25.56078
570.03         25.8396
570.47        25.85504
570.90        25.89773
571.34        26.50104
571.77        26.42513
572.21        26.41574
572.64        26.67426
573.08        26.63599
573.51        27.05249
573.95        27.14071
574.38        27.02629
574.82        27.22053
575.25        27.05322
575.69        27.00484
576.12        27.08023
576.56        27.44636
576.99        27.63461
577.42        27.40519
577.86        27.57631
578.29        27.52812
578.73        27.41084
579.16        27.31715
579.60         27.1671
580.03        27.04722
580.47        26.96969
580.90          26.867
581.33        27.06249
581.77        26.92558
582.20        26.62776
582.64        26.50062
583.07        26.37772
583.51        26.30776
583.94        26.30649
584.37        26.26052
584.81        26.13576
585.24        25.97848
585.68        25.92168
586.11        25.57048
586.54        25.68789
586.98        25.77359
587.41        25.93787
587.85        25.47692
588.28        25.48771
588.71        25.57791
589.15        25.67285
589.58        25.43373
590.01        25.70806
590.45        25.77376
590.88        25.27279
591.31        25.24224
591.75        25.47938
592.18        25.51183
592.61        25.34361
593.05        25.64052
593.48        25.66512
593.91            25.6
594.35        25.52546
594.78        25.76523
595.21        25.92118
595.65         25.9667
596.08        25.77821
596.51        26.11706
596.94        26.09992
597.38        26.37168
597.81        26.69778
598.24        26.72101
598.68        27.14045
599.11        27.54947
599.54        27.58484
599.97         27.8249
600.41        28.41767
600.84        28.75606
601.27        28.90266
601.70        29.21245
602.14        29.42881
602.57        29.74104
603.00        30.25322
603.43        30.56105
603.87        30.90091
604.30        31.23996
604.73         31.5933
605.16        32.32224
605.60        32.77096
606.03        33.40528
606.46        33.96108
606.89        34.04924
607.32        34.27339
607.76        34.82893
608.19        35.00693
608.62        35.39631
609.05        35.75817
609.48        36.13359
609.92        36.47761
610.35        36.87748
610.78        37.32013
611.21        37.26896
611.64        37.81481
612.07        38.04745
612.50        38.28219
612.94         38.5859
613.37        39.01031
613.80        39.13797
614.23        39.60794
614.66        39.94739
615.09        40.31217
615.52        40.60318
615.96        40.85234
616.39        40.98994
616.82        41.33624
617.25        41.66328
617.68        41.96105
618.11        42.12249
618.54        42.19557
618.97         42.4544
619.40        42.83097
619.84        43.27966
620.27         43.3114
620.70        43.38057
621.13        43.31762
621.56        43.79026
621.99        43.78648
622.42        43.80375
622.85        43.88577
623.28        44.35437
623.71        44.39814
624.14        43.82866
624.57         43.9648
625.00        44.11699
625.43        43.71998
625.86        43.73474
626.29        43.86686
626.72        43.62911
627.15        43.57466
627.58        43.40072
628.01        43.35299
628.44        42.91906
628.87        42.72031
629.30        42.77798
629.73        42.14442
630.16         41.7049
630.59        41.56433
631.02        41.25721
631.45        40.88474
631.88        40.50661
632.31        40.13312
632.74        39.69939
633.17        39.26336
633.60        38.84214
634.03        38.45318
634.46        38.08505
634.89        37.70964
635.32        37.27847
635.75        36.78704
636.18        36.25665
636.61        35.76053
637.04        35.28523
637.47        34.87513
637.89        34.60866
638.32         34.4231
638.75        34.16178
639.18        33.80334
639.61        33.42526
640.04         33.0571
640.47        32.72705
640.90        32.45202
641.33        32.21095
641.76        31.99124
642.18        31.85359
642.61        31.66653
643.04         31.5323
643.47        31.42475
643.90        31.35957
644.33        31.33727
644.76        31.35698
645.18        31.39455
645.61        31.40631
646.04        31.38871
646.47        31.35468
646.90        31.35721
647.33        31.47808
647.75        31.73694
648.18         32.1212
648.61         32.5609
649.04        32.94007
649.47        33.24226
649.89         33.4911
650.32        33.75578
650.75        34.21232
651.18        34.84653
651.61        35.43544
652.03        35.90272
652.46        36.39621
652.89        36.99307
653.32        37.35509
653.74        37.67882
654.17         38.8369
654.60        39.02232
655.03        39.40519
655.46        40.03894
655.88        40.98021
656.31        42.05721
656.74         43.1696
657.16         43.2334
657.59        43.57177
658.02          43.619
658.45        44.02372
658.87        44.64034
659.30        45.33714
659.73        45.14441
660.15        45.47825
660.58        45.75599
661.01        46.37746
661.44        47.12032
661.86         47.5217
662.29        47.60473
662.72         47.7061
663.14        47.94746
663.57        48.38287
664.00        48.93988
664.42        49.29848
664.85         49.4452
665.27        49.61509
665.70        49.83367
666.13        50.02008
666.55        50.18763
666.98        50.36317
667.41        50.56706
667.83        50.81725
668.26        51.10571
668.69        51.43444
669.11        51.75177
669.54        51.97752
669.96        52.10486
670.39        52.11976
670.82        52.10566
671.24        52.26478
671.67        52.58737
672.09        52.87022
672.52        53.08245
672.94         53.2549
673.37        53.40265
673.80        53.55098
674.22        53.71234
674.65        53.82838
675.07        53.91837
675.50        54.01207
675.92        54.13321
676.35        54.28614
676.77        54.47797
677.20        54.71013
677.62        54.95897
678.05        55.16164
678.47         55.3008
678.90        55.42109
679.32        55.54898
679.75        55.68101
680.17        55.80887
680.60        56.15168
681.02        56.27816
681.45        56.44394
681.87        56.52291
682.30        56.57796
682.72        56.63066
683.15        56.63258
683.57        56.64807
684.00        56.81955
684.42        57.11987
684.85        57.35893
685.27        57.51124
685.70        57.68746
686.12         57.8689
686.54        58.00684
686.97        58.09712
687.39        58.14399
687.82        58.18592
688.24        58.25266
688.66        58.58467
689.09        58.68034
689.51        58.65671
689.94        58.74925
690.36        58.97387
690.78        59.17386
691.21        59.32378
691.63        59.44657
692.06        59.54102
692.48        59.60903
692.90        59.66145
693.33        59.70582
693.75        59.75125
694.17        59.79821
694.60        59.87085
695.02        60.01198
695.44        60.21332
695.87        60.51143
696.29        60.83623
696.71        60.97139
697.14        60.93164
697.56        61.00048
697.98        61.18775
698.41        61.35095
698.83        61.48449
699.25        61.70858
699.68        61.96985
700.10        62.19291
700.52        62.35318
700.94        62.43526
701.37        62.44152
701.79        62.63605
702.21         62.6597
702.64        62.79362
703.06        62.90984
703.48        63.00533
703.90        63.08463
704.33        63.15838
704.75        63.25122
705.17        63.37016
705.59        63.51178
706.01        63.63871
706.44        63.76013
706.86        63.97554
707.28        64.09322
707.70        64.34855
708.12         64.6201
708.55        64.56363
708.97        64.27077
709.39        64.30486
709.81        64.66315
710.23        64.85239
710.66        64.84789
711.08        64.97244
711.50        65.18835
711.92        65.30862
712.34         65.3251
712.76         65.2877
713.19        65.24744
713.61        65.33313
714.03        65.54736
714.45        65.84921
714.87        66.16421
715.29        66.37335
715.71        66.45515
716.13        66.46777
716.56        66.43911
716.98        66.46486
717.40        66.55372
717.82         66.7009
718.24        66.88407
718.66        67.05238
719.08        67.18945
719.50        67.31435
719.92         67.4224
720.34        67.50009
720.76        67.54706
721.19         67.5555
721.61        67.55236
722.03        67.55375
722.45         67.5686
722.87        67.59835
723.29        67.64005
723.71        67.68423
724.13        67.73298
724.55        67.79498
724.97        67.88011
725.39        68.00227
725.81        68.15904
726.23        68.33414
726.65        68.51739
727.07        68.69775
727.49        68.86533
727.91        69.01849
728.33        69.13518
728.75        69.18051
729.17        69.15386
729.59        69.07403
730.01        68.98019
730.43        68.93467
730.85        68.95692
731.27        69.03073
731.69        69.14787
732.10        69.29215
732.52        69.43207
732.94        69.61768
733.36        69.83035
733.78         69.8961
734.20        69.77906
734.62        70.09843
735.04        69.75256
735.46        69.91221
735.88        70.05469
736.30        70.09218
736.72         70.0001
737.13        70.04787
737.55         70.2015
737.97        70.35612
738.39          70.459
738.81        70.28393
739.23        69.95264
739.65        70.10449
740.06        70.61136
740.48        70.81509
740.90         70.6561
741.32        70.58248
741.74        70.56358
742.16         70.6398
742.57        70.80383
742.99        71.04996
743.41        71.30347
743.83        71.43201
744.25        71.41105
744.67         71.2716
745.08        71.11366
745.50        71.06633
745.92         71.1771
746.34        71.39629
746.75        71.63736
747.17        71.75945
747.59        71.72911
748.01        71.58992
748.42        71.41524
748.84           71.32
749.26         71.3313
749.68        71.40998
750.09        71.51627
750.51        71.57281
750.93        71.58848
751.35        71.71329
751.76          71.925
752.18        72.02247
752.60        71.97475
753.01        71.96297
753.43        72.02165
753.85         71.9627
754.27        71.74741
754.68        72.36394
755.10        72.09228
755.52        72.30293
755.93        72.47678
756.35        72.65501
756.77        72.79472
757.18        72.88891
757.60         72.9669
758.02        72.93532
758.43        72.82683
758.85         72.9397
759.26        73.07318
759.68        72.92924
760.10        72.68361
760.51        72.16808
760.93        72.73221
761.34        73.22979
761.76        73.40133
762.18        73.33005
762.59        73.10339
763.01        72.57059
763.42        73.43089
763.84         73.5722
764.26          73.492
764.67        73.45528
765.09        73.53092
765.50        73.74894
765.92         74.0823
766.33        73.80209
766.75        73.82132
767.16         73.5666
767.58        73.41644
768.00          73.486
768.41        73.80659
768.83        74.26196
769.24        74.79419
769.66        74.72813
770.07        74.21296
770.49        74.00565
770.90        74.18884
771.32        74.33894
771.73         74.4099
772.15        74.47855
772.56        74.54251
772.97        74.62551
773.39        74.71015
773.80        74.75117
774.22        74.75617
774.63        74.94006
775.05        75.21719
775.46        75.35396
775.88        75.29404
776.29        75.21034
776.70        75.14465
777.12        75.12761
777.53        75.19418
777.95        75.29399
778.36        75.43266
778.77        75.58006
779.19        75.72952
779.60        75.96571
780.02        76.17852
780.43        76.17993
780.84        76.04685
781.26        75.77097
781.67        75.53645
782.09        76.08929
782.50        77.13481
782.91        76.98419
783.33        76.36743
783.74        76.08466
784.15        76.37666
784.57        76.52354
784.98        76.48901
785.39        76.28905
785.81        76.02484
786.22        76.31408
786.63        76.99359
787.04        77.09644
787.46        76.70119
787.87         76.7074
788.28         77.0889
788.70         77.1964
789.11        77.01463
789.52        76.85671
789.93        76.78275
790.35        76.88213
790.76        77.12961
791.17        77.13393
791.58        76.97305
792.00        77.14188
792.41        77.60015
792.82        77.95104
793.23        78.10384
793.65        77.92575
794.06        77.58684
794.47        77.77608
794.88        78.37612
795.29        78.41035
795.71        78.18604
796.12        77.93348
796.53        77.84151
796.94        77.78467
797.35        77.81288
797.76        78.05402
798.18        78.41846
798.59         78.6514
799.00         78.7151
799.41        78.65515
799.82        78.58443
800.23        78.49738
800.64        78.44498
801.06        78.39041
801.47         78.3575
801.88        78.30381
802.29        78.21805
802.70        78.10931
803.11        78.02399
803.52        77.99419
803.93        78.03472
804.34        78.24948
804.75         78.5488
805.17        78.53228
805.58        78.43618
805.99        78.50329
806.40        78.78407
806.81        79.34862
807.22        79.89867
807.63        79.53976
808.04        78.50443
808.45        78.13052
808.86        78.56812
809.27        79.06752
809.68        79.41587
810.09        79.57015
810.50        79.46152
810.91        79.15852
811.32        78.82472
811.73        78.67429
812.14        78.77785
812.55        79.10806
812.96        79.53182
813.37        79.76431
813.78         79.7458
814.19        79.62823
814.60        79.49505
815.01        79.41056
815.42        79.41312
815.83        79.49085
816.24        79.62157
816.65        79.75359
817.05        79.86339
817.46        79.93047
817.87        79.97398
818.28        79.96155
818.69        79.90099
819.10        79.80948
819.51        79.71297
819.92         79.6879
820.33        79.75964
820.74        79.82491
821.14        79.90152
821.55          80.227
821.96        80.69522
822.37        80.89673
822.78        80.79486
823.19        80.70483
823.60        80.64378
824.00         80.4231
824.41        80.06236
824.82        79.81641
825.23        79.73125
825.64        79.75413
826.04        79.88397
826.45        80.06034
826.86        80.26563
827.27        80.51754
827.68        80.76688
828.08        80.96045
828.49        81.01124
828.90        80.95969
829.31        80.87578
829.72        80.89208
830.12        81.06065
830.53        81.29042
830.94        81.51366
831.35        81.57601
831.75        81.46286
832.16        81.17716
832.57        80.82356
832.97        80.54125
833.38        80.38396
833.79        80.33607
834.20        80.37204
834.60        80.44587
835.01        80.54679
835.42        80.66445
835.82        80.83456
836.23        81.02167
836.64        81.23769
837.04        81.50402
837.45        81.68049
837.86        81.65672
838.26        81.43403
838.67        81.02735
839.08        80.63535
839.48        80.56577
839.89        80.87395
840.29         81.4622
840.70        82.09863
841.11        82.41183
841.51        82.32963
841.92        81.92912
842.33        81.40282
842.73        81.07066
843.14        80.98597
843.54         81.0866
843.95        81.28281
844.35        81.45499
844.76          81.543
845.17        81.59793
845.57         81.6435
845.98        81.66024
846.38        81.68176
846.79        81.67554
847.19        81.66048
847.60        81.62293
848.00        81.58836
848.41         81.5147
848.81        81.47451
849.22        81.49918
849.62        81.62788
850.03        81.83134
850.43        82.02151
850.84        81.96568
851.24        81.68089
851.65        81.15484
852.05        80.66619
852.46        80.59039
852.86        81.00347
853.27        81.76585
853.67        82.49286
854.07        82.87755
854.48        82.81353
854.88        82.44739
855.29        81.84687
855.69        81.39194
856.10        81.11945
856.50        81.02292
856.90        80.99685
857.31        80.90829
857.71        80.76299
858.12         80.5624
858.52        80.38567
858.92        80.21065
859.33        80.02209
859.73        79.85358
860.13        79.67137
860.54        79.45979
860.94        79.26679
861.34        79.07184
861.75        78.88892
862.15        78.79375
862.55        78.77131
862.96        78.82278
863.36        78.89392
863.76         78.8777
864.17        78.74472
864.57         78.5291
864.97        78.33788
865.38        78.32489
865.78         78.5667
866.18        78.99653
866.58        79.43276
866.99        79.56715
867.39        79.35821
867.79        78.86945
868.19        78.32527
868.60        78.02078
869.00        78.01289
869.40        78.24387
869.80        78.55737
870.21         78.6718
870.61        78.57773
871.01        78.31192
871.41        77.99977
871.81        77.80755
872.22        77.74569
872.62        77.79006
873.02        77.89613
873.42        77.97649
873.82        78.00781
874.22        78.04721
874.63        78.13052
875.03         78.2685
875.43        78.47604
875.83        78.70696
876.23        78.98934
876.63        79.37971
877.03        79.84945
877.44        80.35222
877.84        80.73019
878.24        80.68983
878.64        80.20505
879.04         79.4169
879.44        78.57365
879.84        78.01251
880.24        77.81347
880.64        77.88946
881.04        78.14562
881.44        78.40826
881.84        78.59527
882.24        78.73572
882.65        78.80864
883.05        78.88457
883.45        78.93524
883.85        78.95476
884.25        78.90474
884.65        78.74609
885.05        78.48589
885.45        78.12784
885.85        77.82307
886.25        77.82285
886.65        78.16467
887.05        78.77654
887.45        79.37485
887.85        79.52112
888.25        79.13687
888.65        78.35162
889.04        77.48478
889.44        77.11437
889.84        77.36549
890.24        78.05585
890.64        78.87132
891.04        79.31529
891.44        79.25318
891.84        78.84809
892.24        78.30846
892.64        77.95252
893.04        77.88641
893.44        78.02071
893.83        78.26818
894.23        78.43305
894.63        78.48246
895.03        78.45669
895.43        78.46014
895.83        78.64475
896.23        79.01987
896.63        79.51656
897.02        79.92642
897.42        79.99924
897.82        79.68857
898.22        79.09552
898.62        78.46339
899.01        78.20989
899.41        78.42149
899.81        78.98815
900.21        79.68784
900.61        80.14626
901.00        80.23719
901.40        80.08223
901.80        79.80776
902.20        79.63033
902.59        79.62239
902.99        79.68447
903.39        79.76074
903.79        79.75823
904.18        79.65228
904.58        79.52184
904.98        79.38901
905.38        79.27876
905.77        79.19386
906.17        79.11673
906.57        79.08566
906.96        79.19179
907.36        79.41747
907.76        79.77363
908.15        80.13336
908.55        80.20471
908.95        79.96799
909.34         79.4624
909.74        78.97395
910.14        78.90347
910.53        79.32185
910.93        80.07478
911.33        80.83941
911.72        81.06393
912.12        80.62553
912.52        79.77902
912.91        78.81268
913.31        78.15549
913.70        77.91106
914.10        77.93234
914.49        78.20754
914.89        78.63737
915.29         79.1563
915.68         79.7681
916.08        80.32249
916.47        80.57838
916.87         80.5098
917.26        80.14926
917.66        79.65969
918.05        79.28691
918.45        79.09932
918.84        79.06187
919.24        79.10082
919.64        79.16564
920.03        79.24951
920.42         79.3914
920.82        79.55464
921.21        79.66115
921.61        79.67924
922.00        79.60242
922.40        79.54844
922.79        79.82171
923.19        80.40987
923.58         81.2505
923.98        81.97499
924.37        82.08196
924.77        81.48399
925.16        80.33112
925.55        79.06302
925.95         78.4435
926.34         78.6869
926.74        79.54642
927.13        80.63583
927.52        81.22937
927.92        81.15828
928.31        80.63546
928.70        79.95747
929.10        79.55862
929.49         79.5669
929.89        79.80281
930.28        80.17136
930.67        80.39288
931.07        80.36668
931.46        80.22511
931.85        80.03902
932.24        79.94019
932.64        79.95952
933.03        80.02892
933.42        80.11065
933.82        80.15092
934.21        80.13764
934.60        80.11417
934.99        80.06413
935.39        79.92743
935.78        79.74655
936.17         79.5172
936.56        79.35213
936.96        79.43507
937.35        79.82518
937.74        80.40168
938.13        80.97222
938.53        81.26112
938.92        81.21434
939.31        80.91299
939.70        80.47043
940.09        80.09964
940.49        79.86487
940.88        79.73864
941.27        79.70216
941.66        79.72649
942.05        79.79684
942.44        79.96167
942.84        80.16335
943.23        80.23841
943.62        80.18159
944.01         79.9992
944.40        79.84513
944.79        80.00172
945.18        80.50256
945.57        81.22348
945.97        81.86931
946.36        82.07985
946.75        81.74442
947.14        80.96959
947.53        79.98615
947.92        79.20676
948.31        78.79386
948.70        78.68348
949.09        78.70665
949.48        78.57671
949.87         78.2402
950.26        77.80598
950.65        77.49298
951.04        77.63293
951.43        78.27759
951.82        79.28575
952.21        80.35652
952.60        80.98902
952.99        81.01385
953.38        80.54848
953.77        79.83715
954.16        79.26975
954.55        78.95353
954.94         78.7873
955.33        78.62225
955.72        78.20466
956.11        77.49736
956.50        76.64955
956.89         75.8523
957.28        75.40298
957.66        75.43323
958.05        75.81474
958.44        76.46588
958.83        77.25259
959.22        78.05739
959.61        78.83485
960.00        79.47998
960.39        79.84527
960.78         79.9007
961.16        79.72993
961.55        79.27952
961.94        78.62617
962.33        77.86794
962.72        77.05537
963.11        76.43304
963.49        76.33181
963.88        76.79291
964.27        77.73742
964.66        78.84218
965.04        79.52294
965.43        79.50399
965.82        78.97208
966.21        78.24512
966.60        77.84218
966.98        77.90185
967.37        78.22466
967.76        78.60976
968.15        78.65981
968.53        78.27882
968.92        77.65165
969.31        76.95998
969.69        76.42459
970.08        76.12265
970.47        75.99031
970.86        76.12904
971.24        76.72237
971.63        77.66811
972.02        78.87539
972.40        80.08176
972.79         80.8144
973.17        81.08035
973.56        80.90941
973.95        80.54775
974.33        80.41129
974.72        80.60632
975.11        81.00909
975.49        81.39574
975.88        81.41113
976.26        80.98797
976.65        80.24603
977.04        79.38039
977.42        78.69301
977.81        78.23885
978.19        77.90801
978.58        77.80278
978.96        78.03857
979.35        78.55384
979.74        79.38296
980.12        80.19927
980.51         80.2282
980.89        79.46363
981.28        77.99884
981.66        76.48915
982.05        76.16634
982.43        77.30971
982.82        79.42879
983.20        81.79111
983.59         83.1156
983.97        83.15394
984.35        82.22325
984.74        80.65178
985.12        79.07206
985.51        77.81972
985.89        76.80712
986.28        76.13783
986.66        76.00423
987.04        76.36607
987.43        77.19082
987.81        78.30581
988.20        79.24176
988.58        79.86488
988.96         80.2029
989.35        80.26867
989.73        80.25216
990.12         80.1777
990.50        79.97891
990.88        79.70715
991.27        79.52856
991.65        79.51318
992.03        79.65839
992.42        79.75987
992.80        79.73598
993.18        79.45295
993.56        78.93098
993.95        78.27538
994.33         77.6953
994.71        77.43673
995.10        77.42966
995.48          77.571
995.86        77.63482
996.24        77.57542
996.63        77.37261
997.01        77.27335
997.39        77.61945
997.77        78.45943
998.15        79.62514
998.54        80.60954
998.92        80.76781
999.30        80.00555
999.68        78.49632
1000.06        76.79472
1000.45        75.91201
1000.83        76.24892
1001.21        77.45776
1001.59        78.94137
1001.97        79.80973
1002.35        79.83592
1002.73         79.2634
1003.12        78.38268
1003.50        77.72378
1003.88        77.55906
1004.26        77.62901
1004.64        77.79366
1005.02        77.88977
1005.40        77.87086
1005.78        77.89097
1006.16        77.80669
1006.54         77.3446
1006.92        76.50665
1007.30        75.33742
1007.69        74.38567
1008.07        74.44794
1008.45         75.6898
1008.83        77.78337
1009.21        79.91504
1009.59        80.92936
1009.97        80.51993
1010.35        78.83913
1010.73        76.38725
1011.11        74.60616
1011.49        74.28562
1011.86        75.19341
1012.24        76.47697
1012.62        77.13068
1013.00        76.94677
1013.38        76.33893
1013.76        75.74171
1014.14        75.82092
1014.52        76.80013
1014.90        78.42264
1015.28        80.41582
1015.66        82.25388
1016.04        83.55451
1016.41        84.38308
1016.79        84.58707
1017.17        84.36779
1017.55        83.83539
1017.93         83.0881
1018.31        82.07727
1018.69        80.66761
1019.06        78.97544
1019.44        77.08608
1019.82        75.68822
1020.20        76.11397
1020.58        78.48954
1020.95        81.92834
1021.33        85.35316
1021.71        87.42431
1022.09        87.91643
1022.46        87.29603
1022.84        85.55596
1023.22        82.58866
1023.60        78.43214
1023.97        72.53603
1024.35        66.39884
1024.73        63.28208
