SpectraSmart Spectrum 2.9.0.0
--------- Device Information -----------
Spectrum Name :  反射率_0
Saving Time :  2024/04/27 23:04:32
Spectro-Module Model Name : SE2030-DUVN
Spectro-Module Serial Number : OS361AC55029948
Wavelength Start : 200
Wavelength End : 1025
Wavelength Unit : Wavelength(nm)
Spectrum Unit : Reflectance(%)
-----------Spectrum Setting ------------
Integration Time : 20ms
Average : 10
Boxcar : 0
Background removal :  enabled
linearity correction :  enabled
SC :  disabled
Intensity correction :  disabled
DWT denoise :  enabled
savitzky-golay :  disabled
FFT :  disabled
Running average :  disabled
Kalman :  disabled
High pass :  disabled
---------------BEGIN--------------------
Wavelength(nm)             Reflectance(%)
200.29               0
200.75       -117.9973
201.21       -60.77907
201.67       -10.01262
202.13        11.09952
202.58        12.15378
203.04         3.92575
203.50       -4.125821
203.96      -0.8775346
204.42        12.97571
204.88        30.90074
205.34        45.79818
205.80        52.24965
206.26         49.8539
206.72         37.2458
207.18        16.45348
207.64        9.210041
208.10        26.28571
208.55        51.24072
209.01         65.8177
209.47         64.5126
209.93        45.27223
210.39       -12.42182
210.85       -195.7923
211.31       -440.9615
211.77       -191.1722
212.23       -14.32334
212.69        49.72643
213.14        68.52287
213.60        66.45904
214.06        49.13482
214.52        13.62743
214.98       -15.49228
215.44       -8.156575
215.90        13.36594
216.36        31.68241
216.81        41.49825
217.27        44.93517
217.73        45.99998
218.19        45.31896
218.65        42.73024
219.11        38.63496
219.57         32.8432
220.02        26.01394
220.48        22.27808
220.94        22.83651
221.40        26.01786
221.86         31.5126
222.32        38.93398
222.77        47.16275
223.23        55.45956
223.69        61.29374
224.15        61.78373
224.61        57.23171
225.06        48.55214
225.52        39.38606
225.98        36.60718
226.44        40.75592
226.90        47.70088
227.36        53.79525
227.81         56.3523
228.27        55.66927
228.73         52.9173
229.19        48.93166
229.65        45.46254
230.10        43.40313
230.56        42.49799
231.02        42.41991
231.48         42.8588
231.93        43.49128
232.39        44.42233
232.85        45.52943
233.31        46.61505
233.77        47.58014
234.22        48.53308
234.68        49.01683
235.14        48.52996
235.60        47.04267
236.05         44.4801
236.51        41.86246
236.97        41.45778
237.43        44.00424
237.88         48.9494
238.34        53.96374
238.80        56.61876
239.26        56.23277
239.71        52.36617
240.17        44.64214
240.63        38.23622
241.08         39.2992
241.54        44.92339
242.00        50.03648
242.46        51.75353
242.91        50.04211
243.37        44.14897
243.83        30.93795
244.28        13.17679
244.74        10.44276
245.20        23.67006
245.66        35.51555
246.11        37.73971
246.57        31.20558
247.03        16.43507
247.48       -7.602746
247.94       -26.72288
248.40       -23.82956
248.85       -7.126138
249.31        13.73588
249.77        31.41754
250.22        44.04968
250.68        53.23994
251.14        59.08845
251.59        61.77343
252.05         62.0323
252.51        59.14448
252.96        53.28609
253.42        49.12181
253.88        49.17998
254.33        52.19949
254.79        54.25837
255.25        52.00772
255.70        46.70678
256.16        40.91706
256.62        37.37671
257.07        38.86524
257.53        44.10602
257.99        50.24248
258.44        55.03175
258.90        57.00699
259.35        56.35096
259.81        54.54201
260.27        52.33655
260.72        50.59081
261.18        49.72033
261.63        49.11678
262.09        48.69564
262.55        48.04994
263.00        47.08781
263.46         46.1076
263.91        45.16295
264.37        44.60769
264.83        44.38311
265.28        44.31585
265.74        44.27747
266.19        43.93976
266.65        43.33537
267.11        42.54314
267.56        41.67327
268.02        40.99184
268.47         40.5211
268.93        40.18498
269.38        39.92888
269.84        39.69656
270.30        39.43768
270.75        39.16492
271.21        38.79662
271.66        38.16089
272.12          37.275
272.57         36.1684
273.03        35.04538
273.48        34.14597
273.94        33.57558
274.39        33.21758
274.85        32.97768
275.31        32.63739
275.76        32.12703
276.22        31.54241
276.67        30.91067
277.13        30.36182
277.58        29.87299
278.04         29.4495
278.49        29.00024
278.95        28.50537
279.40        27.92322
279.86        27.34839
280.31        26.80658
280.77        26.44239
281.22        26.23265
281.68        26.16109
282.13        26.14311
282.59        26.10947
283.04        26.01646
283.50        25.89226
283.95        25.73404
284.41        25.57814
284.86         25.4156
285.32        25.24989
285.77         25.0575
286.22        24.84149
286.68        24.61866
287.13        24.36771
287.59        24.12675
288.04        23.87743
288.50        23.65269
288.95        23.43589
289.41        23.25132
289.86        23.08753
290.32        22.96715
290.77        22.89344
291.22         22.8705
291.68        22.89938
292.13        22.96734
292.59         23.0686
293.04        23.22149
293.50        23.47995
293.95        23.83035
294.40        24.26519
294.86        24.68922
295.31        24.94832
295.77        25.03102
296.22        24.97312
296.68        24.93301
297.13         25.1417
297.58        25.64616
298.04        26.36047
298.49        27.11206
298.95        27.65039
299.40        27.91882
299.85        27.99919
300.31        28.03719
300.76        28.22658
301.21        28.62358
301.67        29.15333
302.12        29.69015
302.58        30.08779
303.03        30.29523
303.48        30.37321
303.94        30.41942
304.39        30.53228
304.84        30.74968
305.30        31.03872
305.75        31.30319
306.20        31.43563
306.66        31.42863
307.11        31.29669
307.57        31.15252
308.02        31.10854
308.47        31.19759
308.93         31.3695
309.38        31.51244
309.83        31.47725
310.29        31.25014
310.74        30.88634
311.19        30.47871
311.65        30.17144
312.10        29.99258
312.55        29.89621
313.00        29.86905
313.46        29.89187
313.91        29.93389
314.36        30.00212
314.82        30.01383
315.27        29.82993
315.72        29.43868
316.18        28.89443
316.63        28.32078
317.08        27.93795
317.53         27.7996
317.99        27.84059
318.44        27.96802
318.89        28.01019
319.35        27.91156
319.80           27.72
320.25        27.47988
320.70        27.26828
321.16         27.1015
321.61        26.95216
322.06        26.79066
322.51        26.58001
322.97        26.31176
323.42        26.02293
323.87         25.7306
324.32        25.46341
324.78        25.23151
325.23        25.02509
325.68         24.8557
326.13        24.74709
326.59        24.68199
327.04        24.66907
327.49        24.63596
327.94        24.47211
328.39        24.15502
328.85          23.711
329.30        23.23333
329.75        22.88512
330.20        22.72217
330.66        22.69882
331.11        22.75418
331.56        22.73698
332.01        22.60394
332.46        22.39697
332.92        22.17362
333.37        22.05417
333.82        22.06194
334.27        22.14502
334.72        22.24757
335.17        22.28572
335.63        22.22607
336.08         22.1169
336.53         21.9578
336.98        21.75675
337.43        21.53565
337.88        21.29682
338.34        21.10249
338.79         21.0558
339.24        21.17155
339.69         21.4149
340.14         21.6947
340.59        21.85835
341.05        21.86131
341.50        21.74956
341.95        21.56752
342.40        21.40113
342.85         21.2805
343.30        21.17345
343.75        21.08594
344.20        21.02909
344.66        21.00263
345.11        21.01294
345.56        21.01644
346.01        20.93416
346.46        20.75674
346.91        20.50585
347.36        20.26381
347.81        20.15689
348.26        20.21024
348.72         20.3903
349.17        20.59959
349.62        20.68046
350.07        20.59383
350.52        20.37509
350.97        20.14082
351.42        20.07825
351.87        20.22056
352.32         20.5055
352.77        20.77643
353.22        20.79811
353.67        20.52865
354.13        20.06042
354.58         19.5459
355.03        19.27628
355.48        19.32339
355.93        19.60553
356.38        19.95072
356.83        20.09059
357.28        19.96256
357.73        19.65032
358.18        19.30838
358.63        19.17552
359.08        19.29593
359.53        19.57497
359.98        19.86249
360.43        19.93015
360.88        19.72709
361.33        19.33774
361.78        18.86943
362.23         18.5293
362.68        18.38346
363.13        18.29783
363.58        18.21345
364.03        18.41413
364.48         18.2609
364.93        18.26451
365.38        18.23056
365.83        18.14711
366.28        18.00926
366.73        17.82507
367.18        17.62586
367.63        17.45337
368.08        17.32403
368.53        17.23023
368.98         17.1623
369.43        17.09996
369.88        17.03573
370.33        16.97644
370.78        16.91941
371.23        16.86051
371.68        16.79525
372.13        16.71467
372.58        16.62373
373.03         16.5335
373.48        16.44758
373.93        16.37213
374.38        16.28646
374.83        16.15542
375.28        15.97994
375.72         15.7645
376.17        15.58326
376.62        15.51363
377.07        15.56024
377.52        15.67985
377.97         15.8023
378.42        15.81794
378.87        15.70252
379.32        15.50429
379.77        15.25185
380.22        14.98761
380.67        14.73592
381.11        14.48212
381.56        14.27854
382.01        14.21007
382.46        14.28281
382.91        14.47116
383.36        14.66688
383.81        14.69784
384.26        14.53099
384.71        14.21856
385.15        13.86421
385.60        13.66355
386.05        13.65552
386.50        13.78833
386.95        13.98001
387.40        14.10087
387.85        14.11786
388.29        14.06437
388.74        14.01486
389.19        14.04226
389.64        14.15376
390.09        14.30306
390.54         14.4367
390.98        14.47302
391.43        14.39986
391.88        14.25777
392.33        14.06786
392.78        13.88056
393.23        13.72232
393.67        13.52121
394.12        13.32637
394.57        13.35863
395.02        13.37906
395.47        13.35233
395.91        13.22086
396.36        13.15159
396.81        13.15115
397.26        13.12485
397.71        13.06668
398.15        13.01875
398.60        12.99578
399.05        12.93247
399.50        12.86257
399.95         12.9177
400.39        13.05919
400.84        13.08652
401.29        12.98359
401.74         12.8542
402.18        12.73369
402.63        12.65293
403.08        12.62113
403.53        12.58288
403.97        12.54392
404.42        12.56926
404.87         12.6297
405.32        12.65265
405.76        12.62417
406.21        12.53085
406.66        12.41837
407.11        12.41768
407.55        12.50748
408.00        12.53795
408.45        12.47495
408.90        12.30727
409.34        12.08986
409.79        12.00131
410.24        12.03742
410.68        12.03383
411.13        11.98687
411.58        12.01065
412.03          12.098
412.47        12.17146
412.92        12.20948
413.37        12.23606
413.81        12.24393
414.26        12.23279
414.71        12.20109
415.15        12.14535
415.60        12.07756
416.05        12.02498
416.49        11.99777
416.94        11.99172
417.39        11.98973
417.83        11.96312
418.28        11.90271
418.73        11.81395
419.17         11.7278
419.62         11.6964
420.07        11.73276
420.51        11.82414
420.96        11.91959
421.41         11.9557
421.85        11.91656
422.30         11.7697
422.74          11.596
423.19        11.66047
423.64        11.92221
424.08         12.0513
424.53        11.97492
424.98        11.92534
425.42        11.90447
425.87        11.69425
426.31        11.38307
426.76        11.35622
427.21        11.56016
427.65        11.56928
428.10        11.38513
428.54        11.30241
428.99        11.32148
429.44        11.38901
429.88        11.43645
430.33        11.22562
430.77        10.88293
431.22        10.87499
431.66        11.18323
432.11        11.42636
432.56        11.53268
433.00        11.60899
433.45        11.54434
433.89        11.26161
434.34        10.99119
434.78        10.37315
435.23        10.74885
435.67        11.09553
436.12        11.27107
436.57        11.38811
437.01         11.3367
437.46        11.28915
437.90        11.30024
438.35        11.31836
438.79          11.014
439.24         10.8857
439.68        10.85491
440.13        10.87581
440.57        10.91884
441.02        11.03471
441.46        11.17791
441.91        11.09796
442.35        10.88551
442.80        11.01976
443.24        11.40341
443.69        11.39158
444.13         11.0069
444.58        10.81155
445.02        10.81321
445.47        10.72997
445.91        10.57481
446.36        10.51727
446.80         10.5603
447.24        10.65204
447.69        10.76525
448.13        10.88916
448.58        10.99176
449.02        11.02288
449.47        10.99796
449.91         10.9963
450.36        11.02663
450.80        11.04092
451.25         11.0348
451.69         11.0229
452.13        11.00026
452.58        10.95682
453.02        10.89339
453.47        10.81515
453.91        10.72609
454.36        10.64993
454.80         10.5768
455.24         10.4796
455.69         10.3871
456.13        10.31586
456.58        10.29645
457.02        10.41165
457.46        10.59774
457.91        10.65399
458.35        10.61332
458.79         10.5963
459.24        10.61804
459.68        10.58721
460.13         10.5238
460.57        10.44129
461.01        10.39739
461.46        10.39628
461.90        10.38371
462.34         10.3862
462.79        10.55859
463.23        10.61782
463.68        10.61237
464.12        10.59973
464.56        10.59157
465.01        10.61792
465.45        10.63335
465.89        10.57105
466.34        10.46922
466.78         10.3803
467.22        10.31416
467.67        10.50277
468.11         10.4775
468.55        10.49899
468.99        10.43544
469.44        10.40507
469.88        10.40686
470.32        10.36527
470.77        10.30289
471.21        10.28821
471.65        10.33219
472.10        10.41733
472.54        10.50766
472.98         10.5617
473.42        10.57208
473.87        10.52172
474.31        10.45229
474.75        10.52777
475.20        10.71967
475.64        10.80914
476.08        10.77153
476.52        10.78092
476.97        10.84417
477.41         10.7534
477.85        10.63993
478.29        10.69224
478.74        10.65183
479.18         10.6309
479.62        10.86584
480.06        10.90783
480.50        10.85938
480.95        10.73505
481.39        10.57854
481.83        10.68431
482.27        10.75023
482.72        10.84239
483.16        11.13705
483.60        11.23335
484.04        11.18968
484.48        11.07843
484.93         11.1026
485.37        11.05419
485.81        11.34192
486.25        11.92225
486.69        11.75223
487.14        11.18382
487.58        12.02091
488.02        12.05132
488.46        11.61134
488.90        11.84881
489.34        11.47024
489.79        11.40211
490.23        11.71083
490.67        11.97979
491.11         12.2429
491.55        12.24145
491.99        12.05238
492.43        12.04198
492.88        12.23358
493.32        12.38419
493.76        12.46545
494.20        12.58141
494.64        12.73645
495.08        12.86634
495.52        12.96848
495.96        13.14075
496.41        13.38625
496.85        13.34235
497.29        13.12081
497.73        13.24039
498.17         13.6502
498.61        13.88946
499.05         13.8898
499.49        13.89307
499.93        13.93933
500.37         13.9805
500.82         14.0285
501.26         14.1327
501.70        14.30455
502.14         14.2406
502.58          14.428
503.02        14.45603
503.46        14.41252
503.90        14.33053
504.34        14.24565
504.78         14.2612
505.22         14.3871
505.66        14.56582
506.10        14.75432
506.54        14.92409
506.98        15.05675
507.42        15.08622
507.86        15.14091
508.30        15.14582
508.74        15.14676
509.18        15.13301
509.62        15.11803
510.06        15.12283
510.50         15.1518
510.94        15.20602
511.38        15.27002
511.82         15.3159
512.26        15.33551
512.70        15.33329
513.14        15.32679
513.58        15.33895
514.02        15.37446
514.46        15.43842
514.90        15.50679
515.34        15.48667
515.78         15.4618
516.22        15.37502
516.66        15.29635
517.10         15.2911
517.54        15.37218
517.98        15.51581
518.42        15.66997
518.86        15.75364
519.30        15.74463
519.74        15.66551
520.18         15.5594
520.62         15.4939
521.06        15.48815
521.50        15.52477
521.93        15.57165
522.37        15.56915
522.81        15.50846
523.25        15.40924
523.69        15.31235
524.13         15.2796
524.57        15.31991
525.01        15.40677
525.45        15.49345
525.89        15.50779
526.32        15.43064
526.76        15.29568
527.20        15.13486
527.64        15.00188
528.08        14.91506
528.52        14.85522
528.96        14.82139
529.40        14.81168
529.83        14.81905
530.27         14.8476
530.71        14.86829
531.15        14.83274
531.59         14.7355
532.03        14.59019
532.46        14.44182
532.90        14.37566
533.34        14.40558
533.78        14.50659
534.22        14.62896
534.66        14.69643
535.09        14.68968
535.53        14.63316
535.97        14.56213
536.41        14.53435
536.85        14.56374
537.28         14.6302
537.72        14.70374
538.16        14.73561
538.60        14.71671
539.04        14.67189
539.47        14.62371
539.91        14.61296
540.35        14.64635
540.79        14.71288
541.22        14.80011
541.66        14.88923
542.10        14.97154
542.54         15.0531
542.97        15.13067
543.41        15.20769
543.85        15.28359
544.29         15.3578
544.72        15.43226
545.16        15.52483
545.60        15.63341
546.04        15.75514
546.47        15.88612
546.91        16.01429
547.35        16.13375
547.79         16.2512
548.22         16.3625
548.66         16.4611
549.10         16.5563
549.53        16.70804
549.97         16.8953
550.41        17.02723
550.84        17.09517
551.28        17.14995
551.72        17.20969
552.15         17.2818
552.59        17.37867
553.03        17.49174
553.46        17.61391
553.90        17.74796
554.34        17.88722
554.77        18.03617
555.21        18.18046
555.65        18.29783
556.08        18.36464
556.52        18.42738
556.96        18.48756
557.39        18.57621
557.83         18.6843
558.27        18.72905
558.70        18.72202
559.14        18.75072
559.57        18.81576
560.01        18.89309
560.45        18.96742
560.88        19.00544
561.32        19.04151
561.75        19.12622
562.19        19.24877
562.63         19.3837
563.06        19.47857
563.50         19.3974
563.93        19.19839
564.37        19.14489
564.80        19.25329
565.24        19.40232
565.68        19.55414
566.11        19.69152
566.55        19.80322
566.98        19.90828
567.42        20.01677
567.85        20.08654
568.29        20.15871
568.72        20.28564
569.16        20.45735
569.60        20.64113
570.03        20.84485
570.47         20.8753
570.90        20.99725
571.34        21.34724
571.77        21.45156
572.21        21.51964
572.64        21.84982
573.08        21.81787
573.51        22.07252
573.95        22.24413
574.38        22.38458
574.82        22.48841
575.25        22.40863
575.69        22.27069
576.12        22.22506
576.56        22.71199
576.99        22.88005
577.42        22.86051
577.86        22.78312
578.29        22.82942
578.73        22.62547
579.16        22.57554
579.60        22.48694
580.03        22.40478
580.47        22.34546
580.90        22.21143
581.33        22.29576
581.77        22.33423
582.20        22.24169
582.64        22.00014
583.07         21.8714
583.51        21.75562
583.94        21.80404
584.37        21.71337
584.81        21.47913
585.24        21.33974
585.68        21.36568
586.11        21.09612
586.54        21.15517
586.98        21.12854
587.41        21.12031
587.85        20.81115
588.28         20.8673
588.71        20.92325
589.15        20.97502
589.58        20.73825
590.01        21.00793
590.45        20.96471
590.88        20.38461
591.31        20.32404
591.75        20.61512
592.18        20.70334
592.61        20.56368
593.05        20.88811
593.48        20.86024
593.91        20.89422
594.35        20.83085
594.78        21.04541
595.21        21.16107
595.65        21.21826
596.08        21.13424
596.51        21.34956
596.94        21.45475
597.38        21.72427
597.81        22.05624
598.24          22.021
598.68        22.53411
599.11        22.77192
599.54        22.93008
599.97         23.1353
600.41        23.69024
600.84        24.00347
601.27        24.15723
601.70        24.35303
602.14        24.41027
602.57        24.93122
603.00        25.50408
603.43        25.89357
603.87        26.16132
604.30         26.3493
604.73        26.66438
605.16        27.34445
605.60        27.61235
606.03        28.13008
606.46         28.6339
606.89        28.75632
607.32        29.26044
607.76        29.83784
608.19        29.98546
608.62        30.31072
609.05         30.6305
609.48        31.02456
609.92        31.43655
610.35        31.71025
610.78        31.82375
611.21        32.04115
611.64        32.49282
612.07        32.81457
612.50        33.02649
612.94        33.30668
613.37        33.68322
613.80        33.85408
614.23        34.18961
614.66        34.48852
615.09          34.816
615.52        35.17587
615.96        35.58157
616.39        35.56379
616.82        35.77165
617.25        36.25441
617.68        36.54313
618.11        36.75015
618.54        36.74877
618.97        36.99849
619.40        37.45275
619.84        37.79118
620.27        37.90259
620.70        37.99718
621.13        38.00999
621.56        38.38488
621.99        38.26737
622.42        38.27446
622.85        38.47206
623.28        38.74236
623.71        38.85717
624.14        38.46521
624.57        38.77235
625.00        39.00008
625.43        38.61766
625.86        38.53754
626.29        38.53655
626.72        38.31718
627.15        38.23906
627.58        38.16561
628.01        38.21706
628.44         37.7832
628.87        37.45298
629.30        37.30357
629.73        37.06433
630.16        36.44827
630.59        36.31396
631.02        36.02986
631.45        35.83121
631.88        35.56367
632.31        35.22524
632.74        34.68194
633.17        34.30404
633.60        33.85952
634.03        33.46181
634.46        33.09194
634.89        32.71702
635.32        32.27294
635.75        31.74995
636.18        31.19586
636.61        30.65606
637.04        30.16266
637.47        29.75037
637.89         29.4807
638.32         29.2925
638.75        29.04187
639.18        28.70692
639.61        28.35663
640.04        28.01595
640.47        27.70878
640.90        27.44909
641.33        27.21582
641.76        27.00173
642.18         26.8648
642.61        26.69522
643.04        26.57907
643.47        26.48517
643.90        26.41137
644.33        26.35697
644.76        26.32729
645.18        26.31845
645.61        26.32026
646.04        26.33446
646.47        26.36254
646.90        26.43319
647.33        26.58705
647.75         26.8344
648.18        27.17752
648.61        27.56052
649.04        27.89491
649.47         28.1684
649.89         28.3791
650.32        28.60376
650.75        29.03745
651.18        29.64846
651.61        30.22549
652.03        30.68423
652.46         30.9992
652.89        31.29647
653.32        31.63045
653.74        32.19943
654.17        32.94638
654.60        33.53172
655.03        33.52299
655.46        34.26774
655.88        35.45399
656.31        36.90866
656.74        39.32418
657.16        38.87992
657.59        38.36664
658.02        37.64842
658.45        37.95803
658.87        38.28558
659.30        38.70212
659.73        38.92709
660.15        38.87576
660.58        39.56923
661.01        39.98602
661.44        40.41277
661.86        40.83657
662.29        41.23433
662.72        41.55565
663.14        41.81553
663.57        42.08083
664.00        42.36824
664.42        42.63766
664.85        42.90591
665.27        43.22182
665.70         43.5578
666.13        43.83824
666.55        44.05622
666.98        44.23788
667.41        44.41951
667.83        44.65098
668.26        44.93627
668.69        45.26316
669.11        45.59649
669.54        45.87704
669.96        46.09589
670.39        46.25656
670.82        46.39609
671.24        46.58981
671.67        46.83985
672.09        47.07678
672.52        47.29164
672.94        47.47018
673.37        47.62775
673.80        47.80173
674.22        48.00064
674.65        48.16383
675.07        48.30222
675.50        48.43773
675.92         48.5817
676.35        48.72927
676.77        48.88685
677.20        49.05637
677.62        49.23445
678.05        49.40155
678.47        49.55206
678.90        49.69558
679.32        49.83809
679.75        50.00019
680.17        50.18539
680.60        50.39477
681.02        50.59756
681.45        50.74791
681.87        50.85453
682.30        50.86267
682.72        50.84495
683.15        51.08119
683.57        51.51372
684.00        51.68132
684.42          51.624
684.85        51.74621
685.27        52.04512
685.70         52.3793
686.12        52.64783
686.54         52.6195
686.97        52.37211
687.39        52.37406
687.82        52.65611
688.24        52.78963
688.66        52.99171
689.09        53.14391
689.51        53.30933
689.94        53.45496
690.36        53.58238
690.78        53.58594
691.21        53.52217
691.63        53.65627
692.06        53.94633
692.48           54.05
692.90        53.97636
693.33        53.99618
693.75        54.12284
694.17        54.20203
694.60        54.23697
695.02        54.34341
695.44        54.52342
695.87        54.70701
696.29         54.8881
696.71        55.14762
697.14        55.42334
697.56        55.52018
697.98        55.46851
698.41        55.54161
698.83         55.7417
699.25        55.95079
699.68        56.12797
700.10        56.29579
700.52        56.42787
700.94        56.59353
701.37        56.65015
701.79        56.73618
702.21        56.79851
702.64         56.8504
703.06        56.87772
703.48         56.8765
703.90        56.86526
704.33        56.85369
704.75        56.87143
705.17        56.95748
705.59        57.10403
706.01        57.23479
706.44        57.37654
706.86        57.66259
707.28        57.90844
707.70         58.3272
708.12        58.73657
708.55        58.65004
708.97        58.17353
709.39         58.0224
709.81        58.24253
710.23        58.31199
710.66        58.23197
711.08        58.37423
711.50        58.67544
711.92        58.86473
712.34        58.91469
712.76        58.90113
713.19        58.87224
713.61        58.94847
714.03        59.13507
714.45        59.37843
714.87        59.62576
715.29        59.80711
715.71          59.902
716.13        59.94226
716.56        59.93634
716.98        59.92696
717.40        59.91201
717.82        59.95171
718.24        60.08846
718.66         60.0652
719.08        60.39845
719.50        60.64407
719.92        60.91869
720.34        61.14693
720.76        61.30606
721.19        61.39972
721.61        61.41499
722.03        61.32251
722.45        61.13466
722.87         60.8709
723.29        60.62154
723.71        60.52983
724.13        60.63226
724.55        60.89771
724.97        61.23872
725.39        61.50232
725.81        61.63965
726.23        61.68316
726.65        61.69189
727.07        61.76635
727.49        61.93001
727.91        62.14284
728.33        62.33833
728.75        62.43497
729.17        62.41602
729.59        62.28638
730.01        62.09474
730.43        62.16009
730.85        62.05439
731.27        62.26155
731.69        62.56541
732.10        62.75887
732.52        62.80298
732.94        62.81336
733.36         62.8214
733.78        62.85378
734.20        62.94676
734.62        63.03741
735.04        62.98216
735.46        63.28176
735.88        63.77924
736.30        63.47264
736.72        62.96743
737.13        62.94378
737.55        63.47988
737.97         63.7565
738.39        63.69304
738.81        63.54241
739.23        63.40061
739.65        63.55051
740.06        63.89796
740.48        64.05199
740.90        63.96897
741.32        63.96509
741.74        63.99649
742.16        64.14152
742.57        64.28188
742.99        64.53459
743.41        64.78342
743.83        64.79096
744.25        64.57749
744.67        64.37651
745.08        64.27959
745.50        64.23553
745.92        64.27792
746.34        64.46072
746.75        64.72918
747.17        64.89373
747.59        64.90557
748.01        64.95213
748.42        65.02464
748.84         64.7534
749.26         64.3014
749.68        64.48104
750.09        65.15369
750.51         65.2873
750.93         64.9157
751.35        64.92411
751.76         65.3101
752.18        65.39308
752.60         65.2364
753.01        65.16337
753.43         65.2438
753.85        65.00546
754.27        65.20317
754.68        65.25818
755.10        65.37769
755.52         65.5321
755.93        65.71633
756.35        65.89446
756.77        66.01916
757.18        66.22433
757.60        66.54446
758.02        66.61108
758.43        66.29844
758.85        67.20013
759.26        66.52517
759.68        66.45321
760.10        66.32028
760.51        66.10125
760.93        66.44363
761.34        66.70005
761.76        66.78154
762.18        66.75097
762.59        66.63229
763.01        66.69218
763.42        66.94139
763.84        67.01034
764.26        66.93241
764.67        66.80939
765.09        66.73213
765.50         66.9329
765.92        67.33983
766.33        67.12411
766.75        66.78059
767.16        66.58104
767.58        66.69494
768.00        66.67677
768.41        66.58555
768.83        66.80254
769.24        67.22398
769.66        67.42302
770.07        67.37413
770.49        67.35551
770.90         67.4253
771.32         67.5529
771.73         67.6954
772.15        67.74388
772.56        67.71623
772.97        67.61323
773.39         67.4418
773.80        67.69688
774.22        67.68587
774.63        67.83939
775.05        67.91654
775.46        68.03748
775.88        68.15995
776.29        68.25889
776.70        68.31931
777.12        68.34679
777.53        68.35659
777.95        68.31509
778.36        68.27351
778.77        68.27716
779.19        68.34071
779.60        68.53906
780.02        68.77174
780.43        68.78561
780.84        68.63178
781.26        68.54265
781.67         68.6357
782.09        69.01469
782.50        69.42872
782.91        69.70184
783.33        68.89051
783.74        68.72065
784.15        68.94019
784.57        69.04525
784.98        69.01011
785.39        69.03511
785.81        69.13135
786.22        69.28771
786.63        69.46861
787.04        69.59164
787.46        69.65085
787.87        69.68006
788.28        69.67694
788.70        69.60837
789.11        69.46957
789.52        69.30076
789.93        69.16069
790.35        69.11578
790.76        69.20063
791.17        69.38554
791.58        69.62991
792.00         69.7943
792.41        69.86048
792.82         70.0255
793.23        70.26556
793.65        70.10246
794.06        69.73432
794.47        70.14018
794.88        71.12481
795.29        71.33846
795.71         71.1539
796.12         70.9137
796.53        70.82187
796.94        70.48672
797.35        70.05957
797.76          70.175
798.18        70.72958
798.59        70.98981
799.00        70.89272
799.41        70.81092
799.82          70.799
800.23        70.78429
800.64        70.79192
801.06        70.82066
801.47        70.86713
801.88         70.8849
802.29        70.86274
802.70        70.72142
803.11        70.55477
803.52        70.67963
803.93        71.05568
804.34        71.30855
804.75        71.33646
805.17        71.30225
805.58        71.30118
805.99        71.09296
806.40         70.8251
806.81        71.32924
807.22        72.26963
807.63        72.10987
808.04        71.01531
808.45         70.6419
808.86        71.12202
809.27        71.46873
809.68          71.563
810.09        71.67226
810.50        71.76257
810.91        71.76481
811.32        71.69974
811.73        71.61861
812.14        71.54488
812.55        71.43848
812.96        71.34616
813.37        71.43242
813.78        71.66193
814.19        71.80302
814.60        71.82827
815.01        71.87984
815.42        71.95197
815.83        71.93551
816.24        71.85186
816.65        71.81276
817.05        71.84583
817.46        71.88813
817.87        71.94357
818.28        71.96698
818.69        71.94965
819.10        71.91041
819.51        71.88477
819.92         71.9275
820.33         72.0509
820.74        72.23148
821.14        72.41589
821.55        72.56323
821.96        72.63911
822.37        72.65324
822.78        72.63618
823.19        72.64207
823.60        72.69017
824.00        72.79299
824.41        72.86387
824.82        72.85126
825.23        72.74461
825.64        72.56493
826.04        72.42088
826.45        72.45046
826.86        72.68764
827.27        73.08468
827.68        73.49604
828.08        73.71072
828.49        73.60449
828.90        73.27975
829.31        72.88251
829.72         72.6637
830.12        72.71909
830.53        72.93121
830.94        73.20911
831.35        73.36326
831.75        73.35602
832.16        73.20609
832.57        73.00201
832.97        72.85638
833.38        72.80607
833.79        72.81879
834.20        72.87318
834.60        72.93818
835.01         73.0146
835.42        73.11182
835.82        73.24848
836.23        73.36924
836.64        73.48769
837.04        73.62234
837.45        73.72935
837.86        73.84334
838.26        73.97704
838.67        74.10377
839.08        74.22414
839.48        74.32426
839.89        74.39635
840.29        74.43854
840.70        74.46233
841.11        74.48817
841.51         74.5406
841.92        74.58772
842.33        74.61371
842.73        74.58508
843.14        74.45431
843.54        74.26525
843.95        74.08733
844.35        74.05222
844.76        74.16982
845.17        74.39584
845.57        74.63913
845.98        74.70776
846.38        74.58024
846.79        74.29667
847.19        73.94691
847.60        73.62997
848.00        73.41716
848.41        73.24579
848.81        73.16763
849.22        73.18822
849.62        73.33156
850.03        73.57716
850.43        73.85179
850.84        73.94814
851.24        73.87614
851.65        73.61884
852.05        73.37483
852.46         73.4026
852.86        73.74432
853.27        74.29192
853.67        74.78464
854.07        75.05728
854.48        75.03404
854.88        74.83221
855.29        74.42667
855.69        73.99199
856.10        73.52538
856.50        73.07888
856.90        72.71612
857.31         72.5642
857.71        72.68376
858.12        72.99679
858.52        73.40364
858.92        73.59994
859.33        73.48814
859.73        73.16418
860.13        72.73098
860.54         72.4165
860.94        72.33853
861.34         72.4046
861.75        72.49905
862.15        72.50186
862.55         72.3528
862.96        72.12445
863.36        71.88577
863.76        71.72669
864.17        71.67218
864.57        71.69662
864.97          71.782
865.38         71.8905
865.78        72.04025
866.18        72.20496
866.58        72.32792
866.99        72.32386
867.39        72.20582
867.79        71.97942
868.19         71.6973
868.60        71.39568
869.00         71.0936
869.40        70.82816
869.80        70.64864
870.21        70.64767
870.61        70.90287
871.01        71.28767
871.41        71.72611
871.81         72.1262
872.22        72.41515
872.62        72.62721
873.02        72.69003
873.42        72.47719
873.82        72.01044
874.22        71.40002
874.63         70.8112
875.03           70.44
875.43        70.34324
875.83        70.44616
876.23        70.76569
876.63        71.31238
877.03        72.02309
877.44        72.86126
877.84        73.57224
878.24        73.71416
878.64        73.22135
879.04        72.24703
879.44        71.16734
879.84        70.51905
880.24        70.41711
880.64        70.73212
881.04        71.22485
881.44        71.46693
881.84        71.32877
882.24        70.93452
882.65        70.47466
883.05         70.3638
883.45        70.65057
883.85        71.18791
884.25        71.74008
884.65        71.98151
885.05        71.83842
885.45        71.40988
885.85        70.88897
886.25        70.60226
886.65        70.64928
887.05        70.94138
887.45        71.28307
887.85        71.37543
888.25        71.15295
888.65        70.70879
889.04        70.24366
889.44        70.12591
889.84        70.41408
890.24        70.98033
890.64        71.58028
891.04         71.8366
891.44        71.66536
891.84         71.2046
892.24        70.65524
892.64        70.32766
893.04        70.31649
893.44        70.52617
893.83        70.88036
894.23         71.1936
894.63         71.4184
895.03        71.58399
895.43        71.70323
895.83        71.79127
896.23        71.84793
896.63        71.85909
897.02        71.77711
897.42        71.57587
897.82        71.26186
898.22        70.88547
898.62        70.54401
899.01        70.40681
899.41        70.49133
899.81        70.73608
900.21        71.08704
900.61        71.44533
901.00         71.7464
901.40        72.04187
901.80        72.21893
902.20        72.11929
902.59        71.75759
902.99         71.1667
903.39        70.61167
903.79        70.52214
904.18        70.96138
904.58        71.77562
904.98        72.65861
905.38        73.16095
905.77        73.16985
906.17        72.83072
906.57        72.30846
906.96        71.91118
907.36        71.73536
907.76        71.72134
908.15        71.81699
908.55         71.8652
908.95        71.85074
909.34         71.7991
909.74        71.81895
910.14         72.0065
910.53        72.36675
910.93        72.82651
911.33        73.22409
911.72         73.3005
912.12        73.00694
912.52         72.4869
912.91        71.92254
913.31        71.59114
913.70         71.5599
914.10        71.73907
914.49        72.11621
914.89        72.59225
915.29        73.10236
915.68        73.62961
916.08        74.07204
916.47        74.27499
916.87        74.22663
917.26        73.94823
917.66         73.5274
918.05        73.08276
918.45        72.66674
918.84        72.29271
919.24        71.98839
919.64        71.87022
920.03        71.96778
920.42        72.25386
920.82        72.61004
921.21        72.82997
921.61         72.8438
922.00        72.69215
922.40        72.49595
922.79         72.5559
923.19        72.89365
923.58        73.45148
923.98        73.95686
924.37        74.06159
924.77        73.69161
925.16         72.9437
925.55        72.13046
925.95        71.78299
926.34        72.04008
926.74        72.73203
927.13        73.54787
927.52        73.89045
927.92         73.6489
928.31         73.0026
928.70        72.28209
929.10        71.98235
929.49        72.22076
929.89        72.79866
930.28        73.52068
930.67        73.93159
931.07        73.87083
931.46        73.51154
931.85         72.9843
932.24        72.52067
932.64        72.20331
933.03        71.95794
933.42        71.77698
933.82        71.65247
934.21        71.58056
934.60        71.60249
934.99        71.68464
935.39         71.7262
935.78        71.74155
936.17        71.73445
936.56        71.78619
936.96        72.02711
937.35         72.5122
937.74        73.13896
938.13        73.76793
938.53        74.22032
938.92        74.45523
939.31        74.49495
939.70        74.42189
940.09        74.38466
940.49        74.39409
940.88        74.43996
941.27         74.4112
941.66        74.13927
942.05        73.61887
942.44        72.95859
942.84        72.31837
943.23        71.88553
943.62        71.75451
944.01        71.85803
944.40        72.16759
944.79        72.61588
945.18        73.12141
945.57        73.66116
945.97        74.07551
946.36         74.2168
946.75        74.03283
947.14        73.55959
947.53        72.94453
947.92        72.46915
948.31        72.23961
948.70         72.2131
949.09        72.29401
949.48         72.3091
949.87        72.21535
950.26        72.07313
950.65        71.96317
951.04        72.00811
951.43        72.22079
951.82        72.52617
952.21        72.81423
952.60        72.91576
952.99        72.77429
953.38        72.44619
953.77        71.99579
954.16        71.51498
954.55        71.04932
954.94        70.59258
955.33        70.16832
955.72        69.81335
956.11        69.54044
956.50        69.35358
956.89        69.25662
957.28        69.23309
957.66        69.29617
958.05        69.43311
958.44        69.59004
958.83        69.68681
959.22        69.69285
959.61        69.57558
960.00        69.45368
960.39        69.52438
960.78        69.81381
961.16        70.32276
961.55        70.72562
961.94        70.56863
962.33        69.79425
962.72        68.60297
963.11        67.47423
963.49        67.10681
963.88        67.63968
964.27          68.869
964.66        70.38243
965.04        71.43682
965.43        71.67664
965.82        71.33506
966.21        70.72224
966.60        70.33537
966.98        70.32001
967.37        70.48193
967.76         70.6516
968.15        70.51611
968.53         70.0215
968.92        69.35442
969.31        68.70299
969.69        68.28804
970.08        68.17182
970.47        68.27723
970.86        68.65043
971.24        69.37852
971.63        70.32502
972.02        71.42014
972.40        72.44321
972.79        72.96233
973.17        73.01437
973.56        72.63985
973.95        72.09319
974.33        71.80422
974.72        71.90167
975.11         72.2495
975.49        72.66666
975.88        72.87534
976.26        72.78791
976.65        72.49113
977.04        72.02122
977.42         71.4187
977.81        70.68553
978.19        69.78055
978.58        68.97264
978.96        68.66953
979.35        68.93045
979.74        69.70139
980.12        70.61288
980.51        70.81358
980.89        70.23441
981.28        69.01301
981.66        67.67863
982.05         67.2504
982.43        67.98581
982.82        69.50175
983.20        71.28159
983.59        72.37727
983.97        72.62977
984.35        72.25509
984.74        71.50838
985.12        70.84864
985.51        70.45355
985.89        70.18717
986.28         70.0253
986.66        70.02093
987.04        70.11267
987.43        70.31377
987.81        70.50999
988.20        70.37718
988.58         69.9233
988.96        69.26918
989.35        68.53122
989.73        67.99559
990.12        67.70941
990.50        67.52525
990.88        67.62483
991.27        68.30726
991.65        69.49296
992.03         71.0546
992.42        72.22805
992.80        72.35706
993.18        71.24887
993.56        68.92075
993.95        66.16228
994.33        64.92608
994.71        66.04349
995.10        68.59285
995.48        71.18716
995.86        72.27009
996.24        71.71278
996.63        69.88867
997.01         67.5252
997.39        66.23349
997.77         66.7108
998.15        68.39063
998.54         70.3139
998.92        71.20845
999.30        70.78408
999.68        69.48753
1000.06        67.86323
1000.45        66.85603
1000.83        66.87888
1001.21        67.50916
1001.59        68.44798
1001.97        69.28442
1002.35        69.91556
1002.73        70.64172
1003.12        71.27528
1003.50        71.23476
1003.88        70.52153
1004.26        69.21063
1004.64        68.19007
1005.02        68.67446
1005.40        70.72523
1005.78        74.01051
1006.16        77.31519
1006.54        78.38993
1006.92        76.63523
1007.30         72.7673
1007.69        68.28237
1008.07        65.63364
1008.45        65.65215
1008.83        67.57906
1009.21         70.3352
1009.59        72.37821
1009.97        73.23119
1010.35        73.28056
1010.73         72.8345
1011.11        72.57135
1011.49        72.81183
1011.86        73.31316
1012.24        73.50432
1012.62        72.95029
1013.00        71.65044
1013.38        69.91534
1013.76         68.3325
1014.14        67.80447
1014.52        68.59813
1014.90        70.46499
1015.28        72.91174
1015.66        74.89782
1016.04          75.888
1016.41        76.12357
1016.79        75.64388
1017.17        74.95142
1017.55        74.25436
1017.93         73.5308
1018.31        72.77412
1018.69        71.95023
1019.06        71.14564
1019.44        70.43388
1019.82        70.22395
1020.20        71.23655
1020.58        73.36696
1020.95         75.9107
1021.33        78.09203
1021.71        78.97817
1022.09        78.41375
1022.46        76.73888
1022.84        73.98201
1023.22        70.01868
1023.60        65.01181
1023.97        58.74696
1024.35        52.67361
1024.73        49.74831
