SpectraSmart Spectrum 2.9.0.0
--------- Device Information -----------
Spectrum Name :  反射率_0
Saving Time :  2024/04/27 22:12:46
Spectro-Module Model Name : SE2030-DUVN
Spectro-Module Serial Number : OS361AC55029948
Wavelength Start : 200
Wavelength End : 1025
Wavelength Unit : Wavelength(nm)
Spectrum Unit : Reflectance(%)
-----------Spectrum Setting ------------
Integration Time : 20ms
Average : 10
Boxcar : 0
Background removal :  enabled
linearity correction :  enabled
SC :  disabled
Intensity correction :  disabled
DWT denoise :  enabled
savitzky-golay :  disabled
FFT :  disabled
Running average :  disabled
Kalman :  disabled
High pass :  disabled
---------------BEGIN--------------------
Wavelength(nm)             Reflectance(%)
200.29               0
200.75        49.51662
201.21        67.40027
201.67        77.04832
202.13        74.18855
202.58        63.11681
203.04        47.63311
203.50        35.35375
203.96        37.19923
204.42        51.47208
204.88        70.76748
205.34        87.94552
205.80        97.70579
206.26        100.1663
206.72        96.21243
207.18        85.28593
207.64        74.64773
208.10         73.0528
208.55        77.52335
209.01        80.49803
209.47        78.23067
209.93        68.75893
210.39        42.82725
210.85       -34.19065
211.31       -116.9221
211.77        2.553553
212.23        74.22009
212.69        97.43202
213.14        102.0589
213.60        96.66236
214.06        81.65601
214.52        53.42395
214.98        28.44332
215.44        30.52242
215.90        45.20564
216.36        59.55474
216.81        69.30981
217.27        75.76221
217.73        81.51188
218.19        85.98637
218.65        87.18865
219.11        84.72578
219.57         78.8278
220.02        70.74438
220.48        65.72735
220.94         65.8772
221.40        69.40955
221.86        75.17709
222.32        81.96401
222.77        88.71629
223.23        95.18407
223.69        99.97766
224.15        101.6424
224.61         100.352
225.06        96.55908
225.52         91.7375
225.98        88.68728
226.44        88.33022
226.90        89.51495
227.36         90.9756
227.81        91.59323
228.27        91.53866
228.73        91.08087
229.19        90.68433
229.65        91.14443
230.10        92.48419
230.56        94.45901
231.02        96.21919
231.48        96.85017
231.93        96.18972
232.39        94.82888
232.85        93.27753
233.31        92.37791
233.77        92.25866
234.22        92.59873
234.68        93.02911
235.14        93.00975
235.60        92.39603
236.05        91.34262
236.51        89.93964
236.97        88.66268
237.43        87.79406
237.88        87.39942
238.34        86.98748
238.80        86.24904
239.26        84.87692
239.71        82.72297
240.17         79.1925
240.63         75.8261
241.08        75.15563
241.54         76.4537
242.00        78.04279
242.46        78.71881
242.91        78.45219
243.37        76.96429
243.83        73.18133
244.28        66.89677
244.74        62.88695
245.20         63.5428
245.66        65.19204
246.11          64.532
246.57         60.9367
247.03        54.46844
247.48         44.3484
247.94         35.3034
248.40        34.39874
248.85        39.33611
249.31        47.11308
249.77         55.3149
250.22        62.50083
250.68        68.39166
251.14        72.90269
251.59        76.36367
252.05        79.42372
252.51        82.22497
252.96         83.9603
253.42        82.89642
253.88        78.71796
254.33        73.97979
254.79        70.37413
255.25        67.47751
255.70        65.04528
256.16        63.51931
256.62        63.61562
257.07        66.07443
257.53        70.19907
257.99         74.4307
258.44        77.28869
258.90        78.06427
259.35         76.7944
259.81        74.74476
260.27        72.51475
260.72        70.84383
261.18        70.18262
261.63        69.84635
262.09        69.76696
262.55          69.406
263.00        68.63377
263.46        67.81545
263.91        67.00385
264.37        66.68057
264.83        66.75726
265.28        67.00813
265.74        67.26815
266.19        67.05215
266.65        66.42946
267.11        65.49043
267.56        64.47055
268.02        63.85498
268.47        63.67421
268.93        63.79018
269.38        63.93898
269.84        63.76248
270.30        63.15487
270.75        62.23571
271.21         61.1549
271.66          60.073
272.12        59.09026
272.57        58.10903
273.03        57.17638
273.48        56.26002
273.94        55.42375
274.39        54.63708
274.85        53.92679
275.31        53.18358
275.76        52.36432
276.22        51.54643
276.67        50.71593
277.13        50.01823
277.58        49.38573
278.04         48.8391
278.49        48.24508
278.95        47.57716
279.40        46.75898
279.86        45.91071
280.31        45.02513
280.77        44.25671
281.22         43.5787
281.68        43.02576
282.13        42.52806
282.59        42.08695
283.04        41.64047
283.50        41.20657
283.95        40.76218
284.41        40.34718
284.86        39.93348
285.32        39.54899
285.77        39.11351
286.22        38.57267
286.68        37.95037
287.13        37.24224
287.59        36.58257
288.04         36.0776
288.50        35.78726
288.95        35.63275
289.41        35.55256
289.86        35.38726
290.32        35.12676
290.77        34.79789
291.22        34.46246
291.68        34.20575
292.13        34.03111
292.59        33.91785
293.04        33.83323
293.50        33.76592
293.95        33.69549
294.40         33.6489
294.86         33.6177
295.31        33.57077
295.77        33.52072
296.22        33.46455
296.68        33.45852
297.13        33.56928
297.58        33.80656
298.04        34.13419
298.49         34.4763
298.95        34.73811
299.40        34.88494
299.85        34.94479
300.31        34.96738
300.76        34.99746
301.21        35.06636
301.67        35.16685
302.12        35.26071
302.58        35.33462
303.03        35.36419
303.48        35.36755
303.94        35.39223
304.39        35.45773
304.84        35.57874
305.30        35.74396
305.75        35.87333
306.20        35.88855
306.66        35.78928
307.11        35.57669
307.57        35.34649
308.02        35.18289
308.47        35.12306
308.93        35.13768
309.38        35.14474
309.83        35.04275
310.29        34.82204
310.74        34.50999
311.19        34.17814
311.65        33.93523
312.10        33.79265
312.55        33.71899
313.00        33.67688
313.46         33.6114
313.91        33.49572
314.36        33.34838
314.82        33.16044
315.27        32.91323
315.72         32.6154
316.18        32.28435
316.63        31.94946
317.08        31.67916
317.53        31.49195
317.99        31.37007
318.44        31.29767
318.89        31.22957
319.35        31.14673
319.80        31.05521
320.25        30.95478
320.70        30.85256
321.16        30.74052
321.61        30.61705
322.06        30.46602
322.51        30.26896
322.97        30.02521
323.42        29.76261
323.87        29.49968
324.32        29.27209
324.78        29.09137
325.23         28.9528
325.68        28.86128
326.13        28.82782
326.59        28.83016
327.04        28.87698
327.49         28.9061
327.94        28.82722
328.39        28.61952
328.85        28.30037
329.30        27.93796
329.75        27.64508
330.20        27.46555
330.66        27.36643
331.11        27.32877
331.56        27.26546
332.01        27.15362
332.46        27.02335
332.92        26.89644
333.37        26.83537
333.82        26.84312
334.27        26.88418
334.72        26.94108
335.17        26.99288
335.63        27.01868
336.08        27.04644
336.53        27.02813
336.98        26.89667
337.43          26.655
337.88        26.33068
338.34         26.0305
338.79        25.93259
339.24        26.07479
339.69        26.40316
340.14        26.79756
340.59        27.05763
341.05         27.1222
341.50        27.04905
341.95        26.90164
342.40        26.79538
342.85        26.76578
343.30        26.76898
343.75        26.78301
344.20        26.77679
344.66        26.74451
345.11        26.70998
345.56        26.66764
346.01        26.59792
346.46        26.50271
346.91        26.37983
347.36        26.27826
347.81        26.27366
348.26        26.37509
348.72          26.564
349.17        26.75122
349.62        26.79404
350.07        26.66253
350.52        26.38915
350.97        26.09815
351.42        25.99091
351.87        26.10327
352.32        26.37004
352.77        26.63187
353.22        26.64475
353.67        26.36463
354.13         25.8912
354.58        25.36497
355.03        25.05997
355.48        25.04707
355.93        25.24422
356.38        25.51533
356.83        25.64891
357.28        25.58685
357.73        25.39408
358.18        25.16174
358.63        25.02957
359.08        25.02648
359.53        25.09283
359.98        25.15243
360.43        25.09396
360.88        24.89502
361.33        24.60397
361.78        24.27074
362.23        24.00605
362.68        23.84827
363.13         23.6991
363.58        23.53443
364.03        23.66847
364.48        23.51576
364.93        23.53195
365.38        23.51795
365.83        23.43871
366.28        23.28242
366.73        23.06937
367.18        22.82932
367.63        22.60085
368.08        22.40182
368.53        22.22099
368.98        22.06941
369.43        21.95973
369.88        21.89198
370.33        21.87227
370.78        21.85691
371.23        21.77471
371.68        21.60731
372.13         21.3569
372.58        21.10148
373.03        20.97135
373.48        20.99147
373.93         21.1348
374.38        21.26661
374.83        21.17296
375.28        20.82323
375.72        20.27901
376.17        19.75565
376.62        19.54954
377.07        19.71009
377.52        20.12016
377.97        20.57111
378.42        20.73807
378.87        20.54748
379.32        20.12124
379.77        19.59988
380.22         19.1922
380.67        18.96395
381.11        18.84624
381.56        18.81443
382.01        18.83154
382.46        18.87089
382.91        18.95125
383.36        19.02569
383.81        19.01253
384.26        18.89737
384.71        18.69275
385.15        18.45144
385.60        18.29686
386.05        18.24709
386.50         18.2777
386.95        18.33544
387.40         18.3335
387.85        18.25801
388.29        18.13245
388.74        18.03023
389.19        18.01245
389.64        18.08304
390.09        18.19934
390.54        18.31707
390.98        18.36583
391.43        18.33315
391.88        18.24736
392.33        18.10499
392.78        17.93122
393.23        17.74935
393.67        17.47828
394.12        17.19345
394.57        17.19879
395.02        17.19537
395.47        17.14011
395.91        16.95788
396.36         16.8608
396.81        16.85963
397.26        16.83403
397.71        16.79406
398.15        16.81847
398.60        16.91953
399.05         16.9925
399.50        17.04075
399.95        17.18442
400.39        17.36274
400.84        17.32533
401.29         17.0821
401.74        16.82511
402.18        16.62299
402.63        16.50609
403.08         16.4762
403.53        16.44126
403.97        16.40084
404.42         16.4461
404.87        16.54791
405.32        16.62296
405.76        16.65186
406.21        16.61017
406.66         16.5333
407.11        16.55965
407.55        16.65565
408.00        16.63197
408.45        16.48022
408.90        16.24837
409.34        16.02139
409.79        16.01246
410.24        16.18124
410.68        16.25024
411.13        16.19715
411.58        16.19359
412.03         16.2481
412.47        16.28839
412.92         16.3014
413.37        16.31084
413.81        16.30434
414.26        16.27702
414.71        16.22602
415.15        16.15424
415.60        16.07742
416.05        16.03121
416.49        16.02727
416.94        16.05472
417.39        16.09101
417.83        16.10161
418.28        16.07092
418.73        15.99915
419.17        15.91444
419.62        15.86544
420.07        15.86898
420.51        15.92179
420.96        15.96912
421.41        15.94562
421.85        15.84051
422.30         15.6068
422.74        15.36291
423.19        15.47468
423.64        15.88764
424.08        16.15639
424.53        16.15595
424.98        16.14881
425.42        16.12818
425.87        15.81215
426.31        15.34761
426.76        15.29086
427.21        15.58613
427.65        15.64764
428.10         15.4719
428.54        15.45013
428.99        15.57427
429.44        15.76597
429.88        15.91791
430.33        15.67186
430.77        15.20184
431.22        15.17449
431.66        15.56124
432.11        15.83838
432.56        15.91446
433.00        15.91384
433.45        15.72499
433.89        15.37751
434.34          15.162
434.78        14.42479
435.23        15.00054
435.67        15.52716
436.12        15.79676
436.57         15.9147
437.01        15.75997
437.46        15.66522
437.90        15.71894
438.35        15.81951
438.79        15.48717
439.24        15.38727
439.68        15.39807
440.13        15.46342
440.57          15.532
441.02        15.65998
441.46        15.78753
441.91        15.57828
442.35        15.18683
442.80        15.31241
443.24        15.82177
443.69        15.81133
444.13        15.31242
444.58        15.10112
445.02        15.18317
445.47        15.15837
445.91         15.0197
446.36        14.96508
446.80        14.99453
447.24        15.04732
447.69        15.11314
448.13        15.21645
448.58        15.32774
449.02         15.3657
449.47        15.35059
449.91        15.38592
450.36        15.47934
450.80        15.56645
451.25        15.62792
451.69        15.66023
452.13        15.65386
452.58        15.59945
453.02        15.51564
453.47        15.44088
453.91        15.38451
454.36        15.36215
454.80        15.34495
455.24        15.26873
455.69        15.16498
456.13        15.07016
456.58        15.01981
457.02        15.11983
457.46        15.28463
457.91        15.23993
458.35        15.07612
458.79        15.02663
459.24        15.11858
459.68        15.19789
460.13         15.2559
460.57        15.25635
461.01        15.26151
461.46        15.29122
461.90         15.2655
462.34         15.2268
462.79        15.41059
463.23        15.40158
463.68        15.29454
464.12        15.20597
464.56        15.16382
465.01        15.20233
465.45        15.24887
465.89        15.18847
466.34        15.06849
466.78        14.97154
467.22        14.90327
467.67        15.18584
468.11        15.14013
468.55        15.14372
468.99        15.02629
469.44        14.99159
469.88        15.04441
470.32        15.06517
470.77        15.05831
471.21        15.07863
471.65        15.12875
472.10        15.19559
472.54        15.25095
472.98        15.27371
473.42        15.26413
473.87        15.18822
474.31        15.08677
474.75        15.16405
475.20        15.37365
475.64        15.41219
476.08        15.27701
476.52        15.25803
476.97        15.37074
477.41        15.30998
477.85        15.22435
478.29        15.32238
478.74        15.22007
479.18        15.09746
479.62         15.3358
480.06        15.36814
480.50        15.35591
480.95        15.30075
481.39        15.20866
481.83        15.41645
482.27        15.46365
482.72        15.46343
483.16         15.7407
483.60        15.80895
484.04        15.74986
484.48        15.76232
484.93        16.01978
485.37        15.76187
485.81         15.6356
486.25        16.59601
486.69        16.14829
487.14        15.57631
487.58        16.51536
488.02        16.28174
488.46        16.21677
488.90        16.61646
489.34        16.09024
489.79        15.86714
490.23        16.14565
490.67        16.37207
491.11        16.63145
491.55        16.63291
491.99        16.44705
492.43        16.45118
492.88        16.66175
493.32        16.82381
493.76        16.90204
494.20        17.00764
494.64        17.14941
495.08        17.24552
495.52        17.30963
495.96        17.51273
496.41        17.84251
496.85        17.82097
497.29        17.56465
497.73        17.72987
498.17        18.23673
498.61        18.47679
499.05        18.37977
499.49         18.2971
499.93        18.29355
500.37        18.30449
500.82        18.33474
501.26        18.43493
501.70         18.6159
502.14        18.48487
502.58        18.70139
503.02        18.77223
503.46        18.81224
503.90         18.8486
504.34        18.86898
504.78         18.9139
505.22        18.97767
505.66        19.01528
506.10        19.04354
506.54         19.1416
506.98        19.31499
507.42        19.44519
507.86        19.64344
508.30          19.723
508.74        19.71641
509.18        19.63964
509.62        19.53973
510.06        19.49082
510.50        19.51366
510.94        19.58972
511.38        19.68939
511.82        19.76442
512.26        19.79899
512.70        19.80795
513.14        19.80859
513.58        19.81907
514.02        19.84497
514.46         19.8928
514.90        19.94907
515.34        19.92424
515.78        19.92962
516.22        19.88141
516.66        19.84155
517.10        19.84914
517.54         19.9116
517.98        20.01344
518.42        20.11601
518.86        20.16086
519.30        20.13337
519.74        20.05056
520.18        19.94941
520.62        19.88749
521.06        19.88064
521.50        19.91485
521.93        19.96065
522.37         19.9619
522.81        19.90936
523.25        19.81844
523.69        19.72678
524.13         19.6916
524.57        19.72264
525.01        19.79985
525.45        19.87569
525.89         19.8766
526.32        19.78492
526.76        19.63258
527.20         19.4686
527.64        19.37368
528.08        19.36659
528.52        19.41863
528.96        19.48941
529.40        19.51614
529.83        19.48048
530.27        19.40532
530.71        19.30967
531.15        19.22221
531.59        19.15523
532.03        19.10084
532.46        19.05611
532.90        19.02987
533.34        19.01814
533.78        19.02101
534.22        19.03589
534.66        19.05668
535.09        19.07784
535.53        19.10182
535.97        19.11941
536.41        19.12041
536.85        19.10453
537.28        19.07662
537.72        19.04944
538.16        19.04092
538.60        19.05729
539.04        19.09811
539.47        19.14963
539.91        19.20185
540.35         19.2456
540.79        19.28748
541.22        19.32949
541.66        19.37579
542.10         19.4272
542.54        19.48298
542.97        19.53794
543.41        19.59671
543.85        19.65675
544.29        19.71856
544.72        19.78432
545.16        19.87195
545.60        19.97717
546.04        20.09682
546.47        20.21967
546.91        20.32316
547.35        20.40158
547.79        20.46965
548.22        20.53728
548.66        20.61559
549.10         20.7205
549.53        20.92268
549.97        21.19192
550.41        21.37929
550.84        21.46213
551.28        21.55779
551.72        21.70197
552.15        21.66983
552.59        21.88332
553.03        21.99822
553.46        22.12608
553.90        22.26138
554.34        22.39851
554.77        22.54399
555.21        22.66876
555.65        22.73724
556.08        22.72431
556.52        22.69591
556.96        22.68091
557.39        22.75639
557.83        22.91517
558.27        23.04103
558.70         23.1162
559.14        23.19661
559.57        23.26986
560.01        23.32327
560.45        23.35736
560.88        23.36153
561.32        23.38882
561.75        23.49084
562.19        23.65537
562.63        23.85231
563.06        24.01384
563.50        23.97033
563.93        23.78001
564.37        23.74609
564.80         23.8828
565.24        24.04218
565.68        24.18691
566.11        24.31209
566.55        24.41021
566.98        24.50388
567.42        24.59634
567.85        24.62331
568.29        24.63588
568.72        24.70028
569.16        24.82163
569.60        25.01056
570.03          25.283
570.47        25.34378
570.90        25.46793
571.34        25.98705
571.77        25.95413
572.21        25.91372
572.64        26.15775
573.08        26.05307
573.51        26.35528
573.95        26.50015
574.38        26.58136
574.82        26.64192
575.25        26.57164
575.69        26.50708
576.12        26.57759
576.56         27.1062
576.99        27.11739
577.42        26.95848
577.86        26.89822
578.29        27.12557
578.73        26.88129
579.16        26.87463
579.60        26.81602
580.03        26.73443
580.47        26.60748
580.90        26.66347
581.33        26.77084
581.77        26.53513
582.20        26.29689
582.64        26.00829
583.07        26.06768
583.51        25.94115
583.94         25.8017
584.37         25.7185
584.81        25.70583
585.24          25.671
585.68        25.63391
586.11        25.43263
586.54        25.28978
586.98        25.18643
587.41        25.45229
587.85        25.20699
588.28         24.9812
588.71        25.16172
589.15        25.16494
589.58        24.97351
590.01        25.12762
590.45        25.22168
590.88        24.81726
591.31        24.74002
591.75        24.84302
592.18        24.86689
592.61        24.80856
593.05         25.2782
593.48        25.44921
593.91        25.18237
594.35        25.29641
594.78        25.46142
595.21        25.53481
595.65        25.56613
596.08         25.4454
596.51        25.85432
596.94        25.89962
597.38        26.18723
597.81        26.47692
598.24        26.37285
598.68        26.88591
599.11        26.90418
599.54        27.32744
599.97        27.28535
600.41        28.13782
600.84        28.48543
601.27         28.6537
601.70        28.92336
602.14        29.04846
602.57        29.53548
603.00         29.9371
603.43        30.35406
603.87         30.8287
604.30        30.97896
604.73         31.2729
605.16        31.97188
605.60        32.27031
606.03         32.8437
606.46        33.34543
606.89        33.69107
607.32         33.9779
607.76        34.64367
608.19        34.73612
608.62        35.04314
609.05         35.3613
609.48        35.73572
609.92        36.04823
610.35        36.66595
610.78        36.85242
611.21        36.52766
611.64         37.4703
612.07         37.7568
612.50        37.94559
612.94        38.20506
613.37        38.58935
613.80        38.68988
614.23        38.99798
614.66        39.28347
615.09        39.65851
615.52         40.0706
615.96        40.51224
616.39        40.57727
616.82        40.97762
617.25        41.25002
617.68        41.37507
618.11         41.6378
618.54        41.97589
618.97        42.29675
619.40        42.51838
619.84        42.90866
620.27        42.99697
620.70         43.0037
621.13        42.79776
621.56        43.25359
621.99        43.34057
622.42        43.36226
622.85        43.38253
623.28        43.71582
623.71         43.7921
624.14        43.36322
624.57        43.72054
625.00        43.85057
625.43        43.47795
625.86        43.42501
626.29         43.5261
626.72        43.16154
627.15        43.13046
627.58        42.93296
628.01         42.8876
628.44         42.4687
628.87        42.28323
629.30        42.37083
629.73        41.93978
630.16        41.24469
630.59        41.12033
631.02        40.72085
631.45        40.35706
631.88        40.01439
632.31        39.71785
632.74        39.26782
633.17        39.02758
633.60         38.6418
634.03        38.21398
634.46        37.75446
634.89          37.276
635.32        36.78224
635.75        36.28318
636.18        35.80992
636.61        35.36946
637.04        34.92417
637.47        34.49405
637.89        34.17574
638.32        33.92801
638.75        33.62784
639.18        33.26552
639.61        32.90909
640.04        32.56921
640.47        32.24566
640.90         31.9489
641.33        31.66577
641.76        31.40989
642.18        31.28216
642.61        31.15959
643.04        31.12721
643.47        31.11955
643.90        31.08946
644.33        31.02338
644.76        30.93988
645.18        30.85652
645.61        30.79659
646.04        30.77601
646.47        30.79082
646.90        30.86166
647.33        31.01785
647.75        31.26368
648.18        31.59958
648.61        31.98765
649.04        32.36505
649.47        32.72783
649.89         33.0742
650.32        33.42934
650.75        33.93974
651.18         34.5752
651.61        35.02866
652.03        35.29083
652.46        35.81479
652.89        36.64867
653.32        37.00208
653.74        37.07984
654.17        38.24279
654.60        38.79829
655.03        38.84034
655.46        39.51534
655.88        40.54119
656.31        41.66234
656.74        43.16684
657.16        42.87548
657.59        43.02109
658.02        42.95792
658.45        43.35223
658.87        44.00149
659.30        44.23656
659.73        44.98731
660.15        44.50526
660.58        45.03917
661.01        45.47489
661.44         46.2968
661.86        46.70977
662.29        46.73538
662.72        47.00308
663.14        47.50919
663.57        47.83031
664.00        47.98452
664.42        48.22837
664.85        48.58389
665.27        48.97691
665.70        49.35813
666.13         49.6147
666.55        49.72708
666.98        49.81509
667.41        49.96767
667.83         49.9184
668.26        50.30986
668.69        50.61287
669.11        50.96418
669.54        51.24713
669.96        51.44141
670.39        51.59764
670.82        51.73069
671.24         51.7936
671.67        51.83438
672.09        52.02715
672.52        52.34388
672.94        52.50897
673.37        52.54768
673.80        52.70988
674.22        52.99037
674.65        53.16437
675.07        53.23491
675.50         53.2966
675.92        53.38818
676.35        53.51734
676.77        53.68748
677.20        53.92738
677.62        54.22583
678.05        54.42278
678.47        54.47235
678.90        54.90652
679.32        54.87388
679.75        55.05448
680.17        55.18666
680.60        55.44504
681.02        55.53312
681.45        55.63477
681.87        55.68302
682.30        55.68724
682.72        55.69037
683.15        55.75679
683.57        55.91164
684.00        56.09871
684.42        56.29816
684.85        56.50664
685.27        56.70138
685.70        56.87191
686.12        57.00531
686.54        57.11552
686.97        57.19193
687.39        57.23668
687.82        57.27459
688.24        57.24688
688.66        57.44557
689.09        57.57804
689.51        57.72807
689.94        57.95247
690.36        58.20564
690.78        58.27702
691.21        58.21395
691.63        58.27544
692.06        58.48494
692.48        58.70555
692.90        58.89917
693.33        59.04646
693.75        59.13613
694.17        59.21149
694.60        59.24402
695.02        59.34807
695.44        59.51286
695.87         59.7272
696.29        59.95615
696.71        60.14244
697.14        60.26031
697.56         60.3414
697.98         60.4049
698.41        60.52547
698.83        60.69838
699.25        60.91441
699.68        61.12262
700.10        61.29388
700.52        61.40517
700.94        61.47411
701.37        61.51078
701.79        61.56824
702.21        61.64996
702.64        61.73706
703.06        61.82377
703.48        61.97521
703.90        62.20485
704.33        62.28963
704.75        62.57111
705.17        62.70685
705.59         62.7943
706.01        62.81993
706.44        62.81242
706.86        62.93684
707.28        63.02869
707.70        63.18338
708.12         63.3444
708.55         63.5424
708.97         63.7401
709.39        63.84831
709.81          63.871
710.23        63.91373
710.66        63.98621
711.08        64.03996
711.50        64.07561
711.92        64.14906
712.34         64.2691
712.76         64.4205
713.19        64.58577
713.61         64.7759
714.03        64.96002
714.45          65.134
714.87        65.28883
715.29         65.4086
715.71        65.49445
716.13         65.5668
716.56        65.61263
716.98        65.66025
717.40        65.71124
717.82        65.80672
718.24         65.9577
718.66        66.15705
719.08        66.38063
719.50        66.58527
719.92        66.74747
720.34        66.85732
720.76        66.91628
721.19        66.93874
721.61        66.94463
722.03        66.91423
722.45        66.85722
722.87        66.79979
723.29        66.75809
723.71         66.7393
724.13          66.753
724.55        66.81227
724.97        66.91199
725.39        67.01318
725.81        67.10193
726.23        67.21906
726.65        67.39516
727.07        67.44505
727.49        67.74758
727.91        67.97673
728.33        68.18598
728.75        68.26838
729.17        68.20999
729.59        68.04646
730.01        67.84628
730.43        67.73176
730.85        67.73774
731.27         67.8278
731.69        67.98123
732.10        68.16515
732.52        68.34258
732.94        68.56856
733.36        68.81603
733.78         68.9186
734.20        68.84486
734.62        69.13081
735.04        68.72006
735.46        68.95164
735.88        69.38309
736.30        69.24277
736.72        68.65239
737.13        68.63882
737.55        69.15331
737.97        69.39684
738.39        69.31135
738.81        69.20189
739.23        69.16361
739.65        69.37277
740.06        69.70201
740.48        69.85478
740.90        69.79806
741.32        69.52454
741.74        69.56418
742.16        69.58337
742.57        69.74526
742.99        70.04929
743.41        70.39829
743.83        70.52963
744.25        70.43856
744.67        70.35128
745.08        70.34061
745.50        70.33086
745.92        70.35565
746.34         70.4779
746.75        70.63926
747.17         70.6917
747.59        70.61544
748.01        70.47287
748.42        70.32364
748.84        70.24059
749.26        70.26479
749.68        70.38523
750.09        70.55271
750.51        70.73446
750.93          70.871
751.35        70.87234
751.76        70.79253
752.18         70.8048
752.60        70.93408
753.01        71.09024
753.43        71.22559
753.85        71.33932
754.27        71.41916
754.68        71.47017
755.10        71.50965
755.52        71.56743
755.93        71.65514
756.35        71.74916
756.77        71.81399
757.18        71.94588
757.60        72.17416
758.02        72.17418
758.43        71.87859
758.85        72.57407
759.26        72.22202
759.68        72.03573
760.10        71.64635
760.51        71.07539
760.93        71.72807
761.34        71.85645
761.76        72.46728
762.18        72.63946
762.59        72.62004
763.01        72.43553
763.42        72.27409
763.84        72.44719
764.26        72.88156
764.67        73.00101
765.09        72.85185
765.50        72.78872
765.92        72.85284
766.33        72.96633
766.75         73.0045
767.16        72.79049
767.58        72.19937
768.00          72.224
768.41        72.78221
768.83        73.10564
769.24        73.09978
769.66        73.10738
770.07        73.14343
770.49        73.16425
770.90        73.21735
771.32        73.36855
771.73        73.56888
772.15        73.63134
772.56        73.55391
772.97          73.472
773.39        73.40894
773.80        73.33344
774.22        73.29127
774.63        73.54895
775.05        73.99861
775.46        74.30083
775.88        74.37011
776.29        74.42218
776.70        74.47034
777.12        74.47913
777.53         74.4777
777.95        74.43622
778.36        74.40365
778.77        74.42276
779.19        74.50893
779.60        74.73726
780.02        74.98804
780.43        75.01366
780.84          74.872
781.26        74.68462
781.67        74.60936
782.09        75.08982
782.50        75.82328
782.91        75.89371
783.33        74.98261
783.74        74.73775
784.15        75.10714
784.57        75.30337
784.98        75.27814
785.39        75.37202
785.81         75.5437
786.22        75.58186
786.63        75.50348
787.04        75.51115
787.46        75.62334
787.87        75.68559
788.28        75.69449
788.70         75.8344
789.11        75.78297
789.52        75.86378
789.93        75.94911
790.35         75.8315
790.76        75.59515
791.17        75.53132
791.58        75.67754
792.00        75.85926
792.41        76.04593
792.82        76.23052
793.23        76.38126
793.65         76.4235
794.06        76.41196
794.47        76.54763
794.88        76.80154
795.29        76.83522
795.71        76.78406
796.12        76.79971
796.53        76.89934
796.94        76.71958
797.35        76.35282
797.76         76.4021
798.18         76.8317
798.59        77.03005
799.00        76.96555
799.41        76.97265
799.82        77.05779
800.23        77.07903
800.64        77.03648
801.06        76.94524
801.47        76.86868
801.88        76.83337
802.29        76.85093
802.70        76.90308
803.11        76.97591
803.52        77.04821
803.93        77.12321
804.34         77.2131
804.75        77.30829
805.17        77.45341
805.58        77.69376
805.99        77.76863
806.40        77.72957
806.81        78.20101
807.22        78.90358
807.63        78.63046
808.04        77.58296
808.45        77.16486
808.86        77.51409
809.27        77.91963
809.68        78.19489
810.09        78.18539
810.50         77.9113
810.91        77.80441
811.32        77.90645
811.73        77.90385
812.14        77.80962
812.55        77.80163
812.96        77.89607
813.37        78.10009
813.78        78.34629
814.19        78.41035
814.60        78.31499
815.01        78.32015
815.42        78.44543
815.83        78.52923
816.24        78.57993
816.65        78.70084
817.05        78.89342
817.46        79.07847
817.87        79.24277
818.28        79.31505
818.69        79.28427
819.10         79.1834
819.51        79.04293
819.92        78.91811
820.33        78.84107
820.74        78.79667
821.14        78.80445
821.55        78.92854
821.96        79.14642
822.37         79.4426
822.78        79.73373
823.19        79.86509
823.60        79.79454
824.00          79.589
824.41         79.2831
824.82        79.03966
825.23        78.91212
825.64        78.86726
826.04        78.92651
826.45        79.07333
826.86        79.29897
827.27         79.6059
827.68        79.91695
828.08        80.13216
828.49        80.14817
828.90        80.01688
829.31        79.82266
829.72        79.72119
830.12        79.78239
830.53        79.92588
830.94        80.08549
831.35        80.10762
831.75        79.98151
832.16        79.70554
832.57        79.42012
832.97        79.32339
833.38        79.45033
833.79        79.73362
834.20        80.04289
834.60        80.18225
835.01        80.12106
835.42        79.91445
835.82        79.66853
836.23         79.4806
836.64        79.42828
837.04        79.49887
837.45        79.61058
837.86        79.73298
838.26        79.85735
838.67        79.98245
839.08        80.12568
839.48         80.2913
839.89        80.46935
840.29        80.63664
840.70        80.78061
841.11        80.89484
841.51        80.99516
841.92        81.05315
842.33        81.06497
842.73        81.01875
843.14         80.8722
843.54        80.66727
843.95        80.46841
844.35        80.40163
844.76         80.4757
845.17         80.6562
845.57        80.86044
845.98        80.90199
846.38        80.76723
846.79        80.49421
847.19        80.17528
847.60        79.90704
848.00        79.75821
848.41        79.65527
848.81        79.64951
849.22        79.74192
849.62        79.95228
850.03        80.25654
850.43        80.55975
850.84        80.61991
851.24        80.44276
851.65         80.0043
852.05        79.56001
852.46        79.45535
852.86        79.77192
853.27        80.40353
853.67        80.99394
854.07        81.26167
854.48        81.10854
854.88        80.66499
855.29        80.03956
855.69         79.6774
856.10        79.61919
856.50        79.83484
856.90        80.10385
857.31         80.1078
857.71        79.82195
858.12        79.30826
858.52        78.78451
858.92        78.46219
859.33        78.39377
859.73        78.54297
860.13         78.7904
860.54        78.95665
860.94        79.01008
861.34        78.96351
861.75        78.82915
862.15        78.68763
862.55        78.53798
862.96        78.37248
863.36        78.17492
863.76        77.91306
864.17        77.58903
864.57         77.2416
864.97        76.96078
865.38        76.85757
865.78        76.99529
866.18        77.31595
866.58        77.66734
866.99        77.79096
867.39        77.64947
867.79         77.2849
868.19        76.85801
868.60        76.57348
869.00        76.47504
869.40        76.53483
869.80        76.67061
870.21        76.73775
870.61        76.76527
871.01        76.74057
871.41        76.72095
871.81        76.78415
872.22        76.91425
872.62        77.10517
873.02         77.3125
873.42        77.44799
873.82        77.48442
874.22        77.46936
874.63        77.44601
875.03        77.43862
875.43        77.47411
875.83        77.52467
876.23        77.62702
876.63        77.84646
877.03        78.16582
877.44         78.5365
877.84        78.83702
878.24        78.83153
878.64        78.48522
879.04        77.90353
879.44        77.24434
879.84        76.71835
880.24        76.38725
880.64        76.20728
881.04        76.15791
881.44        76.19775
881.84        76.29733
882.24        76.45568
882.65        76.62756
883.05        76.83683
883.45        77.02036
883.85        77.16598
884.25        77.22539
884.65        77.14293
885.05        76.92477
885.45         76.5928
885.85        76.25616
886.25        76.10562
886.65        76.19073
887.05        76.46272
887.45        76.79262
887.85        76.97478
888.25        76.95586
888.65        76.78985
889.04        76.56808
889.44        76.48585
889.84        76.57296
890.24         76.7636
890.64        76.96694
891.04        77.04614
891.44        76.97373
891.84        76.81535
892.24        76.63349
892.64        76.51832
893.04        76.50287
893.44         76.5527
893.83        76.69173
894.23        76.89439
894.63        77.15723
895.03        77.46112
895.43         77.7341
895.83        77.85583
896.23        77.80858
896.63        77.64716
897.02        77.41968
897.42        77.24345
897.82        77.14644
898.22        77.11222
898.62        77.17925
899.01        77.41903
899.41        77.79898
899.81        78.29082
900.21        78.78984
900.61        79.12428
901.00          79.228
901.40        79.15146
901.80        78.93475
902.20        78.66714
902.59        78.40694
902.99        78.13403
903.39        77.89561
903.79        77.75077
904.18        77.71159
904.58        77.78562
904.98        77.93606
905.38        78.10679
905.77        78.26331
906.17        78.40916
906.57        78.53117
906.96        78.63774
907.36        78.69749
907.76        78.72694
908.15        78.71255
908.55        78.56122
908.95        78.30912
909.34        77.97064
909.74        77.69423
910.14        77.64523
910.53        77.85795
910.93        78.26139
911.33        78.71661
911.72        78.97859
912.12         78.9641
912.52        78.76673
912.91        78.47948
913.31        78.27863
913.70        78.20248
914.10        78.18451
914.49        78.23577
914.89        78.30547
915.29        78.39056
915.68        78.50296
916.08        78.60437
916.47        78.62331
916.87        78.56651
917.26        78.43338
917.66        78.28701
918.05        78.19336
918.45        78.16674
918.84        78.21827
919.24         78.2972
919.64        78.40315
920.03        78.54239
920.42        78.70582
920.82        78.88931
921.21        79.07856
921.61         79.2445
922.00        79.38092
922.40        79.48882
922.79        79.66582
923.19        79.87259
923.58         80.1216
923.98        80.25147
924.37        80.07062
924.77        79.55349
925.16        78.76486
925.55        77.95178
925.95        77.53654
926.34        77.63471
926.74        78.10941
927.13        78.74948
927.52        79.10142
927.92        79.07835
928.31        78.81473
928.70        78.48884
929.10        78.36584
929.49        78.51524
929.89        78.77927
930.28        79.16058
930.67        79.54606
931.07        79.84661
931.46        80.12273
931.85        80.22871
932.24        79.96729
932.64        79.35219
933.03        78.48439
933.42        77.61935
933.82        77.16511
934.21        77.23937
934.60        77.73426
934.99        78.49572
935.39        79.22546
935.78        79.82352
936.17        80.31767
936.56        80.68374
936.96        80.88065
937.35        80.96138
937.74        80.90348
938.13        80.72697
938.53        80.48373
938.92        80.20629
939.31        79.87537
939.70        79.61921
940.09        79.64397
940.49        79.93951
940.88        80.47102
941.27        80.95214
941.66        80.94086
942.05        80.38063
942.44        79.44897
942.84        78.45805
943.23        77.87411
943.62        77.87148
944.01        78.29285
944.40        79.02625
944.79        79.85123
945.18        80.59966
945.57        81.27655
945.97        81.70411
946.36        81.69778
946.75        81.22223
947.14        80.33899
947.53        79.24084
947.92        78.30632
948.31        77.70326
948.70        77.38454
949.09        77.31982
949.48        77.41901
949.87        77.61987
950.26        77.93772
950.65        78.29551
951.04        78.56126
951.43        78.69122
951.82        78.68575
952.21        78.55602
952.60        78.36484
952.99        78.14317
953.38        77.87463
953.77        77.61563
954.16        77.43828
954.55        77.36073
954.94        77.40002
955.33        77.45435
955.72        77.35099
956.11        77.04128
956.50         76.5229
956.89          76.003
957.28        75.83947
957.66        76.14211
958.05        76.83641
958.44        77.52029
958.83        77.53431
959.22        76.77991
959.61        75.44492
960.00        74.17589
960.39        74.00315
960.78        75.10587
961.16        77.16963
961.55        79.35097
961.94          80.284
962.33        79.59385
962.72        77.78514
963.11        75.57034
963.49        73.98361
963.88        73.33424
964.27        73.32006
964.66        73.78047
965.04        74.44995
965.43        75.07641
965.82            75.8
966.21        76.51138
966.60        77.03349
966.98        77.34304
967.37        77.36767
967.76         77.1955
968.15        77.03142
968.53        76.97076
968.92        76.98808
969.31        77.02452
969.69        76.95181
970.08        76.74871
970.47        76.48779
970.86        76.35246
971.24        76.65376
971.63         77.3515
972.02        78.29582
972.40        79.24614
972.79        79.76155
973.17        79.83877
973.56        79.52432
973.95        78.97978
974.33         78.4665
974.72        78.08041
975.11        77.75237
975.49         77.4408
975.88        77.09465
976.26        76.72916
976.65        76.41225
977.04        76.15274
977.42        75.91634
977.81        75.65807
978.19        75.34208
978.58        75.23338
978.96        75.73727
979.35        76.85342
979.74        78.46613
980.12        80.06779
980.51        80.63441
980.89        80.07005
981.28        78.52995
981.66        76.71504
982.05         75.9437
982.43        76.58353
982.82        78.18991
983.20        80.08005
983.59        81.01683
983.97        80.79118
984.35        79.74722
984.74        78.31955
985.12        77.27929
985.51        76.91775
985.89        77.00032
986.28        77.39236
986.66        77.99306
987.04        78.67881
987.43         79.4614
987.81        80.22202
988.20        80.61072
988.58        80.58495
988.96        80.20339
989.35        79.51168
989.73         78.7086
990.12        77.82218
990.50        76.78036
990.88        75.82474
991.27        75.49799
991.65        75.96241
992.03        77.08807
992.42        78.18906
992.80        78.64187
993.18        78.22989
993.56        77.00761
993.95        75.46241
994.33        74.76431
994.71        75.42565
995.10        76.90253
995.48        78.33822
995.86        78.75389
996.24        78.07092
996.63        76.47023
997.01        74.63409
997.39        73.97299
997.77        75.01674
998.15          77.263
998.54        79.60928
998.92        80.58311
999.30        79.89014
999.68        77.95525
1000.06        75.59841
1000.45        74.31433
1000.83        74.69162
1001.21        76.20588
1001.59        78.09111
1001.97        79.25112
1002.35        79.39236
1002.73        78.82604
1003.12        77.94425
1003.50          77.424
1003.88        77.57259
1004.26         78.0733
1004.64        78.58913
1005.02         78.7343
1005.40         78.4474
1005.78        77.91278
1006.16        77.28143
1006.54        76.80737
1006.92        76.60407
1007.30         76.5791
1007.69        76.76572
1008.07        77.07013
1008.45        77.50601
1008.83        78.10328
1009.21        78.68173
1009.59        78.99146
1009.97        78.96877
1010.35        78.56924
1010.73         78.0704
1011.11        78.14231
1011.49        79.01645
1011.86        80.58849
1012.24         82.0018
1012.62        82.34183
1013.00        81.53495
1013.38        79.92145
1013.76        78.27215
1014.14        77.88582
1014.52        79.12083
1014.90        81.59483
1015.28        84.64186
1015.66        86.86503
1016.04        87.63038
1016.41         87.3941
1016.79        86.29292
1017.17        84.93638
1017.55        83.61468
1017.93        82.24011
1018.31         81.0751
1018.69        80.53239
1019.06        80.76136
1019.44        81.75346
1019.82        83.32263
1020.20        84.88265
1020.58        85.99938
1020.95        86.51663
1021.33        86.54031
1021.71        86.23497
1022.09        85.62952
1022.46        84.65353
1022.84        83.13222
1023.22        80.61353
1023.60        77.04135
1023.97        72.41006
1024.35        67.65129
1024.73        64.59552
