SpectraSmart Spectrum 2.9.0.0
--------- Device Information -----------
Spectrum Name :  反射率_0
Saving Time :  2024/04/27 22:20:47
Spectro-Module Model Name : SE2030-DUVN
Spectro-Module Serial Number : OS361AC55029948
Wavelength Start : 200
Wavelength End : 1025
Wavelength Unit : Wavelength(nm)
Spectrum Unit : Reflectance(%)
-----------Spectrum Setting ------------
Integration Time : 20ms
Average : 10
Boxcar : 0
Background removal :  enabled
linearity correction :  enabled
SC :  disabled
Intensity correction :  disabled
DWT denoise :  enabled
savitzky-golay :  disabled
FFT :  disabled
Running average :  disabled
Kalman :  disabled
High pass :  disabled
---------------BEGIN--------------------
Wavelength(nm)             Reflectance(%)
200.29               0
200.75        87.94768
201.21         110.538
201.67        119.2802
202.13        113.2169
202.58         97.5767
203.04        76.90777
203.50        57.52477
203.96        49.71286
204.42        53.79869
204.88        63.72827
205.34        74.19685
205.80        81.30013
206.26        84.92322
206.72        86.32116
207.18        85.61069
207.64        83.67532
208.10        82.18805
208.55        81.65234
209.01        79.92532
209.47        75.29055
209.93        65.24387
210.39        40.14295
210.85        -33.6168
211.31       -116.9889
211.77       -5.947646
212.23        63.83017
212.69        87.54075
213.14        93.75457
213.60        91.27371
214.06        81.46287
214.52        62.47088
214.98        47.19491
215.44        51.27219
215.90        63.05205
216.36        73.33342
216.81        79.24872
217.27        82.13326
217.73         84.1339
218.19        85.14673
218.65         84.3649
219.11        81.80653
219.57        77.32754
220.02        72.41035
220.48        71.91112
220.94        76.61582
221.40        84.16313
221.86        91.56047
222.32        96.06252
222.77        97.62653
223.23        97.48452
223.69        96.48633
224.15        95.46056
224.61        94.57997
225.06        93.43508
225.52        92.19864
225.98        90.98628
226.44        90.02795
226.90        89.37874
227.36        88.92533
227.81        88.35875
228.27          87.737
228.73        86.98483
229.19        85.99779
229.65        84.71258
230.10        83.17817
230.56        81.74506
231.02        80.62411
231.48        80.17974
231.93        80.30495
232.39        80.95294
232.85        81.78257
233.31        82.44796
233.77        82.81654
234.22        82.97328
234.68        82.88097
235.14        82.47095
235.60        81.75905
236.05        80.75243
236.51        79.58233
236.97         78.7429
237.43        78.50833
237.88        78.98069
238.34        79.66608
238.80        80.41186
239.26        81.19908
239.71        82.33094
240.17        83.69607
240.63        84.85404
241.08        85.03987
241.54        84.09539
242.00        82.83377
242.46        81.41761
242.91        79.50089
243.37        75.95748
243.83        68.92535
244.28        58.81756
244.74        54.92231
245.20         60.1644
245.66        66.59269
246.11        69.72137
246.57        70.29159
247.03        69.56385
247.48        67.67686
247.94        66.58035
248.40        68.02976
248.85        70.36601
249.31        73.09751
249.77        76.17311
250.22        79.07536
250.68        81.48711
251.14        83.24197
251.59        84.28558
252.05        84.82617
252.51        84.73309
252.96        83.17392
253.42        79.83849
253.88        75.69163
254.33        72.41306
254.79        70.67369
255.25        69.52413
255.70        68.55675
256.16        68.26231
256.62        68.94277
257.07        70.91997
257.53        73.88872
257.99        76.74435
258.44        78.46841
258.90         78.7446
259.35        77.48804
259.81        75.70924
260.27        73.78692
260.72        72.21658
261.18           71.45
261.63        70.92564
262.09        70.64838
262.55        70.13824
263.00        69.28091
263.46        68.41341
263.91        67.59689
264.37        67.33864
264.83        67.53048
265.28        67.91442
265.74        68.29483
266.19        68.14308
266.65        67.51993
267.11        66.53016
267.56        65.39742
268.02        64.59227
268.47        64.15907
268.93        63.97859
269.38        63.84778
269.84        63.49857
270.30        62.85032
270.75        62.00854
271.21        61.06937
271.66        60.10609
272.12        59.19015
272.57        58.23148
273.03        57.32436
273.48         56.5102
273.94        55.85726
274.39        55.30606
274.85         54.7912
275.31        54.07751
275.76        53.11878
276.22        52.04741
276.67        50.98145
277.13        50.25259
277.58        49.81234
278.04        49.61025
278.49        49.37255
278.95        48.87286
279.40        47.99967
279.86         46.9459
280.31        45.82122
280.77        44.95292
281.22        44.34246
281.68        43.96021
282.13        43.64513
282.59          43.276
283.04        42.77655
283.50        42.22764
283.95        41.67133
284.41        41.24371
284.86        40.93528
285.32        40.72516
285.77        40.50652
286.22        40.19482
286.68        39.79408
287.13        39.30691
287.59        38.82795
288.04        38.39863
288.50        38.07938
288.95        37.81185
289.41        37.60889
289.86        37.42373
290.32        37.26744
290.77        37.12903
291.22        37.00985
291.68        36.89739
292.13        36.77887
292.59        36.68466
293.04        36.61825
293.50        36.62418
293.95        36.70172
294.40        36.84925
294.86        37.07771
295.31        37.39083
295.77        37.78592
296.22        38.23552
296.68        38.70665
297.13        39.11939
297.58        39.45993
298.04         39.7524
298.49        40.00837
298.95        40.27735
299.40        40.56651
299.85        40.86335
300.31        41.20643
300.76         41.6132
301.21        42.08346
301.67        42.61195
302.12        43.09504
302.58        43.43448
303.03        43.59317
303.48        43.62334
303.94        43.64448
304.39        43.78005
304.84        44.07349
305.30        44.48085
305.75         44.8835
306.20        45.15425
306.66        45.27634
307.11        45.26545
307.57        45.21209
308.02        45.17833
308.47        45.20403
308.93        45.26245
309.38        45.29946
309.83        45.27305
310.29        45.18473
310.74        45.04575
311.19        44.88531
311.65        44.73936
312.10        44.60189
312.55        44.46448
313.00        44.34254
313.46        44.26194
313.91        44.21294
314.36        44.19533
314.82        44.14852
315.27        43.97081
315.72        43.65313
316.18        43.23973
316.63        42.81929
317.08        42.55603
317.53        42.48524
317.99        42.55265
318.44        42.67544
318.89        42.70026
319.35        42.58233
319.80        42.36794
320.25        42.11052
320.70        41.90336
321.16        41.76577
321.61        41.67017
322.06        41.58221
322.51        41.45523
322.97        41.27071
323.42        41.06831
323.87        40.85097
324.32        40.62919
324.78        40.40702
325.23        40.18581
325.68        39.98809
326.13        39.86129
326.59        39.79677
327.04        39.80898
327.49        39.82208
327.94        39.72252
328.39        39.48485
328.85         39.1267
329.30        38.75455
329.75        38.52574
330.20        38.48705
330.66        38.58081
331.11        38.73075
331.56        38.74926
332.01        38.59074
332.46        38.31236
332.92        37.99026
333.37        37.80349
333.82        37.78724
334.27        37.87729
334.72        38.02338
335.17        38.14668
335.63        38.20016
336.08        38.23502
336.53        38.20188
336.98        38.03391
337.43        37.73719
337.88        37.33401
338.34        36.94017
338.79        36.75958
339.24        36.83721
339.69        37.12173
340.14        37.48686
340.59         37.7179
341.05        37.75076
341.50        37.64626
341.95        37.48087
342.40        37.39068
342.85        37.41136
343.30        37.48846
343.75        37.57047
344.20        37.58198
344.66        37.50666
345.11         37.3791
345.56        37.22806
346.01        37.08818
346.46        36.97816
346.91        36.88879
347.36        36.83506
347.81        36.83804
348.26        36.89821
348.72        37.01304
349.17        37.14497
349.62        37.23513
350.07        37.26289
350.52        37.22635
350.97        37.17173
351.42        37.17792
351.87        37.25514
352.32        37.38154
352.77        37.46749
353.22        37.37798
353.67        37.09838
354.13        36.69167
354.58        36.26591
355.03          36.044
355.48        36.07533
355.93        36.29637
356.38        36.56578
356.83        36.66082
357.28        36.52777
357.73        36.23401
358.18        35.89579
358.63        35.69526
359.08        35.67053
359.53         35.7509
359.98        35.83841
360.43        35.78574
360.88         35.5571
361.33        35.20707
361.78        34.79795
362.23        34.45565
362.68        34.22478
363.13        34.01627
363.58        33.79267
364.03         33.8008
364.48        33.53226
364.93        33.39331
365.38        33.24708
365.83        33.11703
366.28         32.9986
366.73        32.88809
367.18        32.76085
367.63        32.56969
368.08        32.31202
368.53        32.00449
368.98        31.69804
369.43        31.47306
369.88        31.34879
370.33        31.30437
370.78         31.2864
371.23        31.20712
371.68        31.03935
372.13        30.80137
372.58        30.54269
373.03        30.34398
373.48        30.22914
373.93        30.18379
374.38        30.14618
374.83        30.01921
375.28        29.78803
375.72        29.47154
376.17        29.19029
376.62        29.08751
377.07        29.17776
377.52        29.39233
377.97         29.6005
378.42        29.60158
378.87         29.3555
379.32        28.94302
379.77        28.45946
380.22         28.0463
380.67        27.74977
381.11        27.52723
381.56        27.37482
382.01        27.28657
382.46        27.24931
382.91        27.27316
383.36        27.30236
383.81        27.24292
384.26        27.07868
384.71        26.82944
385.15        26.55965
385.60         26.4125
386.05        26.40441
386.50        26.49732
386.95        26.61802
387.40        26.65127
387.85         26.5742
388.29        26.41308
388.74        26.25804
389.19        26.17552
389.64        26.17395
390.09        26.20863
390.54        26.24438
390.98        26.22381
391.43        26.14715
391.88        26.04347
392.33         25.8977
392.78        25.72792
393.23        25.55903
393.67        25.27769
394.12        24.97938
394.57        25.09676
395.02        25.19078
395.47        25.18731
395.91        24.98182
396.36        24.90331
396.81        24.96427
397.26        24.98047
397.71         24.9324
398.15         24.8875
398.60        24.87095
399.05        24.76168
399.50        24.62332
399.95        24.70571
400.39        24.93618
400.84        24.93473
401.29        24.68214
401.74        24.39467
402.18        24.14806
402.63        23.99727
403.08        23.95432
403.53        23.90187
403.97         23.8435
404.42         23.9031
404.87        24.03141
405.32        24.10023
405.76        24.08521
406.21        23.96378
406.66        23.80148
407.11        23.81716
407.55        23.96729
408.00        23.96973
408.45        23.80949
408.90        23.54872
409.34        23.29824
409.79        23.36374
410.24        23.66413
410.68        23.75762
411.13        23.60978
411.58        23.48715
412.03        23.43618
412.47        23.41377
412.92        23.42435
413.37        23.48376
413.81        23.55665
414.26        23.60941
414.71        23.62419
415.15        23.60947
415.60        23.57205
416.05        23.54046
416.49        23.52452
416.94        23.51276
417.39        23.48781
417.83        23.42477
418.28        23.31699
418.73        23.17081
419.17        23.03036
419.62        22.96665
420.07        23.00342
420.51        23.12841
420.96        23.27583
421.41        23.36887
421.85        23.38287
422.30        23.23324
422.74        23.03703
423.19        23.26239
423.64        23.81796
424.08        24.05261
424.53        23.86842
424.98        23.79016
425.42        23.84173
425.87        23.56821
426.31        23.09918
426.76        23.12422
427.21        23.52743
427.65        23.46211
428.10         23.0092
428.54        22.87418
428.99        23.07043
429.44        23.44073
429.88        23.77082
430.33        23.43508
430.77        22.68269
431.22        22.55043
431.66        23.02783
432.11        23.41145
432.56        23.58771
433.00        23.67606
433.45         23.4924
433.89        23.14123
434.34        22.98527
434.78        21.85244
435.23        22.55547
435.67        23.22975
436.12        23.59313
436.57        23.68658
437.01        23.35985
437.46        23.21221
437.90        23.37947
438.35         23.6888
438.79        23.36368
439.24        23.30293
439.68        23.30313
440.13        23.30203
440.57        23.28148
441.02        23.41316
441.46        23.62815
441.91        23.42863
442.35        22.97447
442.80        23.16931
443.24        23.83272
443.69        23.78388
444.13        23.09943
444.58        22.84685
445.02        23.04214
445.47        23.14142
445.91        23.08971
446.36        23.07822
446.80        23.09211
447.24        23.06877
447.69        23.03559
448.13        23.08903
448.58        23.20452
449.02        23.24024
449.47        23.20626
449.91        23.22316
450.36        23.29684
450.80        23.34639
451.25        23.36416
451.69        23.37275
452.13        23.36425
452.58        23.31128
453.02         23.2282
453.47         23.1518
453.91        23.08971
454.36        23.07265
454.80        23.05725
455.24        22.94549
455.69        22.78641
456.13        22.63272
456.58        22.55067
457.02        22.72252
457.46        23.01927
457.91        23.01817
458.35        22.82657
458.79        22.76026
459.24        22.85445
459.68        22.89338
460.13        22.88435
460.57         22.8057
461.01        22.76302
461.46        22.78268
461.90        22.74454
462.34        22.71078
462.79        23.03098
463.23         23.0801
463.68        22.99818
464.12        22.95096
464.56        22.97366
465.01        23.11214
465.45        23.24199
465.89        23.16536
466.34        22.95521
466.78        22.74854
467.22        22.57854
467.67        22.97646
468.11        22.92599
468.55        22.98487
468.99        22.87393
469.44        22.86786
469.88        22.96421
470.32        22.99242
470.77        22.95931
471.21         22.9509
471.65        22.97624
472.10        23.01502
472.54        23.04461
472.98        23.06636
473.42        23.08578
473.87        23.04342
474.31        22.97233
474.75        23.13461
475.20        23.45136
475.64        23.47236
476.08        23.22963
476.52        23.21819
476.97        23.47264
477.41        23.51332
477.85        23.52767
478.29        23.77516
478.74        23.64364
479.18        23.42813
479.62        23.76053
480.06        23.82693
480.50        23.88665
480.95        23.91418
481.39        23.87687
481.83        24.23523
482.27        24.26127
482.72        24.17221
483.16        24.49566
483.60        24.54949
484.04        24.52555
484.48        24.50004
484.93        24.70608
485.37        24.62159
485.81        25.29592
486.25        25.91504
486.69        25.52213
487.14        24.97243
487.58        25.66568
488.02        25.52657
488.46        25.62714
488.90        26.19518
489.34        25.68685
489.79        25.32454
490.23        25.72801
490.67        25.87213
491.11        26.03447
491.55        26.14855
491.99        26.24729
492.43        26.42598
492.88         26.6706
493.32        26.88406
493.76        27.04241
494.20        27.21887
494.64        27.42803
495.08        27.58002
495.52        27.68865
495.96        27.95467
496.41         28.3396
496.85        28.32834
497.29        28.04269
497.73        28.16503
498.17        28.63106
498.61        28.96983
499.05        29.05692
499.49        29.01024
499.93        28.91599
500.37        28.91024
500.82        29.01247
501.26        29.21944
501.70        29.54477
502.14        29.38214
502.58        29.76874
503.02        29.90851
503.46        29.97946
503.90        30.01995
504.34        30.01776
504.78          30.054
505.22        30.12457
505.66        30.15874
506.10        30.17051
506.54        30.26285
506.98        30.44656
507.42        30.54904
507.86        30.77848
508.30        30.89302
508.74        30.95132
509.18        30.95399
509.62        30.94144
510.06        30.97723
510.50        31.07182
510.94        31.20752
511.38        31.33649
511.82        31.38249
512.26        31.33206
512.70        31.21714
513.14        31.09192
513.58        31.02964
514.02        31.05158
514.46        31.15504
514.90        31.31193
515.34        31.36511
515.78        31.47494
516.22        31.50959
516.66        31.53304
517.10        31.55625
517.54        31.58496
517.98        31.60851
518.42        31.61794
518.86        31.60786
519.30        31.57807
519.74        31.53465
520.18         31.4901
520.62        31.46048
521.06        31.45097
521.50        31.46003
521.93        31.47787
522.37        31.47811
522.81        31.45838
523.25        31.42117
523.69        31.38277
524.13        31.36983
524.57        31.38418
525.01         31.4148
525.45        31.43442
525.89         31.3998
526.32        31.30221
526.76        31.17056
527.20          31.032
527.64        30.93421
528.08        30.88944
528.52        30.87614
528.96        30.88934
529.40        30.92075
529.83         30.9573
530.27        31.00672
530.71        31.02976
531.15        30.96646
531.59        30.81452
532.03        30.59646
532.46        30.37758
532.90        30.27885
533.34        30.32034
533.78        30.46298
534.22        30.64265
534.66         30.7605
535.09        30.78492
535.53        30.75176
535.97        30.68438
536.41        30.62609
536.85        30.59433
537.28        30.57807
537.72        30.57408
538.16        30.57486
538.60        30.58221
539.04        30.61159
539.47        30.66221
539.91        30.74719
540.35        30.85725
540.79        30.98938
541.22        31.12776
541.66        31.25118
542.10        31.35127
542.54        31.43425
542.97        31.50154
543.41        31.57549
543.85        31.65763
544.29        31.74599
544.72        31.84038
545.16        31.96047
545.60        32.09965
546.04        32.25467
546.47         32.4172
546.91        32.56864
547.35        32.70043
547.79        32.83161
548.22        32.95809
548.66         33.0629
549.10        33.16899
549.53        33.39289
549.97        33.70622
550.41        33.94589
550.84        34.09204
551.28        34.23328
551.72        34.37402
552.15        34.48116
552.59        34.56821
553.03        34.63538
553.46        34.69546
553.90        34.79492
554.34        34.93367
554.77        35.11267
555.21        35.29897
555.65        35.43917
556.08        35.48695
556.52        35.53952
556.96        35.60263
557.39        35.73559
557.83         35.9157
558.27        35.98357
558.70        35.95792
559.14        35.98429
559.57        36.07237
560.01        36.22342
560.45         36.3837
560.88        36.41476
561.32        36.38254
561.75        36.41782
562.19        36.55037
562.63        36.79274
563.06        37.05526
563.50        37.05244
563.93        36.83247
564.37        36.79747
564.80        36.95734
565.24        37.10928
565.68        37.22833
566.11        37.35604
566.55        37.49345
566.98        37.65326
567.42        37.82659
567.85        37.89321
568.29        37.92006
568.72        38.02705
569.16        38.22307
569.60         38.4475
570.03        38.70716
570.47        38.70123
570.90        38.92846
571.34        39.26934
571.77        39.46654
572.21        39.45641
572.64        39.95744
573.08        39.70988
573.51        39.88707
573.95        39.96173
574.38        40.20552
574.82        40.05307
575.25        40.51991
575.69        40.29214
576.12         40.0773
576.56        40.32413
576.99        40.49771
577.42        40.66945
577.86        40.78594
578.29        40.90479
578.73        41.11377
579.16        40.95639
579.60         40.4305
580.03        40.14559
580.47         40.2102
580.90        40.02724
581.33        40.24026
581.77        40.32184
582.20         40.2863
582.64        40.31322
583.07        40.04838
583.51        39.80678
583.94        39.65112
584.37        39.50634
584.81        39.38613
585.24        39.29746
585.68        39.32708
586.11        38.90956
586.54        39.12129
586.98        39.14016
587.41        39.04626
587.85        39.08825
588.28        38.73092
588.71        38.95591
589.15         39.0115
589.58        38.47214
590.01        38.84934
590.45        38.70188
590.88        38.30199
591.31        38.24912
591.75        38.43343
592.18        38.50217
592.61        38.57399
593.05        38.60929
593.48        39.16962
593.91        39.18292
594.35        38.93239
594.78        39.13715
595.21        39.16444
595.65        39.25294
596.08        39.12024
596.51        39.58247
596.94        39.38428
597.38        39.60891
597.81         39.9272
598.24        39.98891
598.68        40.31734
599.11        40.62662
599.54        41.31287
599.97        41.38778
600.41        41.86943
600.84        42.10388
601.27        42.37379
601.70        42.32882
602.14        42.33845
602.57        42.78861
603.00        43.26641
603.43        43.69989
603.87        43.83738
604.30        44.32704
604.73        44.53115
605.16        45.15697
605.60        45.39346
606.03        45.88507
606.46        46.39314
606.89        46.49732
607.32        46.86378
607.76        47.30105
608.19        47.34772
608.62         47.5633
609.05        47.83497
609.48        48.02882
609.92        48.08559
610.35        48.71597
610.78        49.13366
611.21        48.78086
611.64         49.3882
612.07        49.51625
612.50        49.75923
612.94        49.94904
613.37        50.11655
613.80        50.49195
614.23        50.76604
614.66        50.90617
615.09         50.8927
615.52        51.13186
615.96        51.59909
616.39        51.76632
616.82         51.9541
617.25        52.02588
617.68        52.33144
618.11        52.34097
618.54        52.22633
618.97        52.44653
619.40        52.92548
619.84         53.1307
620.27        53.23701
620.70         53.1428
621.13        52.90328
621.56        53.43843
621.99        53.47495
622.42        53.42269
622.85        53.35916
623.28        53.77177
623.71        53.84946
624.14        53.31145
624.57        53.73072
625.00        54.09411
625.43        53.68835
625.86        53.72317
626.29        53.81902
626.72        53.76756
627.15        53.68692
627.58         53.5059
628.01        53.30788
628.44        53.32532
628.87        52.79962
629.30        53.04074
629.73        52.73656
630.16        52.10629
630.59        52.20825
631.02        51.96127
631.45        51.75343
631.88        51.53791
632.31        51.33941
632.74        50.94007
633.17        50.73795
633.60        50.43071
634.03        50.13829
634.46         49.8485
634.89        49.56034
635.32        49.25561
635.75        48.92813
636.18        48.61294
636.61        48.30752
637.04         47.9489
637.47        47.56588
637.89        47.29549
638.32        47.09883
638.75         46.8364
639.18        46.50178
639.61        46.17437
640.04        45.87694
640.47        45.62083
640.90        45.41409
641.33        45.23533
641.76        45.05336
642.18        44.92853
642.61        44.67583
643.04        44.45224
643.47        44.24183
643.90        44.10442
644.33        44.05316
644.76        44.07136
645.18        44.13264
645.61        44.18755
646.04        44.21833
646.47         44.2296
646.90        44.24411
647.33        44.29544
647.75        44.40498
648.18        44.58796
648.61        44.79854
649.04        44.99312
649.47        45.18237
649.89         45.2645
650.32          45.346
650.75        45.91828
651.18         46.8352
651.61        47.25191
652.03         47.1353
652.46         47.2571
652.89        47.74528
653.32        47.90133
653.74        48.00773
654.17        48.98439
654.60        48.74549
655.03        49.10822
655.46        49.49017
655.88        49.82469
656.31        51.76862
656.74        54.56921
657.16        53.98188
657.59        53.66217
658.02        51.96793
658.45        52.02334
658.87        52.72023
659.30        52.59803
659.73        52.25183
660.15         52.3294
660.58        52.67714
661.01        53.17348
661.44        53.56281
661.86        53.76932
662.29        53.77694
662.72        53.72309
663.14          53.722
663.57        53.92139
664.00        54.28631
664.42        54.52563
664.85        54.62908
665.27        54.79367
665.70         55.0241
666.13        55.22786
666.55        55.40467
666.98        55.57563
667.41        55.75129
667.83          55.937
668.26        56.11269
668.69        56.31558
669.11        56.54337
669.54        56.66026
669.96        56.64098
670.39        56.99501
670.82        56.90881
671.24        57.04377
671.67        57.17736
672.09        57.43184
672.52        57.75966
672.94        57.92949
673.37        57.97175
673.80        58.09106
674.22        58.30564
674.65         58.4469
675.07        58.52753
675.50        58.62431
675.92        58.74275
676.35        58.84158
676.77        58.92754
677.20        59.01564
677.62        59.11805
678.05        59.23722
678.47        59.37402
678.90        59.53091
679.32        59.70391
679.75        59.90093
680.17        60.11804
680.60        60.35572
681.02        60.57661
681.45        60.73396
681.87         60.8348
682.30        60.79353
682.72        60.69474
683.15        60.89539
683.57        61.32513
684.00        61.39414
684.42        61.16117
684.85        61.20587
685.27        61.54061
685.70        61.84234
686.12        62.03622
686.54        62.19257
686.97        62.28203
687.39        62.24544
687.82        62.15135
688.24        62.11729
688.66        62.41432
689.09        62.47128
689.51        62.40583
689.94        62.46848
690.36        62.67281
690.78         62.8594
691.21        62.99316
691.63        63.08519
692.06        63.13116
692.48        63.13146
692.90        63.13106
693.33        63.16742
693.75        63.25539
694.17        63.43461
694.60        63.68436
695.02        63.75276
695.44        64.00412
695.87        64.11111
696.29        64.21117
696.71        64.38313
697.14        64.59542
697.56        64.72057
697.98        64.74157
698.41          64.811
698.83        64.91628
699.25        64.99252
699.68        65.04305
700.10        65.16268
700.52        65.34767
700.94        65.57481
701.37        65.76585
701.79        65.87321
702.21        65.87302
702.64        65.72125
703.06        65.47514
703.48        65.68024
703.90         65.6779
704.33        65.97674
704.75        66.30212
705.17        66.53603
705.59        66.63617
706.01        66.62534
706.44        66.57177
706.86        66.69756
707.28        66.84317
707.70         67.0849
708.12        67.31892
708.55        67.51511
708.97        67.62533
709.39        67.57869
709.81        67.43511
710.23         67.4017
710.66        67.51269
711.08        67.68209
711.50        67.85781
711.92        68.01643
712.34        68.14069
712.76        68.23891
713.19        68.30634
713.61        68.37987
714.03        68.44633
714.45        68.49814
714.87        68.54332
715.29        68.59557
715.71        68.65886
716.13        68.73837
716.56        68.80955
716.98        68.88863
717.40        68.95029
717.82        69.02206
718.24        69.12996
718.66        69.19464
719.08        69.41072
719.50        69.60459
719.92        69.80273
720.34        69.95245
720.76        70.04055
721.19        70.07021
721.61         70.0685
722.03        70.05475
722.45        70.04121
722.87         70.0251
723.29        70.01952
723.71        70.04049
724.13        70.09119
724.55        70.18813
724.97        70.34509
725.39        70.43962
725.81        70.43481
726.23        70.59646
726.65        71.01376
727.07        70.47125
727.49        71.14026
727.91        71.25999
728.33        71.41911
728.75        71.46881
729.17        71.40886
729.59        71.25685
730.01        71.06202
730.43        70.96679
730.85         70.9988
731.27        71.11298
731.69        71.28607
732.10        71.48262
732.52         71.6629
732.94        71.88431
733.36        72.11012
733.78        72.16129
734.20        72.01154
734.62        72.20848
735.04        71.67163
735.46        71.88723
735.88        72.36939
736.30         72.1778
736.72        71.46817
737.13        71.44057
737.55        72.06602
737.97        72.51794
738.39        72.65173
738.81        72.58183
739.23        72.38634
739.65        72.42696
740.06        72.66251
740.48        72.73088
740.90        72.60126
741.32        72.62347
741.74        72.70187
742.16        72.79543
742.57        72.86965
742.99        72.95952
743.41        73.04872
743.83         73.0856
744.25        73.06538
744.67        72.98793
745.08        72.92024
745.50        72.93835
745.92         73.0726
746.34        73.29184
746.75        73.51344
747.17        73.61929
747.59        73.59057
748.01        73.41145
748.42        73.17784
748.84         73.1918
749.26        73.43195
749.68         73.4896
750.09        73.36539
750.51        73.47056
750.93        73.72886
751.35        73.71574
751.76        73.48904
752.18        73.35155
752.60        73.48965
753.01        73.58349
753.43        73.64205
753.85         73.7109
754.27        73.78217
754.68        73.88114
755.10        73.99548
755.52        74.03546
755.93        74.03558
756.35        74.14275
756.77        74.30891
757.18        74.48801
757.60        74.84716
758.02        74.85979
758.43        74.39101
758.85         75.4406
759.26         75.5291
759.68        73.98936
760.10        75.14897
760.51        74.23086
760.93        74.96375
761.34         74.8895
761.76        75.29294
762.18        75.38389
762.59         75.4244
763.01        74.97734
763.42        75.02587
763.84        75.29299
764.26        75.89354
764.67         75.8846
765.09        75.39328
765.50        75.41515
765.92        75.93211
766.33        75.95925
766.75        75.35364
767.16        75.60764
767.58        75.20743
768.00        75.06142
768.41        74.84693
768.83          75.119
769.24        75.71567
769.66        75.93475
770.07        75.82491
770.49        75.71616
770.90        76.35143
771.32        76.37769
771.73        76.07639
772.15        75.92635
772.56        75.97389
772.97        76.05522
773.39        76.09234
773.80        75.98119
774.22        75.76102
774.63        75.83807
775.05        76.17196
775.46        76.38199
775.88        76.40823
776.29        76.50957
776.70        76.67173
777.12        76.77702
777.53         76.8325
777.95         76.8317
778.36        76.81892
778.77        76.83179
779.19        76.89301
779.60         77.0626
780.02        77.24243
780.43        77.26987
780.84        77.18874
781.26        77.00348
781.67        76.89419
782.09        77.42283
782.50        78.27735
782.91        78.51343
783.33         77.6868
783.74         77.4305
784.15        77.65037
784.57        77.62896
784.98        77.42944
785.39        77.32095
785.81        77.71001
786.22        77.99673
786.63        78.21416
787.04        78.36589
787.46        78.43651
787.87        78.37366
788.28        78.23859
788.70        78.16653
789.11          78.176
789.52        78.22311
789.93        78.29205
790.35        78.43015
790.76        78.60169
791.17        78.56413
791.58        78.40331
792.00        78.43118
792.41        78.62981
792.82        78.88733
793.23        79.10856
793.65        78.78628
794.06        78.21049
794.47        78.67238
794.88         79.8929
795.29        80.32454
795.71        79.91758
796.12        79.55595
796.53         79.3705
796.94        79.02915
797.35        78.65886
797.76        78.70227
798.18        79.08431
798.59        79.29298
799.00        79.27863
799.41        79.28025
799.82        79.33425
800.23        79.40582
800.64        79.50074
801.06        79.58868
801.47        79.66107
801.88        79.63371
802.29        79.49503
802.70        79.26432
803.11        79.02251
803.52        78.90447
803.93        78.96162
804.34         79.1703
804.75        79.44488
805.17        79.69945
805.58         79.9397
805.99        79.93346
806.40        79.79019
806.81        80.25352
807.22        81.05782
807.63        80.90789
808.04        79.96851
808.45        79.64723
808.86        80.06709
809.27        80.43507
809.68        80.60088
810.09         80.6685
810.50        80.59318
810.91        80.36126
811.32        80.07925
811.73        79.93715
812.14        79.99182
812.55        80.14968
812.96        80.36263
813.37        80.65658
813.78        80.92997
814.19        80.93641
814.60        80.73616
815.01        80.65476
815.42        80.72668
815.83        80.77898
816.24        80.78322
816.65         80.7808
817.05        80.77145
817.46        80.71027
817.87        80.66808
818.28        80.68998
818.69        80.78909
819.10        80.96511
819.51        81.15851
819.92        81.28086
820.33        81.30908
820.74        81.18977
821.14        81.02427
821.55        81.17646
821.96        81.58379
822.37        81.81739
822.78        81.80609
823.19        81.78385
823.60         81.7425
824.00        81.53422
824.41        81.18692
824.82        80.95676
825.23        80.89848
825.64        80.95339
826.04        81.13042
826.45        81.39516
826.86        81.72262
827.27        82.09957
827.68        82.46272
828.08        82.73577
828.49        82.81844
828.90        82.77497
829.31        82.61946
829.72        82.39102
830.12        82.15281
830.53        81.85686
830.94        81.61411
831.35        81.56251
831.75        81.75129
832.16        82.09568
832.57        82.49588
832.97        82.72248
833.38        82.70133
833.79        82.51407
834.20        82.25471
834.60        82.06686
835.01         82.0092
835.42        82.01751
835.82        82.12257
836.23        82.28809
836.64        82.52004
837.04        82.85534
837.45        83.14681
837.86         83.2536
838.26        83.16253
838.67        82.88917
839.08        82.59627
839.48        82.54316
839.89        82.78204
840.29        83.22729
840.70        83.72369
841.11        84.02499
841.51        84.08329
841.92         83.9408
842.33        83.69881
842.73        83.51947
843.14        83.41359
843.54        83.36782
843.95        83.37041
844.35        83.43292
844.76        83.52967
845.17         83.6622
845.57        83.80838
845.98        83.87589
846.38        83.86919
846.79        83.78153
847.19        83.63642
847.60        83.41727
848.00        83.17284
848.41        82.88442
848.81        82.65668
849.22        82.57388
849.62        82.69141
850.03        82.95274
850.43        83.29594
850.84        83.52653
851.24        83.65133
851.65        83.64745
852.05        83.63509
852.46        83.69675
852.86        83.84942
853.27        84.05326
853.67        84.18204
854.07        84.27219
854.48        84.26999
854.88        84.24497
855.29         84.0664
855.69        83.73476
856.10        83.17313
856.50        82.50389
856.90        81.86963
857.31         81.5318
857.71         81.5909
858.12        81.91241
858.52        82.36536
858.92        82.59045
859.33        82.46475
859.73        82.12543
860.13        81.64632
860.54        81.20443
860.94        80.92818
861.34        80.72816
861.75        80.59021
862.15        80.55521
862.55        80.58295
862.96        80.69134
863.36        80.80208
863.76        80.75517
864.17        80.50764
864.57        80.10084
864.97        79.65904
865.38        79.36948
865.78        79.32554
866.18        79.46111
866.58        79.61586
866.99        79.51872
867.39         79.1521
867.79         78.5909
868.19        78.04549
868.60        77.77751
869.00        77.83501
869.40        78.16573
869.80        78.63017
870.21        78.96939
870.61        79.16061
871.01        79.20712
871.41        79.19174
871.81        79.24339
872.22        79.36329
872.62        79.52554
873.02        79.69632
873.42        79.81114
873.82        79.84682
874.22        79.85475
874.63        79.84585
875.03        79.78603
875.43        79.69457
875.83         79.5595
876.23        79.46782
876.63        79.56635
877.03        79.86911
877.44        80.32411
877.84        80.75593
878.24         80.8335
878.64        80.49924
879.04          79.872
879.44        79.20354
879.84        78.84805
880.24        78.87354
880.64        79.17844
881.04        79.58264
881.44        79.77268
881.84        79.65228
882.24        79.31062
882.65        78.87564
883.05        78.67014
883.45         78.7315
883.85         78.9687
884.25        79.24127
884.65        79.34879
885.05        79.24589
885.45        78.99736
885.85        78.71971
886.25        78.60825
886.65        78.71316
887.05        78.96558
887.45        79.23486
887.85        79.32675
888.25        79.19507
888.65        78.90108
889.04        78.55212
889.44        78.36438
889.84        78.37607
890.24        78.51864
890.64        78.69418
891.04        78.75047
891.44         78.6545
891.84        78.47905
892.24        78.28461
892.64        78.15536
893.04        78.13174
893.44        78.19054
893.83        78.36897
894.23        78.66399
894.63        79.07349
895.03        79.55585
895.43        80.04164
895.83        80.41421
896.23        80.63348
896.63        80.73818
897.02        80.70673
897.42        80.56212
897.82         80.3242
898.22        80.01044
898.62        79.75142
899.01        79.77657
899.41        80.09915
899.81        80.65289
900.21        81.26288
900.61         81.6348
901.00        81.66348
901.40          81.437
901.80        81.04035
902.20        80.62736
902.59        80.28311
902.99        79.97787
903.39        79.73186
903.79        79.56491
904.18        79.48264
904.58        79.50197
904.98        79.64763
905.38        79.95319
905.77        80.39034
906.17        80.93279
906.57        81.44475
906.96         81.7322
907.36        81.70309
907.76        81.41051
908.15         80.9983
908.55        80.64051
908.95        80.44648
909.34        80.37439
909.74        80.37663
910.14        80.30462
910.53        80.13493
910.93        79.89365
911.33        79.70567
911.72        79.76416
912.12         80.0681
912.52        80.53831
912.91        80.95573
913.31         81.0677
913.70        80.82764
914.10        80.30352
914.49        79.72005
914.89        79.41074
915.29         79.5085
915.68         79.9045
916.08        80.40883
916.47        80.71619
916.87        80.75467
917.26        80.59518
917.66        80.36629
918.05        80.22646
918.45        80.21729
918.84        80.31186
919.24        80.40665
919.64        80.42957
920.03        80.38241
920.42        80.30067
920.82        80.26609
921.21        80.38434
921.61        80.65797
922.00        81.05555
922.40        81.50574
922.79        81.97335
923.19        82.37022
923.58         82.7325
923.98        82.95368
924.37        82.94243
924.77        82.68065
925.16        82.16677
925.55        81.58053
925.95        81.23514
926.34        81.21655
926.74        81.45333
927.13         81.7342
927.52        81.59716
927.92        81.00455
928.31        80.12068
928.70        79.28688
929.10        79.01226
929.49        79.39805
929.89        80.21101
930.28        81.25251
930.67        82.03272
931.07        82.34629
931.46        82.36884
931.85        82.08984
932.24        81.54268
932.64        80.81638
933.03        79.91518
933.42         79.1161
933.82        78.87044
934.21        79.26855
934.60        80.20403
934.99        81.34959
935.39        82.09795
935.78        82.30276
936.17        82.09251
936.56        81.68607
936.96        81.47933
937.35        81.64218
937.74        81.98899
938.13        82.38423
938.53        82.65189
938.92         82.7385
939.31        82.71028
939.70        82.60691
940.09        82.47434
940.49        82.31958
940.88        82.16953
941.27        81.99981
941.66        81.78387
942.05        81.53532
942.44        81.29276
942.84        81.13397
943.23        81.12789
943.62        81.30244
944.01        81.59818
944.40        81.95482
944.79        82.26161
945.18        82.45539
945.57        82.56116
945.97        82.48763
946.36        82.17163
946.75        81.60447
947.14        80.81578
947.53        80.02045
947.92        79.60203
948.31        79.65592
948.70        80.07899
949.09        80.61679
949.48        80.84947
949.87        80.68194
950.26        80.25929
950.65        79.76038
951.04        79.47363
951.43         79.4871
951.82        79.68905
952.21        80.03082
952.60         80.4327
952.99         80.8286
953.38        81.24173
953.77         81.5741
954.16        81.67262
954.55        81.52155
954.94         81.1462
955.33        80.69689
955.72        80.44469
956.11        80.45535
956.50        80.66019
956.89        80.91189
957.28        80.92798
957.66        80.67161
958.05        80.25241
958.44        79.79138
958.83        79.46629
959.22        79.32777
959.61        79.25205
960.00         79.3177
960.39        79.66046
960.78        80.24557
961.16        81.08167
961.55        81.70431
961.94        81.44035
962.33        80.19999
962.72        78.26711
963.11        76.30651
963.49        75.28549
963.88        75.41999
964.27        76.45683
964.66        77.93954
965.04        79.02867
965.43        79.32883
965.82        79.11691
966.21        78.70539
966.60        78.59303
966.98        78.92875
967.37        79.48147
967.76        80.06368
968.15         80.3368
968.53        80.19977
968.92        79.79271
969.31        79.29529
969.69        78.92421
970.08        78.75715
970.47        78.76511
970.86        78.95176
971.24        79.34302
971.63        79.83701
972.02        80.39396
972.40        81.01291
972.79        81.57735
973.17        82.13164
973.56        82.63042
973.95        82.96633
974.33        82.92289
974.72        82.45245
975.11        81.61065
975.49        80.68221
975.88        80.17188
976.26        80.24411
976.65        80.79116
977.04        81.48981
977.42        81.74368
977.81        81.32199
978.19        80.35549
978.58        79.35307
978.96        79.17287
979.35        79.98512
979.74        81.56113
980.12        83.25573
980.51        83.81094
980.89        83.07207
981.28         81.3037
981.66        79.30306
982.05        78.53279
982.43        79.38844
982.82        81.29858
983.20        83.53674
983.59        84.82983
983.97        84.93176
984.35        84.22318
984.74        82.95432
985.12        81.59453
985.51        80.43552
985.89        79.37473
986.28        78.70255
986.66        78.92007
987.04        79.98905
987.43        81.74257
987.81        83.66025
988.20        84.65327
988.58        84.47897
988.96        83.44727
989.35        81.93008
989.73        80.64778
990.12        79.78391
990.50          79.067
990.88          78.713
991.27        79.15185
991.65        80.35121
992.03        82.17255
992.42        83.64567
992.80        83.75376
993.18        82.26057
993.56        79.23353
993.95        75.54916
994.33        73.63872
994.71         74.5647
995.10        77.26055
995.48         80.2011
995.86        81.75149
996.24         81.7606
996.63        80.66173
997.01        79.02841
997.39        78.00074
997.77        78.10764
998.15        78.90874
998.54        79.85667
998.92        80.25773
999.30        79.92471
999.68        79.13612
1000.06        78.16225
1000.45        77.40115
1000.83        77.12353
1001.21        77.15757
1001.59        77.35494
1001.97        77.50023
1002.35        77.54654
1002.73        77.61591
1003.12        77.78483
1003.50        78.03769
1003.88        78.38285
1004.26        78.68642
1004.64        79.00852
1005.02        79.49112
1005.40        80.14697
1005.78        80.99265
1006.16        81.71203
1006.54        81.73158
1006.92        80.95252
1007.30        79.55035
1007.69        78.18912
1008.07          77.859
1008.45        78.82578
1008.83        80.71346
1009.21         82.7677
1009.59         83.9202
1009.97        83.87229
1010.35        82.80334
1010.73        81.05113
1011.11        79.60938
1011.49        79.05276
1011.86        79.23172
1012.24        79.60512
1012.62        79.61111
1013.00        79.13622
1013.38         78.4974
1013.76        77.93306
1014.14         77.7808
1014.52        78.16933
1014.90        78.92507
1015.28        80.06516
1015.66        81.58485
1016.04        83.31671
1016.41        85.27103
1016.79        86.82129
1017.17        87.48692
1017.55        87.23386
1017.93        86.20232
1018.31        85.01236
1018.69        84.66615
1019.06        85.45794
1019.44        87.16558
1019.82        89.10094
1020.20        89.78659
1020.58        88.71275
1020.95        86.32608
1021.33        83.57621
1021.71        81.51408
1022.09        80.29504
1022.46        79.61443
1022.84        78.93941
1023.22        77.16933
1023.60        74.00798
1023.97        69.57359
1024.35        65.08025
1024.73        62.92332
