SpectraSmart Spectrum 2.9.0.0
--------- Device Information -----------
Spectrum Name :  反射率_0
Saving Time :  2024/04/27 22:38:12
Spectro-Module Model Name : SE2030-DUVN
Spectro-Module Serial Number : OS361AC55029948
Wavelength Start : 200
Wavelength End : 1025
Wavelength Unit : Wavelength(nm)
Spectrum Unit : Reflectance(%)
-----------Spectrum Setting ------------
Integration Time : 20ms
Average : 10
Boxcar : 0
Background removal :  enabled
linearity correction :  enabled
SC :  disabled
Intensity correction :  disabled
DWT denoise :  enabled
savitzky-golay :  disabled
FFT :  disabled
Running average :  disabled
Kalman :  disabled
High pass :  disabled
---------------BEGIN--------------------
Wavelength(nm)             Reflectance(%)
200.29               0
200.75        12.07344
201.21        44.10764
201.67         66.4016
202.13        74.32613
202.58        73.47131
203.04        68.00835
203.50        62.46137
203.96        63.02564
204.42        69.25685
204.88        77.49492
205.34         84.5744
205.80        88.00266
206.26        87.50619
206.72        83.05545
207.18        73.35751
207.64           62.26
208.10        57.45642
208.55        59.03457
209.01        60.32364
209.47        57.44731
209.93        48.25224
210.39        24.00157
210.85       -45.99642
211.31       -112.3043
211.77        3.471173
212.23        68.11415
212.69        88.99907
213.14        95.07546
213.60        94.36051
214.06        88.33373
214.52        75.11115
214.98        61.73287
215.44        60.09236
215.90        64.65755
216.36        69.89239
216.81        73.46529
217.27        75.66164
217.73        77.92027
218.19        79.35832
218.65        77.95764
219.11        73.32885
219.57        65.46717
220.02        56.58048
220.48        53.74559
220.94        58.54256
221.40        67.57948
221.86        76.67354
222.32        81.84054
222.77        83.04501
223.23        82.16805
223.69        80.12817
224.15        77.62763
224.61        74.96241
225.06        71.68894
225.52         68.9448
225.98         68.6106
226.44        70.49355
226.90        73.18379
227.36         75.4415
227.81        76.28062
228.27        75.89085
228.73        74.61401
229.19        72.46169
229.65        69.66513
230.10        66.60567
230.56        63.67841
231.02        61.44398
231.48        60.69349
231.93        61.28881
232.39        62.94968
232.85        64.99818
233.31        66.54591
233.77        67.35003
234.22        67.71466
234.68        67.61763
235.14        67.06896
235.60         66.1433
236.05        64.72287
236.51        63.26852
236.97        62.92025
237.43        64.04723
237.88        66.45857
238.34        68.93782
238.80        70.44202
239.26        70.67789
239.71        69.64532
240.17        66.80972
240.63        63.37421
241.08        61.84485
241.54        61.97342
242.00        62.57296
242.46        62.40264
242.91        61.08748
243.37        57.93187
243.83        51.54021
244.28        43.73844
244.74        43.93786
245.20        51.79204
245.66        57.68042
246.11        57.33719
246.57        51.05819
247.03        38.11474
247.48        18.09645
247.94        4.425568
248.40        11.11537
248.85         29.8063
249.31        49.78476
249.77        62.80073
250.22        68.80918
250.68        71.18577
251.14        71.35522
251.59        70.24266
252.05        68.13961
252.51        63.76976
252.96        57.36745
253.42        53.86737
253.88        55.64627
254.33         60.7403
254.79        64.81596
255.25        64.54395
255.70        61.06079
256.16        56.77796
256.62        54.02198
257.07        55.19796
257.53        59.43289
257.99        64.28133
258.44        67.84692
258.90        69.01904
259.35         67.8969
259.81        65.93007
260.27        63.70826
260.72        61.92171
261.18        61.03587
261.63        60.42576
262.09        60.17076
262.55        59.97902
263.00        59.69076
263.46        59.52801
263.91        59.31808
264.37        59.18153
264.83        59.03147
265.28        58.81562
265.74        58.58762
266.19        58.18058
266.65        57.68585
267.11        57.08623
267.56        56.46714
268.02        56.07659
268.47        55.88922
268.93        55.84187
269.38         55.7756
269.84        55.48195
270.30        54.89854
270.75        54.09793
271.21        53.15602
271.66          52.131
272.12        51.10734
272.57        50.04611
273.03        49.06585
273.48        48.24745
273.94        47.65809
274.39        47.20692
274.85        46.85359
275.31        46.42046
275.76        45.83895
276.22        45.20152
276.67         44.4827
277.13         43.7882
277.58        43.08052
278.04        42.40536
278.49        41.71091
278.95        41.07056
279.40        40.43036
279.86        39.85733
280.31         39.3048
280.77        38.84897
281.22        38.43677
281.68        38.10884
282.13        37.78577
282.59        37.44065
283.04        37.03078
283.50        36.58921
283.95        36.13916
284.41        35.78211
284.86        35.50878
285.32        35.31923
285.77        35.12286
286.22        34.84193
286.68        34.48086
287.13        34.03304
287.59        33.60104
288.04        33.24891
288.50        33.03001
288.95        32.88645
289.41        32.78088
289.86        32.59871
290.32        32.34567
290.77        32.04302
291.22        31.76798
291.68        31.62393
292.13        31.61981
292.59        31.74238
293.04        31.92131
293.50           32.08
293.95        32.18822
294.40        32.28111
294.86        32.42005
295.31        32.68986
295.77         33.1115
296.22        33.63288
296.68         34.1939
297.13        34.67479
297.58        35.05007
298.04        35.35841
298.49        35.63366
298.95        35.94942
299.40        36.32035
299.85        36.72229
300.31        37.17009
300.76        37.64767
301.21        38.14551
301.67        38.66435
302.12        39.13017
302.58        39.48247
303.03         39.6925
303.48        39.79725
303.94        39.88054
304.39        40.01731
304.84        40.24461
305.30        40.53958
305.75        40.82574
306.20        41.03376
306.66        41.15596
307.11        41.18587
307.57         41.1852
308.02          41.175
308.47        41.18498
308.93        41.21081
309.38        41.20293
309.83        41.11975
310.29        40.96958
310.74        40.75904
311.19        40.55472
311.65        40.45481
312.10        40.45606
312.55        40.52649
313.00        40.60569
313.46        40.60201
313.91        40.48489
314.36        40.29024
314.82        40.03358
315.27        39.73876
315.72        39.42976
316.18        39.11119
316.63        38.81776
317.08        38.62634
317.53        38.54726
317.99         38.5579
318.44        38.60308
318.89        38.57117
319.35        38.43368
319.80        38.22198
320.25        37.98256
320.70        37.80098
321.16        37.69188
321.61        37.62958
322.06        37.58101
322.51        37.49893
322.97        37.36222
323.42        37.20555
323.87        37.02089
324.32        36.80186
324.78        36.55231
325.23        36.28092
325.68        36.02719
326.13        35.86596
326.59        35.79755
327.04        35.82549
327.49        35.87182
327.94        35.81627
328.39         35.6274
328.85        35.32803
329.30        35.00037
329.75        34.76706
330.20        34.66899
330.66        34.65677
331.11        34.69281
331.56        34.65907
332.01        34.52546
332.46        34.33184
332.92        34.11277
333.37        33.96466
333.82        33.90389
334.27        33.89577
334.72        33.92661
335.17        33.97874
335.63        34.02551
336.08        34.09024
336.53        34.12079
336.98        34.04423
337.43        33.85486
337.88        33.58009
338.34        33.29081
338.79        33.11517
339.24        33.08678
339.69        33.16969
340.14        33.31758
340.59        33.44956
341.05        33.53233
341.50        33.59315
341.95        33.61625
342.40        33.58711
342.85        33.50957
343.30        33.37852
343.75        33.23896
344.20        33.16895
344.66        33.18978
345.11        33.28539
345.56        33.39661
346.01        33.42078
346.46        33.33861
346.91        33.18073
347.36        33.02856
347.81        33.00611
348.26        33.13487
348.72        33.37244
349.17        33.62313
349.62        33.73706
350.07        33.67801
350.52        33.48919
350.97        33.26585
351.42        33.16178
351.87        33.20921
352.32        33.35225
352.77        33.49734
353.22        33.50446
353.67        33.34333
354.13        33.08031
354.58        32.76198
355.03        32.51198
355.48        32.36938
355.93        32.30146
356.38        32.27018
356.83        32.21702
357.28        32.12174
357.73        32.00306
358.18        31.87874
358.63        31.77294
359.08         31.6885
359.53         31.6105
359.98        31.51727
360.43        31.38007
360.88        31.19604
361.33        30.97652
361.78        30.73803
362.23        30.54001
362.68        30.39909
363.13        30.23771
363.58        30.03195
364.03        30.06508
364.48        29.80779
364.93        29.68332
365.38        29.52775
365.83        29.33938
366.28        29.11679
366.73        28.87274
367.18        28.63216
367.63        28.42206
368.08        28.25299
368.53        28.11711
368.98        28.00691
369.43        27.90718
369.88        27.81052
370.33        27.72121
370.78        27.62714
371.23        27.51112
371.68        27.36654
372.13        27.18715
372.58          26.997
373.03        26.83773
373.48         26.7197
373.93        26.64285
374.38         26.5583
374.83        26.38565
375.28        26.11755
375.72        25.77083
376.17        25.45861
376.62        25.31496
377.07        25.35562
377.52         25.5181
377.97        25.69086
378.42        25.70075
378.87        25.50998
379.32        25.18779
379.77        24.80248
380.22        24.45495
380.67        24.18341
381.11        23.95765
381.56        23.79482
382.01        23.72429
382.46        23.74018
382.91        23.83564
383.36        23.94174
383.81        23.94585
384.26        23.82394
384.71        23.60286
385.15        23.33986
385.60        23.16543
386.05        23.09878
386.50        23.10679
386.95        23.14206
387.40        23.12951
387.85        23.05463
388.29        22.93637
388.74        22.83284
389.19        22.77081
389.64        22.75267
390.09        22.74761
390.54        22.74633
390.98         22.7345
391.43        22.71459
391.88         22.6938
392.33        22.63215
392.78        22.50874
393.23        22.33947
393.67        22.04157
394.12        21.71658
394.57        21.76175
395.02        21.80564
395.47        21.78326
395.91        21.60534
396.36        21.55761
396.81        21.64662
397.26        21.70353
397.71        21.71445
398.15        21.74259
398.60        21.80402
399.05        21.79067
399.50        21.72359
399.95        21.77359
400.39        21.87403
400.84        21.70752
401.29        21.32471
401.74        21.02489
402.18         20.8997
402.63        20.96542
403.08        21.16332
403.53         21.2715
403.97         21.2565
404.42        21.25994
404.87        21.28581
405.32         21.2977
405.76         21.2932
406.21        21.22271
406.66        21.11448
407.11        21.11794
407.55        21.18455
408.00        21.09047
408.45        20.84326
408.90        20.52792
409.34        20.25757
409.79        20.28839
410.24        20.55937
410.68        20.70409
411.13        20.68639
411.58        20.72888
412.03        20.83499
412.47        20.89852
412.92        20.90307
413.37        20.88216
413.81         20.8402
414.26        20.80252
414.71        20.77086
415.15         20.7409
415.60        20.71094
416.05        20.68985
416.49        20.68079
416.94        20.68113
417.39        20.67882
417.83        20.65516
418.28        20.60049
418.73        20.51031
419.17          20.413
419.62        20.35832
420.07        20.36405
420.51        20.42722
420.96        20.49125
421.41        20.49118
421.85        20.41307
422.30        20.18833
422.74         19.9399
423.19        20.09955
423.64        20.59211
424.08        20.85181
424.53        20.76456
424.98        20.73981
425.42        20.78482
425.87        20.50949
426.31        20.05845
426.76        20.08451
427.21        20.49809
427.65        20.54973
428.10        20.25659
428.54        20.16246
428.99        20.27365
429.44        20.48358
429.88        20.66396
430.33        20.36368
430.77        19.80597
431.22        19.85223
431.66        20.46284
432.11         20.9376
432.56        21.14203
433.00        21.26015
433.45        21.11983
433.89        20.66372
434.34        20.30352
434.78        19.30749
435.23        20.11874
435.67        20.79565
436.12        21.06164
436.57         21.1317
437.01        20.88002
437.46        20.76992
437.90        20.92141
438.35        21.19303
438.79        20.89032
439.24        20.82086
439.68        20.80648
440.13        20.79472
440.57        20.76221
441.02         20.8618
441.46        21.03584
441.91        20.81325
442.35        20.36892
442.80        20.60614
443.24        21.34068
443.69        21.36366
444.13        20.72558
444.58        20.48925
445.02        20.66755
445.47        20.70793
445.91          20.578
446.36        20.51446
446.80        20.51363
447.24         20.5003
447.69        20.49846
448.13         20.5937
448.58        20.75858
449.02        20.86974
449.47        20.91149
449.91        20.95341
450.36        20.99586
450.80        20.97554
451.25        20.92224
451.69        20.91648
452.13         20.9609
452.58        21.00986
453.02        21.03601
453.47        21.00785
453.91        20.91839
454.36        20.82152
454.80        20.70666
455.24        20.53202
455.69        20.35833
456.13        20.21637
456.58        20.16394
457.02        20.36298
457.46        20.69121
457.91         20.7669
458.35        20.66172
458.79        20.62458
459.24        20.68417
459.68        20.65705
460.13        20.57444
460.57        20.45638
461.01        20.40828
461.46        20.44136
461.90        20.43779
462.34        20.43578
462.79        20.74191
463.23        20.79934
463.68        20.72887
464.12        20.67255
464.56        20.66307
465.01        20.74496
465.45        20.81586
465.89        20.71437
466.34        20.50924
466.78         20.3185
467.22        20.16824
467.67        20.52557
468.11        20.48066
468.55        20.53604
468.99        20.44005
469.44        20.43482
469.88        20.51716
470.32        20.53138
470.77        20.49417
471.21        20.49958
471.65        20.55785
472.10        20.64761
472.54        20.72301
472.98        20.74595
473.42        20.71635
473.87        20.59223
474.31        20.44359
474.75        20.56579
475.20         20.8986
475.64        21.02142
476.08        20.90866
476.52        20.92736
476.97        21.09466
477.41        21.00252
477.85        20.87125
478.29        21.01421
478.74         20.9115
479.18        20.79595
479.62        21.18388
480.06         21.2832
480.50        21.30723
480.95        21.25616
481.39        21.13448
481.83         21.4021
482.27        21.42539
482.72        21.37166
483.16         21.6885
483.60         21.7445
484.04        21.69769
484.48        21.65479
484.93        21.83456
485.37        21.73416
485.81         22.2262
486.25        22.91431
486.69        22.29412
487.14        21.86407
487.58        22.79217
488.02        22.91923
488.46        22.71417
488.90        22.96716
489.34        22.57624
489.79        22.26857
490.23        22.66985
490.67        22.97546
491.11        23.33232
491.55        23.34109
491.99        23.09164
492.43        23.09927
492.88        23.38667
493.32        23.61526
493.76        23.74104
494.20        23.91917
494.64        24.15852
495.08        24.33641
495.52        24.46118
495.96        24.76263
496.41        25.19177
496.85        25.13537
497.29        24.74869
497.73        24.87975
498.17        25.45088
498.61        25.78101
499.05        25.76464
499.49        25.72118
499.93        25.73074
500.37        25.79848
500.82        25.92488
501.26        26.12925
501.70        26.42061
502.14        26.25372
502.58         26.5688
503.02        26.67488
503.46        26.73839
503.90        26.79102
504.34        26.81971
504.78        26.89072
505.22         26.9958
505.66         27.0706
506.10        27.12217
506.54         27.2355
506.98        27.41548
507.42         27.5041
507.86        27.68819
508.30        27.74989
508.74        27.74763
509.18         27.6934
509.62        27.62552
510.06        27.60243
510.50        27.63992
510.94        27.72154
511.38        27.83252
511.82        27.94814
512.26          28.054
512.70        28.15627
513.14        28.24183
513.58        28.27787
514.02         28.2611
514.46         28.2208
514.90        28.18439
515.34        28.09909
515.78        28.13977
516.22        28.16578
516.66        28.21954
517.10        28.28536
517.54        28.35411
517.98        28.42309
518.42        28.47569
518.86        28.48959
519.30        28.46101
519.74        28.39926
520.18         28.3182
520.62        28.23986
521.06        28.17707
521.50        28.13067
521.93        28.11133
522.37        28.12479
522.81        28.17069
523.25        28.23682
523.69        28.31034
524.13        28.37163
524.57        28.40853
525.01         28.4222
525.45        28.39423
525.89        28.29836
526.32         28.1352
526.76        27.92888
527.20        27.72008
527.64        27.57713
528.08         27.5171
528.52        27.51896
528.96        27.55754
529.40        27.58934
529.83        27.59531
530.27        27.59072
530.71        27.56376
531.15        27.49878
531.59        27.39846
532.03         27.2655
532.46        27.12993
532.90        27.05712
533.34        27.05482
533.78        27.10573
534.22        27.17243
534.66        27.19507
535.09        27.15771
535.53        27.08721
535.97        27.00548
536.41        26.95186
536.85         26.9401
537.28        26.95961
537.72        27.00355
538.16        27.05729
538.60        27.11573
539.04        27.18866
539.47        27.26782
539.91        27.35624
540.35        27.44566
540.79        27.53786
541.22        27.62693
541.66        27.70752
542.10         27.7783
542.54        27.84339
542.97        27.90708
543.41        27.99162
543.85        28.09808
544.29        28.22561
544.72        28.36352
545.16        28.51373
545.60        28.66512
546.04        28.81346
546.47        28.96556
546.91        29.12881
547.35        29.29764
547.79        29.48126
548.22        29.64805
548.66        29.74084
549.10        29.77699
549.53        29.88027
549.97        30.06362
550.41        30.24286
550.84        30.41751
551.28        30.64951
551.72        30.91211
552.15        31.12529
552.59        31.28293
553.03        31.39374
553.46        31.48612
553.90        31.62998
554.34        31.82979
554.77        32.07505
555.21        32.31137
555.65        32.45326
556.08        32.45521
556.52        32.42477
556.96          32.402
557.39        32.49297
557.83          32.689
558.27        32.82231
558.70         32.8841
559.14        32.98207
559.57        33.10197
560.01         33.2183
560.45        33.30649
560.88         33.3051
561.32          33.283
561.75        33.34593
562.19        33.50484
562.63        33.71661
563.06         33.9154
563.50        33.93995
563.93        33.82409
564.37        33.84007
564.80         33.9926
565.24        34.14636
565.68        34.28522
566.11        34.43504
566.55        34.59818
566.98        34.79044
567.42        34.99155
567.85        35.07405
568.29        35.09829
568.72        35.17033
569.16        35.30664
569.60        35.53117
570.03        35.86912
570.47        35.90671
570.90        36.04179
571.34        36.69666
571.77        36.63901
572.21         36.5561
572.64        36.86767
573.08        36.70353
573.51        37.12589
573.95          37.193
574.38        37.10704
574.82        37.35452
575.25         37.3819
575.69        37.30613
576.12        37.21275
576.56         37.7024
576.99        37.71676
577.42        37.62951
577.86        37.79771
578.29         37.9677
578.73        37.57407
579.16        37.48717
579.60        37.40176
580.03        37.32611
580.47        37.27562
580.90        37.05622
581.33        37.15836
581.77        37.34023
582.20        36.83443
582.64        36.50557
583.07        36.64357
583.51        36.53975
583.94        36.43914
584.37         36.3357
584.81        36.26362
585.24        36.09638
585.68        35.95696
586.11        35.79846
586.54        35.96403
586.98        35.89909
587.41        36.09392
587.85        35.52131
588.28        35.52993
588.71        35.39023
589.15        35.69656
589.58        35.12303
590.01        35.47269
590.45        35.65363
590.88        35.22362
591.31        35.08011
591.75        35.22012
592.18        35.23552
592.61         35.1926
593.05        35.76274
593.48        35.83611
593.91        35.61575
594.35        35.67177
594.78        35.94624
595.21         36.0446
595.65         36.1681
596.08        36.12455
596.51        36.47279
596.94        36.41898
597.38        36.71525
597.81        37.20665
598.24        36.98559
598.68        37.47485
599.11         37.9158
599.54        38.16832
599.97        38.14373
600.41        38.94259
600.84        39.30167
601.27        39.56974
601.70        39.80757
602.14        40.00806
602.57        40.63745
603.00        41.16817
603.43        41.61282
603.87        42.06853
604.30        42.21745
604.73        42.41687
605.16        43.27178
605.60         43.5895
606.03        44.11251
606.46        44.42612
606.89        44.88078
607.32        45.19913
607.76        46.03743
608.19        45.99736
608.62        46.29441
609.05         46.6389
609.48        47.01526
609.92        47.30266
610.35        48.18759
610.78        47.99604
611.21        48.17679
611.64        48.78426
612.07        49.02391
612.50        49.07026
612.94        49.28074
613.37         49.7354
613.80          49.956
614.23        50.41055
614.66         50.7589
615.09        51.07647
615.52        51.34965
615.96        51.64876
616.39        51.51096
616.82        51.84696
617.25        52.36775
617.68        52.42246
618.11        52.67526
618.54        52.83128
618.97        53.12916
619.40        53.45496
619.84        53.92401
620.27        53.93306
620.70        53.96778
621.13        53.86246
621.56        54.25304
621.99        54.32125
622.42        54.36166
622.85        54.32498
623.28        54.61679
623.71        54.50868
624.14         54.3095
624.57        54.64561
625.00        54.65062
625.43          54.564
625.86        54.50504
626.29        54.49683
626.72        54.31221
627.15        54.16785
627.58        53.99124
628.01        53.91057
628.44         53.4582
628.87        53.42981
629.30        53.46337
629.73        52.81061
630.16        52.65117
630.59        52.22819
631.02        51.98707
631.45        51.73834
631.88        51.47313
632.31         51.2025
632.74        50.70301
633.17        50.48593
633.60        50.11085
634.03        49.72396
634.46        49.32103
634.89        48.90703
635.32        48.47135
635.75         48.0143
636.18        47.57756
636.61        47.15247
637.04        46.66697
637.47        46.15121
637.89        45.74057
638.32        45.42934
638.75        45.13546
639.18        44.85785
639.61        44.65369
640.04        44.48404
640.47        44.26292
640.90        43.97733
641.33        43.63531
641.76         43.2677
642.18        43.03504
642.61        42.78825
643.04        42.64504
643.47        42.54931
643.90        42.49079
644.33        42.46103
644.76          42.471
645.18         42.5103
645.61        42.55028
646.04        42.58807
646.47        42.62614
646.90        42.69684
647.33        42.84866
647.75         43.0995
648.18        43.45634
648.61        43.86398
649.04        44.23734
649.47        44.56404
649.89        44.81822
650.32         45.0845
650.75        45.61115
651.18        46.33288
651.61         46.9274
652.03        47.26838
652.46        47.42928
652.89        47.62587
653.32        47.79379
653.74        48.13152
654.17        49.54407
654.60        49.50533
655.03        49.67128
655.46        50.26914
655.88        51.43914
656.31        52.39733
656.74        53.63072
657.16        53.43501
657.59        53.79764
658.02         53.1012
658.45        53.94464
658.87         54.2913
659.30        54.35995
659.73        54.69167
660.15        54.59365
660.58        55.09799
661.01        55.62066
661.44        56.26172
661.86        56.52377
662.29        56.45063
662.72        56.45918
663.14        56.66775
663.57        57.10241
664.00        57.65998
664.42        57.98877
664.85        58.06435
665.27        58.12146
665.70         58.2221
666.13        58.35276
666.55        58.53929
666.98        58.78278
667.41        59.06182
667.83        59.33167
668.26        59.56546
668.69        59.78231
669.11        59.97416
669.54        60.13379
669.96        60.27827
670.39         60.3657
670.82        60.43198
671.24        60.65728
671.67        61.01315
672.09        61.16314
672.52        61.15638
672.94        61.42384
673.37        61.88047
673.80         61.9333
674.22        61.65332
674.65        61.59661
675.07        61.82512
675.50        62.02727
675.92        62.17603
676.35        62.34148
676.77        62.51023
677.20        62.68973
677.62         62.9052
678.05        63.09259
678.47         63.2308
678.90        63.66092
679.32        63.77101
679.75        64.00815
680.17        64.18913
680.60        64.34325
681.02        64.45676
681.45        64.51939
681.87        64.55859
682.30        64.51026
682.72        64.44008
683.15        64.59988
683.57         64.9416
684.00        65.03867
684.42        64.94492
684.85        65.07513
685.27        65.42725
685.70        65.81722
686.12        66.14152
686.54        66.27034
686.97        66.23381
687.39         66.2824
687.82        66.42727
688.24        66.56066
688.66        66.62453
689.09        66.67307
689.51        66.71767
689.94        66.79654
690.36        66.92255
690.78        67.01245
691.21        67.08333
691.63        67.25855
692.06        67.50219
692.48        67.61643
692.90        67.61062
693.33        67.64484
693.75        67.73185
694.17        67.78625
694.60         67.8036
695.02        67.85963
695.44        67.95822
695.87        68.06089
696.29        68.17088
696.71        68.41524
697.14        68.76751
697.56        68.96528
697.98        68.94691
698.41        69.50192
698.83        69.46339
699.25        69.68621
699.68        69.81069
700.10        69.93188
700.52        70.03638
700.94        70.12885
701.37        70.19435
701.79        70.21369
702.21        70.17466
702.64        70.10364
703.06        70.04627
703.48        70.09208
703.90        70.26148
704.33        70.52232
704.75        70.81046
705.17        70.99551
705.59        71.04356
706.01         70.9641
706.44         70.8376
706.86        70.91914
707.28        71.03828
707.70         71.3272
708.12         71.6447
708.55        71.78214
708.97        71.73824
709.39         71.7366
709.81         71.8037
710.23        71.82809
710.66        71.82257
711.08         71.8856
711.50        72.00002
711.92        72.11858
712.34        72.23753
712.76        72.37096
713.19        72.50712
713.61        72.67164
714.03        72.83758
714.45         72.9912
714.87        73.12369
715.29        73.22666
715.71        73.29881
716.13        73.35023
716.56        73.36832
716.98        73.38395
717.40        73.37952
717.82        73.41236
718.24        73.52274
718.66        73.50081
719.08        73.77969
719.50        73.99226
719.92        74.22929
720.34        74.41888
720.76        74.54332
721.19        74.60502
721.61        74.62127
722.03        74.60345
722.45        74.56233
722.87        74.49419
723.29        74.43231
723.71        74.42902
724.13        74.49816
724.55        74.63761
724.97        74.80093
725.39        74.90571
725.81        74.93335
726.23        74.90185
726.65        74.87369
727.07        74.95243
727.49        75.15451
727.91        75.44034
728.33        75.72718
728.75         75.8782
729.17        75.85946
729.59         75.7198
730.01        75.53012
730.43        75.40679
730.85        75.38634
731.27        75.42881
731.69        75.52348
732.10        75.65649
732.52        75.79922
732.94        76.01028
733.36        76.24409
733.78        76.34677
734.20        76.29336
734.62         76.5568
735.04        75.96361
735.46        76.52251
735.88        76.95265
736.30        76.86655
736.72        76.16969
737.13         76.1097
737.55        76.65556
737.97        76.94436
738.39        76.88924
738.81        76.74509
739.23        76.59795
739.65        76.63164
740.06        76.89774
740.48        76.97874
740.90        76.86753
741.32        76.88209
741.74        76.93225
742.16        77.02638
742.57        77.13552
742.99        77.27715
743.41        77.43233
743.83        77.54763
744.25         77.6147
744.67        77.63642
745.08        77.66541
745.50        77.74611
745.92        77.90021
746.34        78.10458
746.75        78.29761
747.17        78.37038
747.59        78.30241
748.01        78.14511
748.42        77.97382
748.84        77.84566
749.26        77.80425
749.68        77.96025
750.09        78.24821
750.51        78.26629
750.93        78.00151
751.35        78.04119
751.76         78.4526
752.18        77.75117
752.60        78.09443
753.01        77.90604
753.43         77.8568
753.85        77.88549
754.27        78.00404
754.68        78.32021
755.10        78.58777
755.52        78.71902
755.93        78.96195
756.35        79.06805
756.77        79.10753
757.18         79.2113
757.60        79.48165
758.02        79.39536
758.43        78.90422
758.85        79.70085
759.26        80.54417
759.68        79.13289
760.10        78.91107
760.51        78.51256
760.93        78.83035
761.34        79.37064
761.76         79.4632
762.18        79.50777
762.59        79.40466
763.01        79.48994
763.42        79.82467
763.84        79.96976
764.26        79.95831
764.67        80.04823
765.09        80.25182
765.50        80.32874
765.92        80.31385
766.33        80.15684
766.75        80.30295
767.16        80.03336
767.58        79.59894
768.00        79.80182
768.41        80.53211
768.83         80.7506
769.24        80.47338
769.66        80.22905
770.07        80.12505
770.49        80.19848
770.90         80.4407
771.32        80.60893
771.73        80.64837
772.15        80.69189
772.56        80.74437
772.97        80.63271
773.39        80.41132
773.80        80.45837
774.22        80.72718
774.63        80.92211
775.05        80.97474
775.46        81.09888
775.88        81.24872
776.29        81.33908
776.70        81.36043
777.12         81.3831
777.53        81.43386
777.95        81.45107
778.36        81.48485
778.77        81.58257
779.19        81.75115
779.60         82.0406
780.02        82.32182
780.43        82.35974
780.84        82.17037
781.26        81.86224
781.67        81.63755
782.09         81.8658
782.50        82.27394
782.91        82.69353
783.33        81.66283
783.74        81.49311
784.15        81.75095
784.57        81.97987
784.98        82.22043
785.39        81.84953
785.81        82.60548
786.22        82.72373
786.63        82.72848
787.04        82.79929
787.46        82.96359
787.87        83.06646
788.28        83.08649
788.70        83.10706
789.11        83.11443
789.52        83.04073
789.93        82.94399
790.35        83.05354
790.76        83.31354
791.17        83.34216
791.58        83.17438
792.00        83.05067
792.41        82.97913
792.82        83.34463
793.23        83.19978
793.65        83.23504
794.06        83.25257
794.47        83.61674
794.88         84.1928
795.29        84.36531
795.71        84.33737
796.12        84.20741
796.53        84.09344
796.94        83.93234
797.35         83.7798
797.76        83.76688
798.18        83.89859
798.59        84.02334
799.00        84.12933
799.41         84.3037
799.82        84.47943
800.23        84.51353
800.64        84.38446
801.06        84.10104
801.47         83.8137
801.88        83.68829
802.29        83.77439
802.70        84.02654
803.11        84.33408
803.52        84.50714
803.93        84.49704
804.34        84.35646
804.75        84.19103
805.17        84.19212
805.58        84.44185
805.99        84.76469
806.40        85.06609
806.81        85.38901
807.22        85.57871
807.63         85.2566
808.04        84.59769
808.45        84.30157
808.86        84.47697
809.27          84.777
809.68        85.06203
810.09        85.22303
810.50        85.19388
810.91        85.01753
811.32        84.79528
811.73        84.68155
812.14        84.72271
812.55        84.89306
812.96          85.128
813.37        85.25288
813.78        85.26013
814.19        85.33413
814.60         85.4677
815.01        85.52534
815.42        85.51114
815.83        85.49123
816.24        85.50401
816.65        85.58482
817.05        85.74277
817.46        85.92221
817.87        86.08328
818.28        86.10374
818.69        85.96435
819.10        85.70796
819.51        85.40753
819.92        85.20045
820.33        85.13992
820.74        85.18217
821.14        85.29797
821.55        85.47506
821.96        85.67179
822.37         85.9005
822.78        86.10293
823.19        86.17061
823.60        86.08188
824.00        85.88516
824.41          85.622
824.82        85.47635
825.23        85.49363
825.64        85.63202
826.04        85.86066
826.45        86.06855
826.86        86.22986
827.27        86.37608
827.68        86.49106
828.08        86.57899
828.49        86.57344
828.90        86.51125
829.31        86.44928
829.72        86.49436
830.12        86.69161
830.53        86.95029
830.94        87.22382
831.35         87.3896
831.75        87.43404
832.16        87.33549
832.57        87.14281
832.97        86.90503
833.38        86.65128
833.79        86.39433
834.20         86.1793
834.60         86.0609
835.01        86.06092
835.42        86.15988
835.82        86.34573
836.23        86.49075
836.64        86.59174
837.04        86.69572
837.45        86.75506
837.86        86.81123
838.26        86.88386
838.67        86.92495
839.08        86.97945
839.48        87.10674
839.89          87.304
840.29        87.55769
840.70        87.77837
841.11        87.82721
841.51        87.69912
841.92        87.39404
842.33         87.0454
842.73        86.86889
843.14        86.87329
843.54        87.04886
843.95        87.27295
844.35        87.37044
844.76        87.28103
845.17        87.05143
845.57        86.81988
845.98         86.7666
846.38        86.95763
846.79        87.29754
847.19        87.63294
847.60        87.64899
848.00        87.31418
848.41        86.70357
848.81        86.05988
849.22        85.68952
849.62         85.7284
850.03        86.06084
850.43        86.56027
850.84        86.93067
851.24        87.14338
851.65         87.1977
852.05        87.26052
852.46        87.46907
852.86        87.83871
853.27        88.29489
853.67        88.61107
854.07        88.71881
854.48        88.55421
854.88        88.21045
855.29        87.68758
855.69        87.24826
856.10        86.88558
856.50         86.6643
856.90        86.51585
857.31        86.35544
857.71        86.21427
858.12        86.06802
858.52         86.0139
858.92        86.06611
859.33        86.19678
859.73        86.41836
860.13        86.62434
860.54        86.67206
860.94        86.56242
861.34        86.28912
861.75        85.90247
862.15        85.54345
862.55        85.23739
862.96        84.99345
863.36        84.77602
863.76         84.5023
864.17        84.15663
864.57        83.77084
864.97        83.48916
865.38        83.50861
865.78        83.90504
866.18        84.60727
866.58        85.30508
866.99        85.46874
867.39        85.01334
867.79        84.05299
868.19        83.03128
868.60        82.57305
869.00        82.80105
869.40        83.58388
869.80         84.5248
870.21          84.887
870.61        84.54686
871.01        83.69639
871.41        82.76308
871.81        82.34164
872.22         82.5297
872.62        83.17238
873.02        84.00835
873.42        84.54264
873.82        84.59885
874.22        84.36042
874.63        84.03536
875.03        83.86787
875.43          83.947
875.83        84.16365
876.23        84.46862
876.63          84.797
877.03        85.10185
877.44        85.39915
877.84        85.64503
878.24        85.71275
878.64        85.58148
879.04        85.27887
879.44        84.91628
879.84        84.65729
880.24        84.53546
880.64         84.5209
881.04        84.52906
881.44         84.4099
881.84         84.1293
882.24        83.73186
882.65        83.31402
883.05        83.14275
883.45        83.23208
883.85        83.52583
884.25        83.86891
884.65        84.03102
885.05        83.96822
885.45        83.74125
885.85        83.51334
886.25        83.56609
886.65        83.95057
887.05        84.54997
887.45        85.15034
887.85         85.4371
888.25        85.33458
888.65        84.94036
889.04        84.40664
889.44        84.02266
889.84        83.86932
890.24        83.87601
890.64        83.95249
891.04        83.95471
891.44        83.84745
891.84        83.69519
892.24        83.56467
892.64        83.54562
893.04         83.6588
893.44         83.8623
893.83        84.12137
894.23        84.32259
894.63        84.45414
895.03        84.52486
895.43        84.56229
895.83        84.61105
896.23         84.6843
896.63         84.7757
897.02        84.82912
897.42        84.81413
897.82        84.71619
898.22        84.56487
898.62        84.44576
899.01         84.5114
899.41        84.76171
899.81        85.15189
900.21        85.57026
900.61        85.83626
901.00        85.88103
901.40        85.76299
901.80        85.54018
902.20        85.31807
902.59        85.15633
902.99        85.03275
903.39        84.94446
903.79        84.87188
904.18         84.8111
904.58        84.78698
904.98        84.84779
905.38        85.07382
905.77        85.44414
906.17        85.91491
906.57        86.35265
906.96        86.55791
907.36        86.45048
907.76        86.13458
908.15        85.71502
908.55          85.295
908.95        84.97643
909.34        84.69284
909.74        84.57925
910.14        84.78065
910.53        85.28886
910.93        86.03968
911.33        86.74242
911.72        86.89246
912.12         86.3986
912.52        85.47571
912.91        84.46117
913.31         83.8836
913.70        83.84653
914.10        84.17928
914.49        84.76888
914.89        85.31093
915.29        85.68951
915.68        85.97314
916.08        86.12817
916.47        86.10101
916.87        85.92635
917.26        85.59115
917.66        85.20873
918.05        84.94005
918.45        84.82417
918.84        84.85285
919.24        84.96609
919.64         85.1353
920.03        85.34681
920.42        85.60453
920.82        85.84972
921.21        85.97853
921.61        85.95642
922.00        85.81134
922.40        85.64861
922.79        85.76338
923.19        86.16135
923.58        86.78668
923.98        87.37405
924.37        87.57396
924.77         87.3096
925.16        86.68253
925.55        85.95156
925.95         85.5624
926.34        85.64992
926.74        86.06123
927.13        86.60094
927.52        86.84821
927.92        86.72885
928.31        86.37634
928.70        85.97615
929.10        85.78863
929.49        85.88321
929.89        86.10992
930.28        86.45395
930.67        86.75623
931.07        86.93047
931.46        87.06078
931.85        87.05953
932.24        86.82553
932.64        86.37836
933.03        85.76415
933.42        85.17921
933.82        84.93658
934.21         85.1176
934.60        85.64415
934.99        86.33677
935.39        86.85528
935.78        87.12399
936.17        87.19238
936.56        87.16001
936.96        87.19928
937.35        87.40842
937.74        87.68919
938.13        87.93099
938.53        87.98948
938.92        87.83723
939.31        87.50709
939.70        87.14834
940.09        87.01221
940.49        87.12714
940.88        87.45129
941.27        87.73727
941.66        87.60942
942.05        87.01923
942.44         86.1246
942.84        85.21411
943.23        84.70824
943.62        84.75819
944.01        85.22662
944.40        85.95603
944.79        86.65211
945.18        87.15467
945.57        87.50388
945.97        87.65061
946.36        87.59759
946.75        87.34502
947.14        86.89914
947.53          86.326
947.92        85.77579
948.31        85.32787
948.70        84.97967
949.09        84.78614
949.48        84.79507
949.87        84.99639
950.26        85.38909
950.65        85.82583
951.04        86.06805
951.43        86.05565
951.82        85.80995
952.21        85.50792
952.60        85.48396
952.99        85.79731
953.38        86.32381
953.77        86.80128
954.16        86.82813
954.55        86.33337
954.94        85.47433
955.33         84.4897
955.72        83.76881
956.11        83.45099
956.50        83.44061
956.89        83.65532
957.28        83.92822
957.66        84.20715
958.05        84.52164
958.44        84.84644
958.83        85.12411
959.22        85.32925
959.61        85.40265
960.00        85.41718
960.39        85.52269
960.78        85.72895
961.16        86.03423
961.55        86.18158
961.94        85.86433
962.33        85.05733
962.72        83.94643
963.11        82.84338
963.49         82.1804
963.88        82.06533
964.27        82.37289
964.66         82.9714
965.04        83.62827
965.43        84.12419
965.82        84.54826
966.21        84.86591
966.60        85.05675
966.98        85.13779
967.37        85.01626
967.76        84.77872
968.15        84.58252
968.53        84.51532
968.92        84.59796
969.31        84.71447
969.69        84.63652
970.08        84.33532
970.47        83.88517
970.86        83.63223
971.24        84.17309
971.63        85.47382
972.02        87.23711
972.40         88.9402
972.79         89.7821
973.17        89.70517
973.56        88.88955
973.95        87.68239
974.33        86.68537
974.72        86.12421
975.11         85.8417
975.49        85.75669
975.88        85.73412
976.26        85.72528
976.65        85.79404
977.04        85.85639
977.42        85.70771
977.81         85.2484
978.19        84.49865
978.58        83.75803
978.96        83.56013
979.35        83.99138
979.74          84.941
980.12        86.05381
980.51        86.51627
980.89        86.25496
981.28        85.37569
981.66        84.33452
982.05        83.95405
982.43        84.46711
982.82        85.56142
983.20        86.79587
983.59        87.33128
983.97        87.05408
984.35        86.14382
984.74        84.96291
985.12        84.16531
985.51        83.95905
985.89        84.18021
986.28           84.54
986.66        84.67245
987.04        84.46889
987.43        84.02362
987.81        83.58433
988.20        83.45425
988.58        83.76843
988.96        84.40064
989.35        84.99335
989.73        85.12166
990.12        84.61186
990.50        83.51701
990.88         82.2537
991.27         81.7846
991.65        82.44337
992.03        83.92664
992.42        85.33172
992.80        85.75688
993.18        84.96325
993.56         83.0887
993.95        80.83781
994.33        79.97073
994.71        81.14745
995.10        83.50422
995.48         85.7906
995.86          86.714
996.24        86.16646
996.63        84.41854
997.01         82.1358
997.39        80.70322
997.77         80.7805
998.15        81.98656
998.54        83.43941
998.92        83.91153
999.30        83.13309
999.68        81.44764
1000.06        79.65231
1000.45        79.13197
1000.83         80.3271
1001.21        82.66727
1001.59         85.0915
1001.97        86.09853
1002.35        85.33566
1002.73        83.17225
1003.12        80.40611
1003.50        78.69846
1003.88        78.74371
1004.26         79.9435
1004.64        81.50998
1005.02        82.45242
1005.40        82.58309
1005.78        82.30534
1006.16        81.81512
1006.54        81.42131
1006.92        81.29084
1007.30        81.24782
1007.69        81.47825
1008.07        82.20364
1008.45         83.4235
1008.83         84.9977
1009.21        86.46396
1009.59        87.16713
1009.97        86.93986
1010.35        85.84194
1010.73        84.12323
1011.11        82.60628
1011.49        81.81224
1011.86        81.71909
1012.24        81.90961
1012.62        81.94119
1013.00        81.70152
1013.38        81.42492
1013.76        81.24276
1014.14        81.33041
1014.52         81.7538
1014.90        82.37643
1015.28         83.2038
1015.66        84.26018
1016.04        85.41018
1016.41        86.62799
1016.79        87.44474
1017.17        87.58627
1017.55        87.04599
1017.93        86.00259
1018.31        84.78536
1018.69         83.8682
1019.06        83.50295
1019.44        83.66438
1019.82        84.33581
1020.20        85.37209
1020.58         86.5309
1020.95        87.52112
1021.33        88.44012
1021.71        89.44495
1022.09        90.48685
1022.46        91.49032
1022.84         91.8289
1023.22        90.24699
1023.60        86.36658
1023.97        80.13522
1024.35        72.93888
1024.73        68.06216
