SpectraSmart Spectrum 2.9.0.0
--------- Device Information -----------
Spectrum Name :  反射率_0
Saving Time :  2024/04/27 22:51:45
Spectro-Module Model Name : SE2030-DUVN
Spectro-Module Serial Number : OS361AC55029948
Wavelength Start : 200
Wavelength End : 1025
Wavelength Unit : Wavelength(nm)
Spectrum Unit : Reflectance(%)
-----------Spectrum Setting ------------
Integration Time : 20ms
Average : 10
Boxcar : 0
Background removal :  enabled
linearity correction :  enabled
SC :  disabled
Intensity correction :  disabled
DWT denoise :  enabled
savitzky-golay :  disabled
FFT :  disabled
Running average :  disabled
Kalman :  disabled
High pass :  disabled
---------------BEGIN--------------------
Wavelength(nm)             Reflectance(%)
200.29               0
200.75        39.56844
201.21        59.93363
201.67        73.33961
202.13        77.16627
202.58        75.16677
203.04        70.49919
203.50        66.30489
203.96        67.01022
204.42        72.18555
204.88        78.83371
205.34        85.10367
205.80        90.05386
206.26        93.92939
206.72        97.74502
207.18        99.99505
207.64        94.78204
208.10        83.52779
208.55        73.94724
209.01        66.86727
209.47        59.70992
209.93        48.69738
210.39        23.81422
210.85       -45.60121
211.31       -113.3186
211.77       -1.553813
212.23        62.72247
212.69        83.19682
213.14        87.44775
213.60        83.05199
214.06        70.36576
214.52        46.58397
214.98        26.73592
215.44        30.30119
215.90        43.69079
216.36        56.12542
216.81         64.2445
217.27        69.25803
217.73        73.69093
218.19        76.32241
218.65        74.26904
219.11         66.8484
219.57        53.79979
220.02        38.51122
220.48        31.66739
220.94        36.41787
221.40        48.38613
221.86        60.92559
222.32        67.36182
222.77         67.7394
223.23        64.97892
223.69        61.30384
224.15        58.76353
224.61         57.7526
225.06        57.36699
225.52        57.73423
225.98         58.6414
226.44        59.66838
226.90        60.61411
227.36        61.43716
227.81        62.12631
228.27        62.75579
228.73        63.29035
229.19        63.26914
229.65        61.89492
230.10        59.07476
230.56        55.53768
231.02        52.17529
231.48        50.23186
231.93        49.78109
232.39        50.44944
232.85        51.66309
233.31        52.66154
233.77         53.2459
234.22        53.76961
234.68        54.07246
235.14        54.02456
235.60        53.66277
236.05        52.81622
236.51        52.18262
236.97        53.19765
237.43        56.16816
237.88        60.72344
238.34         65.0414
238.80        67.47161
239.26        67.65834
239.71        65.35632
240.17        60.47979
240.63         57.2944
241.08        59.84226
241.54        65.18771
242.00         69.6265
242.46        71.45974
242.91        71.08405
243.37        68.36378
243.83        61.84768
244.28        53.17347
244.74        52.09716
245.20        58.73599
245.66        65.04714
246.11        67.68212
246.57        67.48684
247.03        65.56631
247.48        61.45405
247.94        56.61805
248.40        54.19487
248.85        53.61247
249.31        55.42635
249.77        60.02139
250.22         65.7879
250.68        71.48131
251.14        75.77925
251.59        77.66573
252.05         77.3663
252.51        74.67159
252.96        69.22656
253.42        63.88594
253.88        61.28593
254.33        61.34266
254.79        62.14844
255.25        61.39246
255.70        59.32435
256.16        57.37774
256.62        56.74158
257.07        58.61978
257.53        62.35252
257.99        66.17585
258.44        68.73967
258.90        69.40067
259.35        68.14874
259.81        66.13361
260.27        63.75781
260.72        61.52099
261.18        59.93549
261.63        58.57417
262.09        57.54142
262.55        56.54598
263.00        55.46978
263.46        54.51944
263.91         53.6992
264.37        53.35833
264.83        53.38334
265.28        53.58552
265.74        53.75139
266.19        53.39523
266.65        52.56605
267.11        51.37498
267.56        50.08192
268.02        49.20315
268.47        48.79774
268.93        48.71699
269.38        48.72594
269.84        48.49043
270.30        47.90803
270.75        47.09665
271.21        46.15176
271.66        45.16169
272.12        44.20554
272.57        43.21044
273.03        42.26921
273.48        41.44433
273.94        40.79649
274.39        40.26947
274.85        39.81599
275.31        39.25876
275.76        38.55268
276.22        37.79319
276.67        37.01905
277.13        36.40351
277.58        35.91314
278.04        35.53873
278.49        35.16236
278.95        34.74189
279.40        34.20749
279.86        33.65819
280.31         33.0834
280.77        32.59668
281.22        32.17527
281.68        31.84048
282.13        31.54707
282.59        31.29542
283.04        31.05212
283.50        30.83756
283.95        30.63402
284.41        30.46398
284.86        30.30315
285.32        30.15835
285.77        29.99592
286.22        29.81321
286.68        29.62486
287.13        29.40696
287.59        29.18787
288.04        28.92891
288.50        28.66879
288.95        28.39234
289.41        28.16144
289.86        28.01505
290.32        27.98001
290.77        28.03046
291.22        28.12856
291.68        28.20723
292.13        28.24445
292.59        28.27853
293.04        28.34896
293.50        28.54742
293.95        28.87844
294.40        29.31653
294.86         29.8166
295.31         30.3007
295.77        30.75466
296.22        31.18842
296.68         31.6321
297.13        32.10594
297.58        32.62296
298.04        33.17121
298.49        33.72961
298.95        34.29296
299.40        34.84941
299.85        35.39321
300.31        35.95865
300.76        36.55511
301.21        37.18029
301.67        37.82946
302.12        38.39966
302.58        38.79107
303.03        38.97898
303.48        39.01743
303.94        39.05922
304.39        39.28096
304.84        39.72645
305.30        40.33207
305.75        40.92676
306.20        41.29766
306.66        41.41209
307.11        41.31464
307.57        41.14845
308.02        41.06235
308.47        41.11709
308.93        41.26121
309.38        41.39949
309.83        41.42344
310.29        41.31978
310.74        41.12064
311.19        40.89788
311.65        40.75383
312.10        40.69505
312.55         40.6895
313.00        40.69667
313.46        40.65816
313.91        40.55077
314.36        40.40344
314.82        40.21729
315.27        39.98929
315.72        39.73224
316.18         39.4544
316.63        39.19084
317.08        39.02082
317.53        38.95588
317.99        38.97086
318.44        39.00998
318.89        38.96327
319.35        38.80375
319.80        38.56341
320.25        38.29539
320.70         38.0947
321.16        37.97683
321.61        37.91376
322.06        37.86111
322.51        37.75232
322.97        37.56347
323.42        37.33782
323.87        37.08086
324.32        36.80865
324.78        36.53296
325.23        36.25651
325.68        36.01589
326.13        35.87977
326.59        35.84403
327.04        35.91378
327.49        36.00201
327.94        35.97422
328.39        35.79449
328.85        35.48413
329.30        35.13778
329.75        34.90141
330.20        34.82219
330.66        34.84748
331.11        34.91835
331.56        34.88118
332.01        34.69857
332.46        34.41849
332.92        34.10991
333.37        33.92932
333.82        33.90649
334.27        33.98824
334.72        34.11306
335.17        34.18366
335.63        34.15459
336.08        34.07681
336.53        33.94421
336.98        33.76012
337.43         33.5456
337.88        33.30835
338.34        33.09705
338.79        33.00223
339.24        33.04016
339.69        33.18145
340.14        33.38267
340.59        33.56729
341.05        33.69986
341.50        33.79977
341.95        33.83718
342.40        33.78005
342.85        33.63372
343.30        33.40529
343.75        33.16595
344.20         33.0337
344.66        33.04121
345.11        33.16193
345.56        33.32101
346.01        33.38833
346.46        33.33332
346.91         33.1925
347.36        33.04642
347.81        33.01833
348.26        33.13113
348.72        33.34044
349.17        33.55458
349.62        33.63375
350.07         33.5422
350.52        33.31706
350.97         33.0537
351.42        32.90449
351.87        32.90187
352.32        32.99792
352.77        33.08519
353.22        33.00031
353.67        32.71511
354.13          32.305
354.58        31.86118
355.03         31.5773
355.48        31.50399
355.93        31.58619
356.38        31.72452
356.83        31.76466
357.28        31.66351
357.73        31.46432
358.18        31.23933
358.63        31.10032
359.08        31.06763
359.53        31.09441
359.98        31.10609
360.43        30.99306
360.88        30.73357
361.33        30.36838
361.78        29.96162
362.23        29.64549
362.68        29.46189
363.13        29.31884
363.58        29.15927
364.03        29.21689
364.48        28.94407
364.93        28.78359
365.38        28.61094
365.83        28.48931
366.28        28.41978
366.73        28.38032
367.18        28.32945
367.63        28.19196
368.08        27.95576
368.53        27.65127
368.98        27.32197
369.43        27.03538
369.88        26.81715
370.33        26.65214
370.78        26.52813
371.23        26.42517
371.68        26.32605
372.13        26.22488
372.58        26.11823
373.03        25.99781
373.48        25.86245
373.93         25.7261
374.38        25.55765
374.83        25.30962
375.28        24.98977
375.72        24.60684
376.17        24.28739
376.62        24.18664
377.07        24.31544
377.52        24.59913
377.97        24.89102
378.42        24.96165
378.87        24.76077
379.32        24.37647
379.77        23.89926
380.22         23.4653
380.67        23.12767
381.11        22.84859
381.56        22.65254
382.01        22.58062
382.46        22.62464
382.91        22.77201
383.36        22.93659
383.81        22.97676
384.26        22.86034
384.71        22.62296
385.15        22.32541
385.60        22.10434
386.05        21.98895
386.50        21.95038
386.95        21.95862
387.40        21.96535
387.85        21.95548
388.29        21.93038
388.74        21.92978
389.19        21.95912
389.64        22.00968
390.09        22.05272
390.54         22.0617
390.98        21.99775
391.43        21.86685
391.88        21.69316
392.33        21.47329
392.78        21.23464
393.23        21.00545
393.67        20.69989
394.12        20.39563
394.57        20.43775
395.02        20.46625
395.47        20.41951
395.91        20.22996
396.36        20.19077
396.81        20.30997
397.26        20.42277
397.71        20.47135
398.15        20.45209
398.60        20.38122
399.05        20.18595
399.50        19.95951
399.95        19.96203
400.39        20.14921
400.84        20.19757
401.29        20.07522
401.74        19.92816
402.18        19.80194
402.63        19.74617
403.08        19.76575
403.53        19.75504
403.97        19.71633
404.42        19.75448
404.87        19.82885
405.32        19.83781
405.76        19.76602
406.21        19.59335
406.66        19.39803
407.11        19.39388
407.55        19.55082
408.00         19.6356
408.45        19.58734
408.90        19.37288
409.34        19.07195
409.79        18.96412
410.24        19.04928
410.68        19.07873
411.13        19.04613
411.58        19.12664
412.03        19.29488
412.47        19.40307
412.92        19.41705
413.37        19.38906
413.81        19.32804
414.26        19.26074
414.71        19.19444
415.15        19.12066
415.60        19.05384
416.05        19.03323
416.49        19.06596
416.94        19.13793
417.39        19.21506
417.83        19.24293
418.28        19.20262
418.73        19.10267
419.17        18.97694
419.62        18.88494
420.07        18.85326
420.51        18.87761
420.96        18.91937
421.41         18.9401
421.85        18.92523
422.30        18.79871
422.74        18.65353
423.19        18.86429
423.64        19.35407
424.08        19.60027
424.53        19.49737
424.98        19.43615
425.42         19.4317
425.87         19.1231
426.31        18.66287
426.76        18.68624
427.21        19.11286
427.65         19.2299
428.10        19.03617
428.54        19.01985
428.99        19.17463
429.44        19.40279
429.88        19.56149
430.33        19.19535
430.77        18.53169
431.22        18.39818
431.66        18.78389
432.11        19.11716
432.56        19.30458
433.00         19.4418
433.45        19.35928
433.89        19.12263
434.34        19.01068
434.78        18.01757
435.23        18.50662
435.67        19.04226
436.12        19.40891
436.57        19.59303
437.01        19.42209
437.46        19.32816
437.90        19.41101
438.35        19.54909
438.79        19.14545
439.24         19.0087
439.68        18.98684
440.13        19.01174
440.57        19.04564
441.02        19.17845
441.46         19.3398
441.91        19.17101
442.35          18.811
442.80        18.93444
443.24        19.43103
443.69        19.50116
444.13         19.1468
444.58        19.01423
445.02        19.10331
445.47        19.08149
445.91        18.94971
446.36        18.89299
446.80        18.91414
447.24         18.9493
447.69        18.99536
448.13        19.09483
448.58        19.21477
449.02        19.25205
449.47        19.21492
449.91        19.20418
450.36        19.22919
450.80        19.22085
451.25        19.19125
451.69        19.19113
452.13        19.21654
452.58        19.23372
453.02        19.22817
453.47        19.18675
453.91         19.1067
454.36        19.03108
454.80        18.94087
455.24        18.78436
455.69        18.61359
456.13        18.46088
456.58        18.38746
457.02        18.55268
457.46        18.84786
457.91        18.92198
458.35         18.8316
458.79        18.79016
459.24        18.82187
459.68        18.76355
460.13        18.65553
460.57        18.53355
461.01        18.49606
461.46        18.54735
461.90         18.5662
462.34        18.56394
462.79        18.81399
463.23        18.81929
463.68        18.70585
464.12        18.62869
464.56        18.62243
465.01        18.71716
465.45         18.8084
465.89        18.73375
466.34        18.55069
466.78        18.37185
467.22        18.22296
467.67        18.52858
468.11        18.46983
468.55        18.49972
468.99        18.39675
469.44        18.38742
469.88        18.47032
470.32        18.50417
470.77        18.49686
471.21        18.52076
471.65         18.5803
472.10        18.65596
472.54        18.71246
472.98         18.7254
473.42        18.69614
473.87        18.58456
474.31        18.44201
474.75        18.51778
475.20        18.75572
475.64          18.786
476.08        18.60935
476.52         18.5827
476.97        18.72701
477.41        18.67436
477.85        18.59933
478.29        18.74613
478.74        18.64189
479.18        18.50291
479.62        18.81448
480.06        18.91133
480.50        18.99026
480.95        19.03919
481.39        19.02212
481.83        19.29682
482.27        19.27693
482.72        19.12363
483.16        19.29051
483.60        19.28374
484.04        19.26175
484.48        19.33753
484.93        19.61767
485.37        19.47603
485.81        19.75569
486.25        20.18282
486.69        19.59186
487.14        19.34756
487.58        20.34879
488.02        19.97713
488.46        19.86609
488.90        20.31822
489.34        19.77778
489.79         19.6693
490.23        20.19852
490.67        20.53655
491.11        20.80007
491.55        20.79865
491.99        20.63141
492.43        20.65488
492.88         20.8933
493.32        21.10491
493.76         21.2364
494.20        21.37344
494.64        21.52047
495.08        21.58974
495.52        21.61552
495.96        21.82904
496.41        22.20259
496.85        22.19956
497.29        21.93469
497.73        22.07358
498.17        22.56196
498.61        22.92167
499.05        23.03306
499.49        23.03349
499.93        22.98646
500.37        22.97119
500.82        23.01356
501.26        23.14046
501.70        23.37096
502.14        23.22146
502.58         23.5085
503.02        23.59478
503.46        23.62115
503.90        23.62512
504.34        23.60527
504.78        23.63612
505.22        23.71628
505.66        23.78387
506.10        23.84181
506.54        23.96018
506.98        24.14124
507.42        24.24735
507.86        24.44146
508.30        24.52958
508.74        24.55952
509.18        24.53528
509.62        24.49162
510.06        24.48297
510.50         24.5232
510.94        24.60152
511.38        24.69019
511.82        24.74356
512.26         24.7507
512.70        24.72756
513.14        24.70293
513.58        24.71206
514.02        24.76252
514.46        24.85725
514.90        24.97118
515.34        24.97668
515.78        25.00705
516.22        24.96172
516.66        24.91155
517.10        24.89643
517.54         24.9278
517.98        24.98912
518.42        25.05642
518.86        25.09572
519.30        25.09628
519.74        25.06944
520.18        25.02987
520.62        24.99885
521.06        24.98436
521.50        24.98215
521.93        24.98545
522.37        24.97507
522.81        24.95054
523.25        24.91425
523.69         24.8806
524.13        24.87193
524.57        24.88782
525.01        24.91657
525.45        24.93025
525.89        24.88546
526.32        24.77244
526.76        24.61782
527.20        24.44735
527.64        24.30596
528.08        24.20837
528.52        24.13955
528.96        24.09835
529.40        24.08085
529.83        24.07893
530.27        24.09861
530.71        24.11022
531.15        24.06732
531.59        23.96498
532.03         23.8156
532.46        23.66495
532.90        23.60176
533.34        23.63819
533.78        23.74627
534.22        23.87115
534.66        23.92886
535.09        23.89761
535.53         23.8088
535.97        23.69888
536.41        23.62977
536.85        23.61935
537.28        23.64907
537.72        23.69567
538.16        23.71918
538.60        23.71177
539.04         23.6966
539.47        23.68562
539.91        23.70817
540.35        23.76485
540.79        23.84938
541.22        23.94985
541.66        24.05023
542.10        24.14328
542.54        24.23399
542.97        24.32226
543.41        24.42245
543.85        24.53276
544.29        24.64912
544.72        24.76447
545.16        24.88676
545.60         25.0082
546.04        25.12745
546.47        25.24545
546.91        25.35864
547.35        25.46496
547.79        25.57903
548.22         25.6909
548.66        25.77794
549.10        25.85714
549.53        26.02419
549.97        26.26933
550.41        26.48538
550.84        26.65981
551.28        26.85479
551.72        27.05571
552.15        27.20767
552.59        27.31412
553.03        27.38233
553.46        27.43861
553.90        27.54589
554.34        27.70917
554.77        27.91898
555.21        28.13431
555.65        28.28933
556.08        28.34044
556.52        28.37369
556.96        28.40329
557.39        28.49224
557.83        28.62847
558.27        28.67575
558.70        28.64738
559.14        28.67195
559.57        28.74911
560.01        28.84788
560.45        28.93973
560.88        28.96398
561.32        28.97571
561.75        29.05511
562.19        29.20868
562.63        29.42971
563.06        29.64249
563.50        29.62535
563.93        29.43478
564.37        29.42241
564.80        29.59991
565.24        29.79091
565.68        29.95916
566.11        30.11372
566.55        30.24822
566.98        30.38297
567.42        30.51081
567.85        30.53642
568.29        30.51907
568.72         30.5498
569.16        30.65026
569.60        30.82955
570.03        31.10699
570.47        31.16719
570.90        31.35505
571.34        31.84452
571.77         31.8708
572.21        31.78532
572.64        32.06241
573.08        31.93226
573.51        32.31607
573.95        32.46203
574.38        32.51648
574.82        32.60945
575.25        32.61633
575.69        32.57501
576.12        32.66161
576.56        33.11646
576.99         33.1319
577.42        32.87947
577.86          33.151
578.29        33.24705
578.73        32.77932
579.16         32.7305
579.60        32.80782
580.03        32.77605
580.47         32.5974
580.90        32.33135
581.33        32.52727
581.77        32.36059
582.20        32.19567
582.64        32.00088
583.07        31.91256
583.51        31.85052
583.94        31.90611
584.37        31.93583
584.81         31.8814
585.24        31.59728
585.68        31.24567
586.11         31.1106
586.54        30.97447
586.98        31.10426
587.41        31.39209
587.85        30.89405
588.28        30.70121
588.71        30.83695
589.15         30.9371
589.58        30.77578
590.01         31.0816
590.45        31.14973
590.88        30.49736
591.31        30.39017
591.75        30.63371
592.18        30.69019
592.61        30.54725
593.05        30.85035
593.48        31.32472
593.91        30.60572
594.35        30.99137
594.78        31.15799
595.21        31.24578
595.65        31.35298
596.08        31.28722
596.51        31.73423
596.94        31.61056
597.38        31.88518
597.81        32.27319
598.24         32.3996
598.68        32.69965
599.11        33.26694
599.54        33.57347
599.97        33.76505
600.41        34.20546
600.84        34.47794
601.27         34.7181
601.70        35.03384
602.14         35.1296
602.57        35.72444
603.00        36.23821
603.43        36.87705
603.87        37.09388
604.30         37.2531
604.73        37.77528
605.16        38.27971
605.60        38.83531
606.03        39.37059
606.46        39.83254
606.89        40.06954
607.32        40.41947
607.76        41.16887
608.19        41.24198
608.62        41.64494
609.05        42.08009
609.48        42.48569
609.92        42.78449
610.35         43.2853
610.78        43.65995
611.21        43.44072
611.64        44.23815
612.07        44.44268
612.50        44.58421
612.94        44.77862
613.37        45.06264
613.80        45.48119
614.23        45.70277
614.66        46.03437
615.09        46.40912
615.52        46.75941
615.96        47.14386
616.39        47.07331
616.82        47.38705
617.25        47.89194
617.68        48.00531
618.11        48.24619
618.54        48.42549
618.97        48.75131
619.40        49.12327
619.84        49.59256
620.27        49.60465
620.70        49.59832
621.13         49.4081
621.56        49.86306
621.99        49.79258
622.42        49.81216
622.85        49.92928
623.28        50.33729
623.71        50.26399
624.14        49.93731
624.57        50.16615
625.00        50.45506
625.43         49.9684
625.86        49.92301
626.29        50.04604
626.72        49.63027
627.15        49.70462
627.58        49.59296
628.01        49.62109
628.44        49.25722
628.87        48.69518
629.30        48.83306
629.73        48.43418
630.16         47.8041
630.59        47.73122
631.02        47.48743
631.45        47.34185
631.88        47.09311
632.31        46.74648
632.74        46.12145
633.17        45.71581
633.60        45.22661
634.03        44.80862
634.46        44.43323
634.89        44.06874
635.32        43.64872
635.75        43.15613
636.18        42.64289
636.61        42.13588
637.04        41.62462
637.47        41.14596
637.89        40.80189
638.32        40.53939
638.75        40.21338
639.18        39.80951
639.61        39.40089
640.04        39.01925
640.47        38.69818
640.90        38.45133
641.33        38.25065
641.76        38.06701
642.18        37.95107
642.61        37.74181
643.04         37.5662
643.47        37.40909
643.90        37.31828
644.33        37.30206
644.76        37.34884
645.18        37.42177
645.61        37.45693
646.04         37.4419
646.47        37.39278
646.90         37.3699
647.33        37.46585
647.75        37.71471
648.18        38.11075
648.61        38.56775
649.04        38.98493
649.47        39.34671
649.89        39.54093
650.32        39.69626
650.75        40.36166
651.18        41.38263
651.61        41.89878
652.03        41.88859
652.46        41.98936
652.89        42.39074
653.32        42.83239
653.74         43.5144
654.17        44.42303
654.60        44.96087
655.03        45.32631
655.46        45.41957
655.88         46.8213
656.31        47.97277
656.74        48.96105
657.16        48.54238
657.59         48.9477
658.02        48.68876
658.45        49.92151
658.87        50.34056
659.30        50.38141
659.73         50.8775
660.15        50.65232
660.58        51.25446
661.01        51.82804
661.44        52.59186
661.86        52.83053
662.29        52.63711
662.72        52.80066
663.14        53.35122
663.57         53.7693
664.00        54.00434
664.42        54.24274
664.85        54.48881
665.27        54.68864
665.70         54.8592
666.13        55.03679
666.55        55.23373
666.98        55.44629
667.41        55.67666
667.83        55.91346
668.26        56.14518
668.69        56.38856
669.11        56.62534
669.54        56.83242
669.96        57.01431
670.39        57.11607
670.82        57.18697
671.24        57.42463
671.67        57.77616
672.09        57.94352
672.52        57.95375
672.94        58.00259
673.37        58.14033
673.80        58.36006
674.22        58.63058
674.65        58.79533
675.07        58.85316
675.50        58.88545
675.92        58.94174
676.35        59.04475
676.77        59.20861
677.20        59.43899
677.62        59.71109
678.05        59.91525
678.47        60.02399
678.90        60.26572
679.32        60.31266
679.75        60.46869
680.17        60.63785
680.60        60.81964
681.02        60.99888
681.45        61.13928
681.87        61.24703
682.30        61.32847
682.72        61.41006
683.15        61.51572
683.57        61.66629
684.00        61.83487
684.42        62.01103
684.85        62.18635
685.27        62.34394
685.70        62.49501
686.12        62.62522
686.54        62.71806
686.97        62.76905
687.39        62.83574
687.82        62.92831
688.24         62.9014
688.66        63.03671
689.09        63.11816
689.51        63.23152
689.94        63.30973
690.36        63.35685
690.78        63.41223
691.21        63.49381
691.63        63.49773
692.06        63.62774
692.48         63.7179
692.90        63.83591
693.33        63.94964
693.75        64.04963
694.17        64.22388
694.60        64.43633
695.02        64.38968
695.44        64.27596
695.87        64.42919
696.29        64.84144
696.71        64.96907
697.14        64.84252
697.56         65.0198
697.98        65.43797
698.41        65.68322
698.83         65.7222
699.25        65.77161
699.68        65.84387
700.10        65.93124
700.52        66.03355
700.94        66.15377
701.37         66.2544
701.79        66.31247
702.21         66.3071
702.64        66.26677
703.06        66.22155
703.48        66.23947
703.90        66.34226
704.33        66.50137
704.75        66.70029
705.17        66.89111
705.59        67.05264
706.01        67.16714
706.44         67.2441
706.86        67.41908
707.28        67.50623
707.70        67.65598
708.12         67.7887
708.55        67.82477
708.97        67.76932
709.39        67.72406
709.81        67.72574
710.23        67.76337
710.66        67.84518
711.08        68.01427
711.50        68.19723
711.92        68.27797
712.34        68.24055
712.76        68.12312
713.19        67.98627
713.61        67.97908
714.03        68.11436
714.45        68.34407
714.87         68.6123
715.29        68.83592
715.71        68.98659
716.13        69.08946
716.56        69.13252
716.98        69.16986
717.40        69.19268
717.82        69.19479
718.24        69.19777
718.66        69.24117
719.08        69.33134
719.50        69.45655
719.92         69.5983
720.34        69.72063
720.76        69.81194
721.19        69.87753
721.61        69.92351
722.03        69.93043
722.45        69.90071
722.87        69.83318
723.29        69.77634
723.71         69.8079
724.13        69.94556
724.55        70.17929
724.97        70.42984
725.39        70.56472
725.81        70.55509
726.23        70.42976
726.65         70.3015
727.07        70.35393
727.49        70.61868
727.91        71.03558
728.33        71.45457
728.75         71.6244
729.17        71.48925
729.59        71.13959
730.01        70.72741
730.43        70.50307
730.85        70.53333
731.27         70.7204
731.69        70.99021
732.10        71.27129
732.52          71.436
732.94        71.63552
733.36        71.81871
733.78        71.81557
734.20        71.60875
734.62        71.71878
735.04          71.119
735.46        71.36257
735.88        71.97841
736.30        71.95838
736.72        71.61888
737.13        71.48971
737.55        71.68674
737.97        71.94555
738.39        72.16715
738.81        72.05415
739.23        71.70197
739.65        71.80588
740.06        72.26782
740.48        72.44462
740.90        72.28022
741.32        72.21835
741.74        72.19994
742.16        72.21779
742.57         72.2561
742.99        72.35571
743.41        72.47682
743.83        72.47591
744.25        72.37182
744.67        72.31746
745.08        72.35839
745.50        72.41302
745.92        72.48891
746.34        72.62254
746.75        72.78305
747.17        72.85069
747.59        72.80994
748.01        72.80329
748.42        72.80649
748.84        72.58101
749.26        72.25822
749.68        72.24667
750.09        72.53716
750.51        72.93452
750.93        73.27226
751.35        73.28402
751.76        73.04594
752.18        72.95085
752.60        73.02201
753.01         73.2019
753.43        73.13327
753.85        73.10718
754.27        73.25848
754.68        73.43004
755.10        73.68044
755.52        73.62111
755.93        73.83498
756.35        73.84395
756.77        73.85004
757.18        73.91016
757.60        74.06165
758.02        74.19324
758.43        74.21721
758.85        74.33497
759.26         74.4147
759.68        73.84562
760.10         73.5519
760.51        73.19342
760.93        73.81974
761.34        73.88061
761.76        74.00734
762.18        74.02319
762.59        74.11868
763.01        74.27814
763.42        74.50872
763.84        74.57423
764.26        74.51283
764.67        74.44215
765.09        74.44093
765.50        74.60731
765.92        74.89312
766.33        74.86807
766.75        74.50502
767.16        74.59874
767.58        74.64826
768.00        74.78529
768.41        74.84975
768.83        74.88999
769.24        74.88918
769.66        74.86944
770.07         74.8289
770.49        74.75755
770.90        74.71466
771.32        74.84917
771.73        75.12051
772.15        75.27724
772.56        75.31207
772.97        75.35478
773.39        75.39042
773.80        75.41922
774.22        75.42796
774.63        75.46022
775.05        75.49805
775.46        75.65411
775.88        75.77045
776.29        75.98314
776.70        76.19104
777.12        76.29552
777.53        76.29446
777.95        76.19222
778.36        76.06728
778.77        76.02274
779.19        76.09252
779.60        76.26145
780.02        76.44242
780.43        76.56155
780.84        76.61813
781.26        76.44226
781.67        76.30679
782.09        76.51423
782.50        76.94836
782.91        76.87946
783.33        76.29674
783.74        76.11273
784.15        76.34528
784.57        76.53793
784.98        76.64725
785.39        76.76804
785.81        76.89108
786.22        77.05946
786.63        77.24685
787.04        77.38265
787.46        77.46545
787.87        77.51127
788.28        77.53725
788.70        77.52539
789.11        77.46571
789.52        77.44209
789.93        77.43719
790.35        77.30429
790.76        77.10456
791.17        77.03778
791.58        77.15191
792.00         77.2721
792.41        77.37392
792.82         77.7236
793.23        78.06911
793.65        77.90202
794.06         77.3947
794.47        77.58022
794.88         78.3182
795.29        78.70296
795.71        78.45415
796.12        78.38647
796.53        78.45356
796.94        78.42578
797.35        78.30399
797.76        78.13159
798.18        77.97305
798.59        77.96235
799.00        78.13821
799.41        78.15697
799.82        78.48096
800.23        78.55913
800.64        78.51871
801.06        78.35183
801.47         78.1685
801.88        78.06139
802.29        78.06011
802.70        78.13786
803.11        78.25074
803.52        78.32655
803.93        78.35095
804.34        78.35084
804.75        78.35464
805.17        78.44001
805.58        78.65719
805.99         78.8113
806.40        78.89239
806.81        79.22689
807.22        79.62332
807.63        79.34451
808.04        78.55965
808.45         78.2477
808.86        78.52335
809.27        78.85947
809.68        79.12263
810.09        79.30647
810.50        79.35155
810.91        79.26685
811.32         79.1195
811.73        79.03094
812.14        79.03986
812.55        79.07832
812.96        79.12782
813.37         79.2339
813.78        79.34744
814.19        79.31853
814.60        79.17979
815.01        79.12659
815.42        79.17852
815.83        79.21983
816.24        79.26597
816.65        79.40124
817.05         79.6238
817.46        79.86115
817.87        80.07562
818.28        80.15836
818.69        80.09462
819.10        79.92345
819.51        79.71185
819.92        79.59325
820.33        79.61674
820.74        79.71004
821.14        79.84695
821.55        80.09422
821.96        80.37626
822.37        80.53187
822.78        80.53733
823.19        80.50203
823.60        80.43465
824.00         80.2864
824.41        80.03653
824.82        79.80685
825.23        79.62749
825.64         79.4694
826.04        79.42372
826.45         79.5854
826.86        79.96394
827.27        80.53134
827.68        81.08765
828.08        81.32941
828.49        81.11794
828.90        80.57678
829.31        79.95552
829.72         79.6882
830.12        79.91194
830.53         80.4462
830.94        81.08946
831.35        81.45847
831.75        81.45866
832.16        81.16359
832.57        80.72015
832.97        80.34297
833.38        80.12224
833.79        80.00292
834.20        79.98766
834.60        80.08351
835.01        80.28253
835.42         80.5754
835.82        80.92857
836.23        81.17566
836.64        81.29821
837.04        81.35009
837.45        81.29056
837.86        81.17574
838.26        81.04752
838.67        80.87437
839.08        80.75315
839.48        80.82172
839.89        81.09319
840.29        81.52739
840.70        81.98438
841.11        82.23778
841.51        82.25256
841.92        82.05251
842.33        81.76389
842.73        81.60158
843.14        81.57715
843.54        81.65459
843.95        81.77025
844.35        81.84546
844.76        81.83875
845.17        81.79548
845.57        81.72595
845.98        81.59125
846.38        81.43112
846.79        81.23209
847.19          81.067
847.60        81.00185
848.00        81.07496
848.41        81.21605
848.81        81.42159
849.22        81.60081
849.62        81.75127
850.03        81.86086
850.43        81.89989
850.84        81.73489
851.24        81.41068
851.65        80.89706
852.05         80.4083
852.46        80.20937
852.86        80.37349
853.27        80.82712
853.67        81.30034
854.07        81.62228
854.48        81.70135
854.88        81.63773
855.29        81.40939
855.69        81.21525
856.10        81.01894
856.50        80.85821
856.90        80.69399
857.31        80.50699
857.71        80.34765
858.12        80.19003
858.52         80.0923
858.92        80.00328
859.33        79.89403
859.73        79.80208
860.13        79.71735
860.54        79.65588
860.94        79.65453
861.34        79.66652
861.75        79.61823
862.15        79.45709
862.55        79.15504
862.96        78.76614
863.36        78.35516
863.76        78.01244
864.17        77.77341
864.57        77.62695
864.97        77.60828
865.38        77.74807
865.78        78.07717
866.18        78.55701
866.58        79.02689
866.99        79.21432
867.39        79.08195
867.79        78.66518
868.19        78.15918
868.60          77.826
869.00        77.72361
869.40        77.81958
869.80        77.99903
870.21        78.05223
870.61        77.99535
871.01        77.84052
871.41        77.69486
871.81        77.70107
872.22        77.85824
872.62        78.14956
873.02        78.48362
873.42        78.68675
873.82        78.70203
874.22        78.58811
874.63        78.46144
875.03        78.45517
875.43        78.60701
875.83        78.85468
876.23        79.12174
876.63        79.28493
877.03        79.29793
877.44        79.19088
877.84        78.99944
878.24        78.74696
878.64        78.46739
879.04          78.172
879.44        77.90647
879.84        77.72782
880.24        77.64376
880.64        77.64613
881.04        77.71311
881.44        77.79583
881.84        77.87416
882.24        77.95197
882.65        77.99857
883.05        78.07864
883.45        78.15237
883.85         78.2009
884.25        78.23104
884.65        78.26026
885.05        78.29162
885.45        78.32789
885.85        78.34487
886.25        78.30085
886.65        78.19978
887.05        78.06892
887.45        77.95493
887.85        77.92702
888.25        77.99149
888.65        78.11124
889.04        78.25025
889.44        78.38815
889.84        78.48353
890.24        78.54237
890.64        78.52518
891.04        78.37395
891.44         78.1028
891.84        77.75697
892.24        77.42548
892.64        77.24305
893.04        77.25279
893.44        77.42432
893.83        77.74808
894.23        78.13223
894.63        78.55173
895.03        78.98906
895.43        79.39035
895.83        79.67738
896.23        79.81731
896.63         79.8139
897.02        79.67662
897.42        79.47305
897.82        79.22768
898.22        78.97675
898.62        78.74463
899.01        78.57784
899.41        78.47913
899.81        78.44486
900.21        78.54872
900.61        78.89745
901.00        79.46451
901.40         80.2093
901.80        80.89272
902.20         81.1639
902.59        80.96345
902.99        80.36763
903.39        79.65092
903.79         79.2636
904.18         79.3188
904.58        79.70303
904.98        80.17503
905.38        80.37967
905.77        80.22651
906.17        79.82957
906.57        79.37554
906.96        79.19663
907.36        79.35605
907.76        79.77833
908.15        80.25053
908.55        80.34883
908.95        80.01323
909.34        79.34706
909.74        78.68764
910.14        78.49664
910.53        78.87561
910.93        79.65777
911.33        80.51302
911.72        80.88154
912.12        80.62056
912.52        79.95866
912.91        79.19171
913.31        78.77335
913.70        78.79411
914.10         79.0864
914.49        79.54417
914.89        79.90289
915.29        80.07532
915.68        80.14644
916.08        80.10789
916.47        79.93441
916.87        79.67154
917.26         79.3029
917.66        78.96133
918.05        78.83004
918.45        78.93703
918.84        79.26025
919.24        79.65276
919.64        79.94557
920.03        80.09311
920.42        80.12743
920.82        80.10698
921.21        80.11941
921.61        80.17406
922.00        80.24751
922.40        80.32086
922.79        80.45981
923.19        80.62199
923.58        80.83844
923.98        80.99017
924.37        80.94502
924.77        80.67554
925.16        80.20995
925.55        79.71366
925.95        79.47034
926.34        79.55609
926.74        79.87891
927.13        80.28283
927.52        80.40911
927.92        80.20958
928.31        79.79095
928.70        79.36063
929.10        79.22137
929.49        79.44595
929.89        79.89278
930.28        80.47877
930.67        80.92622
931.07        81.11614
931.46        81.14864
931.85        81.03573
932.24        80.83908
932.64        80.60014
933.03        80.30361
933.42        80.01235
933.82        79.82936
934.21        79.78615
934.60        79.87592
934.99        80.04523
935.39        80.16196
935.78        80.22359
936.17        80.24435
936.56          80.258
936.96        80.31805
937.35        80.47942
937.74        80.67066
938.13        80.84811
938.53        80.96253
938.92         80.9982
939.31        80.95921
939.70        80.86404
940.09          80.741
940.49        80.58965
940.88        80.46164
941.27        80.32777
941.66        80.14528
942.05        79.92269
942.44        79.68694
942.84        79.54767
943.23        79.62469
943.62        79.96056
944.01         80.5064
944.40        81.11419
944.79        81.51794
945.18        81.62498
945.57        81.48928
945.97        81.21239
946.36        81.03017
946.75        80.97495
947.14          80.989
947.53        81.00163
947.92        80.89655
948.31        80.64793
948.70        80.31621
949.09        79.97525
949.48        79.72105
949.87        79.58259
950.26        79.53726
950.65         79.5358
951.04        79.50087
951.43        79.41047
951.82        79.28065
952.21        79.16784
952.60        79.16936
952.99        79.30352
953.38        79.53447
953.77         79.7655
954.16        79.85535
954.55           79.77
954.94        79.53527
955.33         79.2526
955.72        79.09695
956.11        79.10591
956.50        79.23032
956.89        79.33656
957.28        79.18481
957.66        78.76033
958.05        78.15424
958.44        77.53674
958.83        77.16083
959.22        77.08549
959.61        77.18291
960.00        77.42119
960.39        77.75423
960.78        78.11607
961.16        78.56014
961.55        78.79777
961.94        78.45645
962.33          77.524
962.72        76.19806
963.11        74.91834
963.49        74.32983
963.88        74.57238
964.27        75.45118
964.66        76.71794
965.04        77.90387
965.43        78.68843
965.82        79.21741
966.21        79.48014
966.60        79.49747
966.98        79.33065
967.37        78.89389
967.76        78.35968
968.15        78.05946
968.53        78.12624
968.92        78.52171
969.31        79.05639
969.69         79.3877
970.08        79.42052
970.47        79.23684
970.86        79.06904
971.24        79.33746
971.63        80.02991
972.02        80.96738
972.40         81.8359
972.79        82.09375
973.17        81.73645
973.56        80.86417
973.95        79.78525
974.33         79.0115
974.72        78.72054
975.11        78.78988
975.49        79.02144
975.88        79.09002
976.26        78.91725
976.65        78.60931
977.04        78.29794
977.42        78.17607
977.81        78.24733
978.19        78.39835
978.58        78.70995
978.96        79.28507
979.35        80.05679
979.74        81.04082
980.12        81.95992
980.51        82.13918
980.89        81.59003
981.28        80.37543
981.66        79.09159
982.05        78.83524
982.43        79.86857
982.82        81.79642
983.20        83.91747
983.59        84.98434
983.97        84.78779
984.35        83.61872
984.74        81.97852
985.12        80.79003
985.51        80.37817
985.89        80.50159
986.28        80.87418
986.66        81.13931
987.04        81.16157
987.43        81.05116
987.81        80.95033
988.20        80.96549
988.58        81.17116
988.96        81.47131
989.35        81.63938
989.73        81.45582
990.12        80.81837
990.50        79.76432
990.88        78.59018
991.27        78.01197
991.65        78.28774
992.03        79.18486
992.42        80.08869
992.80        80.45298
993.18        80.06425
993.56        79.04964
993.95         77.6923
994.33        76.70292
994.71        76.56064
995.10        76.97617
995.48        77.61635
995.86        78.04788
996.24        78.19891
996.63        78.12743
997.01        78.10196
997.39        78.46287
997.77        79.28063
998.15        80.41486
998.54        81.35312
998.92         81.4487
999.30        80.62975
999.68        79.06216
1000.06        77.45833
1000.45        77.09599
1000.83        78.35577
1001.21        80.72243
1001.59        83.25932
1001.97        84.60429
1002.35        84.44189
1002.73        83.16396
1003.12         81.2241
1003.50        79.60274
1003.88        78.85342
1004.26        78.62178
1004.64        78.85911
1005.02        79.51267
1005.40          80.467
1005.78        81.83393
1006.16        83.09092
1006.54        83.23711
1006.92        82.05447
1007.30        79.77666
1007.69        77.34119
1008.07        76.26129
1008.45        76.99673
1008.83        79.09877
1009.21        81.57384
1009.59        82.99596
1009.97         82.9567
1010.35        81.63728
1010.73        79.70909
1011.11         78.8487
1011.49        79.78709
1011.86        82.14214
1012.24        84.36026
1012.62        84.56104
1013.00        82.53313
1013.38         78.9585
1013.76        75.38988
1014.14        74.39586
1014.52        76.66863
1014.90        81.48261
1015.28        87.31407
1015.66        91.03622
1016.04        91.43087
1016.41        89.53522
1016.79        86.32775
1017.17          83.701
1017.55        82.25023
1017.93        81.34184
1018.31         81.0521
1018.69        81.53864
1019.06        82.80032
1019.44        85.12108
1019.82        87.69079
1020.20         88.6167
1020.58        87.38873
1020.95        84.42905
1021.33        81.44382
1021.71        80.68725
1022.09        82.36974
1022.46        85.74256
1022.84        89.36055
1023.22        90.42468
1023.60        87.95155
1023.97        82.37903
1024.35        75.02906
1024.73        69.22246
