SpectraSmart Spectrum 2.9.0.0
--------- Device Information -----------
Spectrum Name :  反射率_0
Saving Time :  2024/04/27 22:47:17
Spectro-Module Model Name : SE2030-DUVN
Spectro-Module Serial Number : OS361AC55029948
Wavelength Start : 200
Wavelength End : 1025
Wavelength Unit : Wavelength(nm)
Spectrum Unit : Reflectance(%)
-----------Spectrum Setting ------------
Integration Time : 20ms
Average : 10
Boxcar : 0
Background removal :  enabled
linearity correction :  enabled
SC :  disabled
Intensity correction :  disabled
DWT denoise :  enabled
savitzky-golay :  disabled
FFT :  disabled
Running average :  disabled
Kalman :  disabled
High pass :  disabled
---------------BEGIN--------------------
Wavelength(nm)             Reflectance(%)
200.29               0
200.75       -50.36642
201.21       0.2451928
201.67        38.58907
202.13        50.84044
202.58        46.15485
203.04        33.04354
203.50        19.79081
203.96        17.60557
204.42        26.36281
204.88        39.56142
205.34         51.3843
205.80        57.38641
206.26        57.18494
206.72        50.81075
207.18        38.04762
207.64        28.08625
208.10        29.51792
208.55        37.52868
209.01        41.91945
209.47        38.13741
209.93         23.3434
210.39         -16.918
210.85       -139.9459
211.31       -291.7979
211.77       -115.1559
212.23        2.137208
212.69        43.88383
213.14        57.19336
213.60        57.93752
214.06        50.52367
214.52        33.37774
214.98        17.79197
215.44        19.08038
215.90        27.37532
216.36        35.30844
216.81          40.585
217.27        43.74334
217.73        46.88605
218.19        49.08823
218.65        48.06037
219.11        43.34527
219.57        34.83987
220.02        25.08164
220.48        22.18009
220.94        27.80614
221.40        38.10512
221.86        47.98463
222.32        52.54015
222.77        52.09595
223.23        49.11052
223.69        45.19323
224.15        41.61728
224.61        38.70516
225.06        35.69155
225.52        33.73146
225.98        34.56155
226.44        37.54128
226.90        41.05296
227.36        43.66483
227.81        44.29671
228.27        43.05311
228.73        40.37341
229.19        36.35593
229.65        31.59034
230.10        26.83896
230.56        22.64629
231.02        19.62145
231.48        18.51324
231.93        19.16271
232.39        21.15137
232.85        23.97413
233.31         26.8932
233.77        29.53993
234.22        32.09885
234.68        33.93647
235.14        34.42121
235.60        33.52525
236.05        31.10749
236.51        28.37156
236.97        27.94093
237.43        30.73338
237.88        36.26253
238.34        41.88048
238.80        44.68501
239.26        43.90724
239.71        38.88315
240.17        30.13863
240.63         26.0949
241.08        33.55658
241.54         46.0564
242.00        55.81932
242.46        60.03371
242.91        59.74681
243.37        54.54133
243.83        41.66885
244.28        25.56719
244.74        26.31943
245.20        42.52969
245.66        55.63171
246.11        58.09643
246.57        51.44387
247.03        36.09273
247.48        11.04685
247.94       -9.061776
248.40       -6.378177
248.85        10.44681
249.31        31.59833
249.77        49.45551
250.22        61.86407
250.68        70.66827
251.14        75.41955
251.59        75.43459
252.05        70.94862
252.51        60.42402
252.96        43.96706
253.42        31.22755
253.88        29.57155
254.33         36.0225
254.79         42.6558
255.25        43.50991
255.70        39.92639
256.16        35.22657
256.62        32.40658
257.07         34.4309
257.53        40.00331
257.99        46.17566
258.44        50.81542
258.90        52.54465
259.35        51.59452
259.81        49.45459
260.27        46.86697
260.72        44.65017
261.18        43.27211
261.63         42.2523
262.09        41.53545
262.55        40.79168
263.00        39.91879
263.46        39.10798
263.91        38.44477
264.37        38.28739
264.83        38.51949
265.28        38.92266
265.74        39.19067
266.19        38.79621
266.65        37.76741
267.11        36.27797
267.56        34.63221
268.02        33.39559
268.47        32.67776
268.93        32.32666
269.38        32.16422
269.84        31.91978
270.30        31.49936
270.75        31.00259
271.21        30.44466
271.66        29.80191
272.12        29.11145
272.57        28.32669
273.03        27.57048
273.48        26.97802
273.94        26.60947
274.39        26.39372
274.85         26.2302
275.31        25.90874
275.76        25.38321
276.22        24.74016
276.67        24.07398
277.13        23.59315
277.58         23.2842
278.04        23.10765
278.49        22.90159
278.95        22.52148
279.40        21.91475
279.86         21.2166
280.31        20.51761
280.77        20.03935
281.22        19.79289
281.68        19.72823
282.13        19.75416
282.59        19.77337
283.04        19.73963
283.50        19.67899
283.95        19.59655
284.41        19.52067
284.86         19.4494
285.32        19.39111
285.77        19.31245
286.22         19.1906
286.68        19.04882
287.13         18.8806
287.59         18.7747
288.04        18.79939
288.50         18.9797
288.95        19.25052
289.41        19.54492
289.86        19.72802
290.32        19.78281
290.77        19.74574
291.22        19.66551
291.68        19.61243
292.13        19.61186
292.59        19.66328
293.04        19.77661
293.50        19.98638
293.95        20.28866
294.40        20.68833
294.86        21.16169
295.31        21.65914
295.77        22.16924
296.22        22.68102
296.68        23.20924
297.13        23.75912
297.58        24.32861
298.04        24.89992
298.49        25.44385
298.95        25.93113
299.40        26.36027
299.85        26.74526
300.31        27.13765
300.76        27.57946
301.21        28.08352
301.67        28.62936
302.12        29.15366
302.58        29.59529
303.03        29.92856
303.48        30.18757
303.94        30.42997
304.39         30.6992
304.84        31.02479
305.30        31.39503
305.75        31.76407
306.20        32.09765
306.66        32.39381
307.11        32.63324
307.57        32.85891
308.02        33.07469
308.47        33.29295
308.93        33.50328
309.38        33.65165
309.83        33.68249
310.29        33.60342
310.74        33.43009
311.19        33.23022
311.65        33.10667
312.10        33.06676
312.55        33.08332
313.00        33.11976
313.46        33.11839
313.91        33.05346
314.36        32.94717
314.82        32.78389
315.27        32.53534
315.72        32.21104
316.18         31.8299
316.63        31.44554
317.08        31.16463
317.53        31.00936
317.99        30.94956
318.44        30.93073
318.89        30.84362
319.35        30.65907
319.80        30.40998
320.25        30.13665
320.70        29.91158
321.16        29.74581
321.61        29.61358
322.06        29.48612
322.51         29.3239
322.97        29.11018
323.42        28.87627
323.87        28.61184
324.32        28.30537
324.78        27.96164
325.23        27.58686
325.68         27.2318
326.13        26.98671
326.59        26.85504
327.04        26.83158
327.49        26.81993
327.94        26.66638
328.39        26.33138
328.85        25.85044
329.30        25.32323
329.75        24.92103
330.20        24.70297
330.66          24.616
331.11        24.59626
331.56        24.48933
332.01        24.25116
332.46        23.92594
332.92         23.5791
333.37        23.34549
333.82        23.25375
334.27        23.25249
334.72        23.27565
335.17        23.22037
335.63        23.04852
336.08        22.81284
336.53        22.53042
336.98        22.23861
337.43        21.96532
337.88        21.70448
338.34        21.49179
338.79        21.38718
339.24        21.39608
339.69        21.49689
340.14        21.62971
340.59        21.69388
341.05          21.656
341.50        21.54244
341.95        21.36943
342.40        21.17785
342.85        20.98606
343.30        20.78061
343.75        20.57929
344.20        20.41154
344.66        20.28825
345.11         20.2105
345.56        20.15024
346.01        20.05313
346.46        19.90988
346.91        19.73346
347.36        19.57352
347.81        19.50548
348.26        19.54137
348.72        19.65706
349.17        19.78255
349.62        19.80684
350.07        19.70229
350.52        19.49144
350.97         19.2634
351.42        19.16145
351.87        19.21271
352.32        19.37481
352.77        19.52455
353.22        19.47604
353.67        19.19672
354.13        18.75869
354.58        18.28845
355.03         18.0361
355.48        18.06034
355.93        18.29414
356.38        18.57252
356.83        18.63729
357.28        18.43525
357.73        18.04983
358.18        17.64883
358.63         17.4929
359.08        17.62792
359.53        17.95011
359.98        18.29703
360.43        18.41821
360.88        18.25551
361.33        17.90242
361.78        17.45846
362.23        17.11996
362.68        16.95634
363.13        16.83383
363.58        16.72496
364.03        16.97231
364.48        16.92916
364.93        17.09128
365.38        17.21286
365.83        17.20621
366.28        17.04803
366.73        16.77202
367.18        16.43942
367.63        16.14127
368.08        15.91541
368.53        15.74389
368.98        15.62323
369.43        15.54033
369.88        15.48814
370.33        15.47885
370.78        15.49081
371.23        15.48593
371.68        15.44757
372.13        15.36342
372.58        15.26299
373.03        15.20108
373.48        15.18801
373.93         15.2203
374.38        15.22466
374.83        15.08437
375.28         14.7923
375.72        14.38292
376.17        14.01667
376.62        13.90518
377.07        14.07616
377.52        14.43934
377.97        14.82961
378.42        14.98815
378.87        14.85674
379.32         14.5344
379.77        14.12171
380.22        13.77049
380.67        13.53419
381.11        13.36088
381.56        13.26742
382.01         13.2816
382.46        13.39037
382.91         13.5915
383.36        13.78722
383.81        13.81886
384.26         13.6576
384.71        13.34185
385.15        12.98183
385.60         12.7871
386.05        12.79643
386.50        12.95859
386.95        13.16515
387.40        13.24386
387.85        13.16194
388.29        12.97374
388.74        12.79912
389.19        12.77552
389.64        12.91927
390.09         13.1629
390.54        13.41047
390.98        13.51152
391.43        13.43483
391.88        13.24263
392.33        12.99087
392.78         12.7779
393.23        12.64038
393.67        12.49588
394.12        12.36587
394.57        12.42224
395.02        12.43701
395.47        12.38809
395.91        12.24888
396.36        12.21556
396.81        12.29926
397.26        12.39208
397.71        12.44826
398.15        12.45284
398.60        12.41199
399.05        12.28405
399.50        12.13481
399.95        12.13559
400.39         12.2602
400.84        12.30641
401.29        12.24005
401.74        12.12536
402.18        11.98798
402.63        11.87393
403.08        11.80384
403.53        11.74412
403.97        11.70688
404.42         11.7419
404.87        11.82659
405.32         11.9021
405.76        11.95076
406.21        11.95517
406.66        11.93048
407.11        11.95824
407.55        12.01016
408.00        11.95394
408.45        11.79362
408.90        11.58301
409.34        11.39094
409.79        11.36644
410.24        11.47727
410.68        11.52098
411.13         11.4791
411.58          11.474
412.03        11.51309
412.47        11.54734
412.92        11.56506
413.37         11.5812
413.81        11.57967
414.26         11.5463
414.71        11.47937
415.15        11.38637
415.60        11.29115
416.05        11.23807
416.49         11.2418
416.94        11.28729
417.39        11.35362
417.83        11.40938
418.28        11.43574
418.73        11.43062
419.17        11.40257
419.62         11.3692
420.07        11.34117
420.51        11.32617
420.96         11.2956
421.41        11.22002
421.85        11.10046
422.30        10.90214
422.74        10.71816
423.19         10.8184
423.64        11.16473
424.08        11.44151
424.53        11.53007
424.98        11.57451
425.42        11.55853
425.87        11.29041
426.31        10.89552
426.76        10.80998
427.21        11.00099
427.65        11.04288
428.10        10.92222
428.54        10.89867
428.99        10.96245
429.44        11.07163
429.88        11.14621
430.33         10.9305
430.77        10.55054
431.22        10.46836
431.66        10.68465
432.11        10.87111
432.56        10.97286
433.00        11.08414
433.45        11.08314
433.89        10.85957
434.34        10.62206
434.78        10.03353
435.23        10.39953
435.67        10.74317
436.12         10.9304
436.57        11.06219
437.01        11.03236
437.46        11.01153
437.90         11.0523
438.35        11.10478
438.79        10.83372
439.24        10.71005
439.68        10.65351
440.13         10.6233
440.57        10.60783
441.02        10.68457
441.46        10.81705
441.91         10.7572
442.35        10.57203
442.80        10.69868
443.24        11.03759
443.69        10.97085
444.13         10.5497
444.58        10.35447
445.02         10.3981
445.47        10.39794
445.91        10.33092
446.36        10.30841
446.80        10.32299
447.24        10.34113
447.69        10.37131
448.13         10.4574
448.58        10.57927
449.02        10.66902
449.47        10.71203
449.91        10.73972
450.36         10.7501
450.80        10.71561
451.25        10.64875
451.69        10.58828
452.13        10.53923
452.58        10.48307
453.02        10.42398
453.47        10.37339
453.91        10.33143
454.36        10.31741
454.80        10.30425
455.24        10.23605
455.69          10.135
456.13        10.02746
456.58        9.957642
457.02        10.02809
457.46         10.1853
457.91        10.23071
458.35         10.1965
458.79        10.19802
459.24        10.24652
459.68        10.25281
460.13        10.22744
460.57        10.16881
461.01        10.12999
461.46        10.11891
461.90        10.08717
462.34        10.06925
462.79         10.2187
463.23        10.25855
463.68        10.24017
464.12        10.22598
464.56        10.22608
465.01        10.26711
465.45        10.29522
465.89        10.23007
466.34        10.10783
466.78        9.986968
467.22        9.885353
467.67        10.03965
468.11        10.00712
468.55        10.03078
468.99        9.987815
469.44        9.995746
469.88        10.05104
470.32        10.07975
470.77        10.08122
471.21        10.08577
471.65         10.0981
472.10        10.11172
472.54        10.12365
472.98        10.14376
473.42        10.17543
473.87        10.18723
474.31        10.19042
474.75        10.30021
475.20        10.47842
475.64        10.52577
476.08        10.44298
476.52         10.4338
476.97        10.51329
477.41        10.46998
477.85        10.41243
478.29        10.49568
478.74         10.4581
479.18        10.41912
479.62        10.63127
480.06        10.68524
480.50        10.68821
480.95        10.64542
481.39        10.57194
481.83        10.72267
482.27        10.78391
482.72        10.82693
483.16        11.06694
483.60        11.16023
484.04        11.17554
484.48        11.19282
484.93        11.34597
485.37        11.29245
485.81        11.43699
486.25        11.88863
486.69        11.50241
487.14        11.00035
487.58        12.01887
488.02        12.02286
488.46        11.98541
488.90        12.13456
489.34        11.65785
489.79        11.61655
490.23        12.14344
490.67        12.51063
491.11        12.74275
491.55        12.76364
491.99        12.65104
492.43         12.6958
492.88        12.91814
493.32        13.09126
493.76        13.19636
494.20         13.3587
494.64        13.58641
495.08        13.80059
495.52        13.98166
495.96        14.21686
496.41        14.49925
496.85        14.44444
497.29        14.18869
497.73        14.32018
498.17        14.79002
498.61        15.09175
499.05        15.13528
499.49        15.15825
499.93        15.20156
500.37        15.22695
500.82        15.25822
501.26        15.36658
501.70        15.57011
502.14        15.52804
502.58        15.77812
503.02        15.88501
503.46        15.93972
503.90        15.97245
504.34        15.98582
504.78        16.03449
505.22        16.11827
505.66        16.19214
506.10        16.25679
506.54         16.3581
506.98        16.49813
507.42        16.58714
507.86        16.73395
508.30        16.80054
508.74        16.82159
509.18        16.80252
509.62         16.7814
510.06        16.81833
510.50        16.92399
510.94        17.07931
511.38        17.24365
511.82        17.35236
512.26        17.38789
512.70        17.37043
513.14        17.32955
513.58        17.30591
514.02         17.3144
514.46        17.35683
514.90        17.42061
515.34        17.42441
515.78        17.46197
516.22        17.45954
516.66        17.46575
517.10        17.50533
517.54        17.58089
517.98        17.67914
518.42        17.76524
518.86        17.78813
519.30        17.73804
519.74        17.63291
520.18        17.51215
520.62        17.43678
521.06        17.42316
521.50        17.45543
521.93        17.50667
522.37         17.5234
522.81        17.49484
523.25        17.43597
523.69        17.36903
524.13        17.32856
524.57        17.32028
525.01        17.32718
525.45        17.32836
525.89        17.29296
526.32        17.21089
526.76        17.10303
527.20        16.97914
527.64        16.85699
528.08        16.74507
528.52        16.63639
528.96         16.5426
529.40         16.4811
529.83        16.45144
530.27        16.45178
530.71         16.4502
531.15         16.3947
531.59        16.27847
532.03        16.11818
532.46        15.95806
532.90        15.88159
533.34        15.90124
533.78        15.98932
534.22        16.09819
534.66        16.15547
535.09        16.14167
535.53        16.08209
535.97        16.00335
536.41        15.94956
536.85         15.9349
537.28        15.94538
537.72        15.96951
538.16        15.98791
538.60        15.99589
539.04        16.00626
539.47        16.02134
539.91        16.05182
540.35        16.09619
540.79        16.15435
541.22        16.22079
541.66        16.28816
542.10        16.35485
542.54        16.42438
542.97        16.50126
543.41        16.60247
543.85        16.72692
544.29         16.8682
544.72        17.01527
545.16        17.16538
545.60        17.31018
546.04        17.45322
546.47        17.59393
546.91        17.72635
547.35        17.85033
547.79        17.97456
548.22        18.10405
548.66        18.24506
549.10        18.41009
549.53         18.6611
549.97         18.9677
550.41        19.21379
550.84        19.38194
551.28        19.53052
551.72        19.67459
552.15        19.81568
552.59        19.96632
553.03        20.11582
553.46        20.26628
553.90         20.4388
554.34        20.62921
554.77        20.83931
555.21        21.04009
555.65        21.18383
556.08        21.24066
556.52        21.27466
556.96         21.3037
557.39        21.38729
557.83        21.51986
558.27        21.59713
558.70         21.6234
559.14        21.68468
559.57        21.77681
560.01         21.8788
560.45        21.97078
560.88        22.01036
561.32        22.04001
561.75        22.11876
562.19        22.25009
562.63        22.42877
563.06        22.59758
563.50        22.59048
563.93        22.45018
564.37        22.44527
564.80         22.5863
565.24        22.74027
565.68        22.88496
566.11        23.03544
566.55        23.18688
566.98        23.35137
567.42        23.51766
567.85        23.60104
568.29        23.64429
568.72        23.72257
569.16         23.8512
569.60        24.03361
570.03        24.28419
570.47        24.35733
570.90          24.535
571.34        24.95405
571.77        25.03674
572.21        25.05411
572.64        25.34694
573.08         25.2603
573.51        25.56209
573.95        25.67536
574.38        25.66669
574.82        26.12452
575.25        25.83501
575.69         25.8506
576.12        25.81745
576.56        26.26503
576.99        26.45845
577.42         26.5139
577.86         26.2451
578.29        26.43783
578.73        25.95857
579.16        25.93195
579.60        25.97675
580.03        25.89492
580.47        25.64415
580.90        25.80143
581.33        25.84067
581.77        25.68362
582.20        25.43867
582.64        25.06869
583.07        24.97623
583.51        24.82374
583.94        24.77579
584.37         24.8217
584.81        24.63732
585.24        24.49849
585.68        24.42161
586.11        24.07886
586.54        24.07123
586.98        24.07006
587.41         24.1704
587.85        23.65923
588.28        23.71839
588.71        23.75182
589.15        23.92263
589.58        23.54664
590.01        23.96482
590.45        23.95775
590.88        23.39128
591.31         23.3672
591.75        23.68372
592.18        23.80347
592.61        23.72353
593.05        23.72704
593.48         24.0768
593.91         23.7475
594.35        23.87186
594.78        24.10083
595.21        24.28271
595.65        24.36418
596.08        24.23575
596.51        24.51341
596.94        24.59244
597.38        24.90289
597.81        25.29757
598.24        25.29029
598.68        25.92509
599.11        26.14532
599.54        26.53095
599.97        26.49796
600.41        27.10618
600.84        27.41375
601.27         27.6886
601.70        28.11095
602.14        28.40141
602.57         29.0274
603.00        29.54003
603.43        30.00822
603.87        30.49492
604.30        30.77494
604.73        31.12226
605.16        31.83633
605.60        32.31028
606.03        32.86829
606.46        33.26164
606.89        33.54678
607.32        34.08378
607.76        34.50978
608.19        34.85114
608.62        35.26923
609.05        35.75505
609.48        36.07895
609.92        36.22579
610.35        36.60772
610.78        37.12227
611.21        36.98183
611.64        37.49408
612.07        37.73904
612.50        38.10605
612.94        38.44533
613.37        38.76943
613.80        39.16631
614.23        39.49422
614.66        39.86951
615.09        40.21537
615.52        40.58913
615.96        40.99821
616.39          40.972
616.82        41.22929
617.25        41.55204
617.68         41.4898
618.11        41.72119
618.54        42.05457
618.97        42.38927
619.40        42.63468
619.84        43.04997
620.27         43.1532
620.70         43.1908
621.13        43.03356
621.56        43.43296
621.99        43.50681
622.42        43.61157
622.85        43.46839
623.28        43.90253
623.71        43.91919
624.14        43.56195
624.57         43.9933
625.00        44.08044
625.43        43.76028
625.86          43.668
626.29         43.7256
626.72        43.35165
627.15        43.29379
627.58        43.14595
628.01        43.16824
628.44        42.65303
628.87        42.25234
629.30        42.33443
629.73        41.95027
630.16        41.40842
630.59        41.24871
631.02        40.95309
631.45         40.7273
631.88        40.44138
632.31        40.10503
632.74         39.5509
633.17        39.18936
633.60        38.72969
634.03        38.29612
634.46         37.8754
634.89        37.44772
635.32        36.96811
635.75        36.42984
636.18        35.87493
636.61          35.335
637.04        34.81493
637.47        34.34675
637.89        34.01355
638.32        33.75651
638.75        33.42791
639.18        33.01192
639.61        32.58352
640.04        32.17776
640.47        31.83196
640.90        31.56166
641.33        31.34077
641.76        31.14614
642.18         31.0183
642.61         30.8248
643.04        30.67329
643.47         30.5404
643.90        30.44618
644.33        30.39597
644.76        30.38574
645.18        30.40902
645.61         30.4517
646.04        30.51103
646.47        30.58859
646.90        30.70228
647.33        30.87677
647.75        31.12179
648.18        31.44355
648.61        31.80496
649.04        32.16136
649.47        32.51764
649.89        32.82616
650.32        33.14676
650.75        33.77358
651.18        34.62637
651.61        35.17715
652.03        35.42276
652.46        35.89987
652.89        36.64791
653.32        37.11331
653.74        37.54779
654.17        38.37341
654.60        38.65829
655.03        39.43317
655.46        40.16297
655.88        40.78588
656.31        41.87912
656.74        42.96433
657.16        42.98081
657.59        43.22611
658.02        43.28768
658.45        44.20719
658.87         44.6074
659.30        44.50817
659.73        45.17861
660.15        45.68718
660.58        46.00757
661.01        46.42292
661.44        46.80579
661.86        47.06923
662.29        47.23567
662.72        47.41577
663.14        47.66122
663.57        47.99729
664.00        48.37687
664.42        48.62997
664.85         48.7569
665.27        48.88287
665.70         49.0341
666.13        49.19271
666.55        49.37357
666.98        49.58127
667.41        49.82756
667.83         50.1179
668.26        50.43579
668.69         50.7824
669.11        51.09664
669.54        51.29584
669.96        51.38474
670.39        51.30688
670.82        51.14884
671.24        51.26776
671.67        51.66796
672.09        51.61973
672.52        51.84004
672.94        51.94529
673.37        52.14421
673.80        52.27606
674.22        52.35907
674.65        52.45483
675.07        52.57494
675.50        52.68204
675.92        52.78662
676.35        52.90559
676.77        53.04512
677.20        53.20853
677.62        53.37654
678.05        53.49553
678.47        53.55598
678.90        53.59453
679.32        53.65437
679.75         53.7714
680.17        53.94198
680.60        54.30515
681.02         54.5561
681.45        54.69827
681.87        54.66959
682.30        54.65747
682.72         54.6951
683.15        54.67912
683.57        54.65252
684.00        54.72597
684.42        54.89023
684.85        55.03317
685.27        55.13509
685.70        55.27136
686.12        55.42022
686.54         55.5207
686.97        55.59309
687.39        55.70601
687.82        55.83033
688.24        55.99897
688.66        56.09664
689.09        55.98734
689.51          55.989
689.94        55.96915
690.36        56.04286
690.78        56.12197
691.21        56.20805
691.63         56.3479
692.06        56.51542
692.48        56.62209
692.90        56.67159
693.33        56.73383
693.75         56.8158
694.17        56.87708
694.60        56.90803
695.02        56.95091
695.44        57.00509
695.87         57.0285
696.29        57.04851
696.71        57.18713
697.14        57.39756
697.56        57.49268
697.98        57.47005
698.41        57.54146
698.83        57.69546
699.25        57.82115
699.68        57.91452
700.10        58.07474
700.52        58.29224
700.94        58.54348
701.37        58.75209
701.79        58.82719
702.21        58.73755
702.64        58.52831
703.06         58.2998
703.48        58.22427
703.90        58.34515
704.33        58.61302
704.75        58.92776
705.17         59.1011
705.59        59.08187
706.01         58.9018
706.44        58.67621
706.86        58.68507
707.28        58.80318
707.70        59.13808
708.12         59.5115
708.55        59.61153
708.97        59.44164
709.39         59.3226
709.81        59.31968
710.23        59.30801
710.66        59.31143
711.08        59.45625
711.50        59.66347
711.92        59.75942
712.34        59.72148
712.76        59.60504
713.19        59.48218
713.61        59.50991
714.03        59.70147
714.45        59.99934
714.87        60.31942
715.29        60.53933
715.71        60.62638
716.13        60.61923
716.56        60.54615
716.98        60.52169
717.40        60.55746
717.82        60.62598
718.24        60.71675
718.66        60.81613
719.08        60.91215
719.50        61.00898
719.92        61.09516
720.34        61.14628
720.76        61.15937
721.19        61.13759
721.61        61.09877
722.03        61.04763
722.45        60.99302
722.87        60.93285
723.29        60.90199
723.71        60.94776
724.13        61.06834
724.55          61.283
724.97        61.53452
725.39        61.62952
725.81        61.52285
726.23        61.63378
726.65        61.36535
727.07        61.39865
727.49        61.55783
727.91         61.8128
728.33        62.06642
728.75        62.16999
729.17        62.09278
729.59        61.88683
730.01        61.63002
730.43        61.44554
730.85        61.37411
731.27        61.37452
731.69        61.43825
732.10         61.5529
732.52        61.68683
732.94        61.89251
733.36        62.12629
733.78        62.19305
734.20        62.05375
734.62        62.22815
735.04        61.79691
735.46        61.93459
735.88        62.27255
736.30        62.30051
736.72        62.04918
737.13        62.03885
737.55        62.26138
737.97        62.46418
738.39        62.58069
738.81        62.48852
739.23         62.2624
739.65        62.33931
740.06        62.63907
740.48        62.73282
740.90        62.57447
741.32        62.48262
741.74        62.42311
742.16        62.43671
742.57        62.51418
742.99        62.70563
743.41        62.93118
743.83        62.93669
744.25        62.74995
744.67        62.64965
745.08        62.70617
745.50        62.77037
745.92        62.86609
746.34         63.1112
746.75         63.3927
747.17        63.47075
747.59        63.31247
748.01        62.94366
748.42         62.5372
748.84         62.4567
749.26        62.70086
749.68        63.00216
750.09        63.23291
750.51        63.25093
750.93        63.10503
751.35        63.14332
751.76        63.35107
752.18        63.37931
752.60        63.20895
753.01        63.09975
753.43         63.1271
753.85        63.13457
754.27        63.08686
754.68        63.78172
755.10        63.93738
755.52        63.92296
755.93        63.51929
756.35        63.51908
756.77        63.86119
757.18        64.01302
757.60        64.02779
758.02        63.90561
758.43        63.59184
758.85        64.43501
759.26        64.32557
759.68        63.97577
760.10         63.6543
760.51        63.37479
760.93        63.92537
761.34        64.30166
761.76        64.39891
762.18        64.38051
762.59        64.26315
763.01        64.21474
763.42        64.30437
763.84        64.34865
764.26        64.36572
764.67        64.36655
765.09        64.41698
765.50        64.58356
765.92        64.80747
766.33        64.89786
766.75        64.76543
767.16        64.40308
767.58        63.93626
768.00        63.89023
768.41        64.28487
768.83        64.57996
769.24        64.66868
769.66        64.81337
770.07        64.93774
770.49        64.76125
770.90        64.39252
771.32         64.3098
771.73        64.51802
772.15        64.57812
772.56        64.49648
772.97        64.54789
773.39        64.70713
773.80        64.86879
774.22        64.92915
774.63        65.04869
775.05        65.15643
775.46        65.20129
775.88        65.15406
776.29        65.07728
776.70        64.99689
777.12        64.96233
777.53        64.99895
777.95        65.05988
778.36        65.15929
778.77        65.26297
779.19         65.3588
779.60        65.58566
780.02        65.83281
780.43        65.72897
780.84        65.37382
781.26        65.25053
781.67        65.48243
782.09        65.90314
782.50        66.21383
782.91        66.70962
783.33        65.73523
783.74        65.56964
784.15        65.74765
784.57         65.7781
784.98        65.64593
785.39        65.57711
785.81        65.61759
786.22        65.80312
786.63         66.0755
787.04        66.25939
787.46        66.33695
787.87        66.37947
788.28         66.4018
788.70        66.40265
789.11        66.38673
789.52        66.32389
789.93        66.23131
790.35        66.28581
790.76        66.45124
791.17         66.2948
791.58        65.93132
792.00        65.98145
792.41        66.38889
792.82        66.59305
793.23        66.52214
793.65        66.29068
794.06        66.11854
794.47        66.44773
794.88        67.03317
795.29        67.72658
795.71        67.22525
796.12        66.96835
796.53        66.72115
796.94        66.77296
797.35        67.07835
797.76        67.05563
798.18         66.7454
798.59        66.76511
799.00        67.16087
799.41        67.14382
799.82        67.43903
800.23        67.42781
800.64        67.33286
801.06         67.0998
801.47        66.85474
801.88        66.72533
802.29        66.74178
802.70         66.8803
803.11        67.06644
803.52        67.15661
803.93        67.11453
804.34        67.01628
804.75        66.91425
805.17        66.82939
805.58        66.85304
805.99        67.03061
806.40        67.30241
806.81        67.57204
807.22        67.71755
807.63        67.53271
808.04         67.1279
808.45        66.94587
808.86        67.05428
809.27        67.21812
809.68         67.3581
810.09        67.43915
810.50        67.43173
810.91        67.35321
811.32        67.26752
811.73        67.29176
812.14        67.45314
812.55        67.66806
812.96        67.88319
813.37        68.11004
813.78        68.26777
814.19        68.15898
814.60        67.85884
815.01        67.67788
815.42        67.65531
815.83        67.63546
816.24        67.61248
816.65        67.64507
817.05        67.73237
817.46        67.83314
817.87        67.93701
818.28        67.97601
818.69         67.9362
819.10         67.8272
819.51        67.70354
819.92        67.66597
820.33          67.742
820.74        67.90403
821.14        68.06968
821.55        68.14658
821.96        68.09255
822.37        67.93483
822.78        67.75218
823.19        67.68382
823.60        67.77195
824.00        68.00116
824.41        68.23295
824.82        68.32272
825.23        68.23592
825.64        68.02707
826.04        67.83464
826.45        67.85134
826.86        68.13034
827.27        68.59821
827.68        69.11879
828.08        69.50123
828.49        69.60728
828.90        69.51749
829.31        69.31337
829.72        69.13887
830.12          69.064
830.53        69.01047
830.94        68.93378
831.35        68.72879
831.75        68.40029
832.16        67.96086
832.57        67.54377
832.97        67.32906
833.38        67.36101
833.79        67.59064
834.20        67.90166
834.60        68.11598
835.01        68.20016
835.42         68.1917
835.82        68.18281
836.23        68.26386
836.64        68.48095
837.04        68.79718
837.45        69.09518
837.86        69.28807
838.26        69.35567
838.67        69.32307
839.08        69.23176
839.48         69.1319
839.89        69.05002
840.29        68.96641
840.70        68.91518
841.11        68.95142
841.51        69.09673
841.92        69.31345
842.33        69.52591
842.73         69.5969
843.14        69.45115
843.54        69.14874
843.95        68.81908
844.35        68.69408
844.76        68.81445
845.17        69.11351
845.57        69.44244
845.98        69.51757
846.38        69.29347
846.79         68.8397
847.19        68.32255
847.60        67.96864
848.00        67.87291
848.41        67.93481
848.81        68.09695
849.22        68.19351
849.62        68.20552
850.03        68.16303
850.43        68.10977
850.84        68.02785
851.24        67.97481
851.65        67.89632
852.05         67.8801
852.46        67.99271
852.86        68.22461
853.27        68.54197
853.67        68.81249
854.07        69.01959
854.48        69.11546
854.88        69.16171
855.29        69.05468
855.69         68.7999
856.10        68.33984
856.50        67.76974
856.90        67.22523
857.31        66.94862
857.71         67.0323
858.12        67.35624
858.52        67.79018
858.92        67.98499
859.33        67.83208
859.73        67.45837
860.13        66.95924
860.54        66.54021
860.94        66.32594
861.34        66.23229
861.75        66.22233
862.15        66.30301
862.55        66.42528
862.96        66.61566
863.36        66.81701
863.76        66.91172
864.17        66.86789
864.57        66.71809
864.97        66.54508
865.38        66.47854
865.78        66.58894
866.18        66.80644
866.58         67.0347
866.99        67.11469
867.39        67.02605
867.79         66.8045
868.19        66.51521
868.60         66.2114
869.00        65.91071
869.40        65.62643
869.80        65.39802
870.21        65.30959
870.61        65.44353
871.01        65.70975
871.41        66.02546
871.81        66.27345
872.22        66.39304
872.62         66.4241
873.02        66.38389
873.42        66.30598
873.82        66.21846
874.22        66.13573
874.63        66.06603
875.03        65.99818
875.43        65.94273
875.83        65.89705
876.23        65.92594
876.63          66.131
877.03        66.50478
877.44        66.98655
877.84        67.41692
878.24         67.5122
878.64        67.21895
879.04        66.64695
879.44        65.98463
879.84        65.49032
880.24        65.23392
880.64        65.15996
881.04        65.20345
881.44        65.24644
881.84        65.24567
882.24        65.22881
882.65        65.22314
883.05        65.36462
883.45         65.6194
883.85        65.93145
884.25        66.18534
884.65        66.22501
885.05        66.03089
885.45        65.66125
885.85        65.24709
886.25        65.01595
886.65        65.04126
887.05        65.26302
887.45        65.57392
887.85        65.80638
888.25        65.90128
888.65        65.88885
889.04        65.81451
889.44        65.80179
889.84        65.85168
890.24        65.91985
890.64        65.92004
891.04        65.72623
891.44        65.33775
891.84        64.83837
892.24        64.34985
892.64        64.04948
893.04        63.99254
893.44        64.12775
893.83        64.43964
894.23        64.82911
894.63        65.26669
895.03         65.7505
895.43         66.2029
895.83        66.50111
896.23        66.61691
896.63        66.57182
897.02        66.43978
897.42        66.38039
897.82        66.42141
898.22        66.53106
898.62         66.6637
899.01         66.7474
899.41        66.73861
899.81        66.67113
900.21        66.57622
900.61        66.49833
901.00        66.44684
901.40        66.43814
901.80        66.43018
902.20        66.37016
902.59        66.26544
902.99         66.1204
903.39         66.0266
903.79        66.11722
904.18        66.39771
904.58         66.8072
904.98        67.21458
905.38        67.43786
905.77        67.42524
906.17        67.22947
906.57        66.92915
906.96        66.68719
907.36        66.53792
907.76        66.46207
908.15        66.40813
908.55        66.21471
908.95        65.89658
909.34        65.51508
909.74        65.21574
910.14        65.15299
910.53        65.35697
910.93         65.7308
911.33        66.19556
911.72        66.61459
912.12        66.90009
912.52        67.11072
912.91        67.18305
913.31        67.05409
913.70         66.7429
914.10        66.24489
914.49        65.78015
914.89         65.7026
915.29        66.09959
915.68          66.851
916.08        67.64961
916.47        67.99263
916.87        67.78666
917.26        67.18594
917.66        66.44479
918.05        65.93191
918.45        65.75802
918.84        65.82668
919.24        66.04387
919.64        66.33964
920.03         66.6656
920.42        67.03547
920.82        67.37407
921.21        67.54286
921.61        67.50578
922.00        67.29367
922.40        67.00395
922.79        66.89722
923.19        67.01016
923.58        67.31522
923.98        67.64585
924.37        67.80494
924.77        67.73113
925.16        67.46757
925.55        67.16515
925.95        67.07059
926.34        67.24268
926.74        67.59977
927.13         67.9797
927.52        68.03487
927.92        67.72122
928.31        67.12978
928.70        66.53258
929.10        66.33445
929.49        66.61679
929.89        67.23891
930.28        67.95102
930.67        68.20691
931.07        67.84802
931.46        67.06228
931.85        66.15375
932.24        65.62357
932.64        65.59715
933.03        65.93192
933.42        66.38649
933.82        66.56875
934.21        66.38779
934.60        65.99059
934.99        65.59355
935.39          65.527
935.78        65.90038
936.17         66.5616
936.56        67.34023
936.96        67.93887
937.35        68.28583
937.74        68.44328
938.13        68.42452
938.53        68.25609
938.92        67.98025
939.31        67.55961
939.70        67.13044
940.09        66.94657
940.49        67.03015
940.88        67.35242
941.27        67.68493
941.66        67.65936
942.05        67.21707
942.44         66.5061
942.84        65.75016
943.23        65.25235
943.62        65.14811
944.01        65.33047
944.40        65.74615
944.79        66.29121
945.18        66.85728
945.57         67.4226
945.97        67.83326
946.36        67.94807
946.75        67.71477
947.14        67.17869
947.53        66.43995
947.92        65.71048
948.31        65.10241
948.70        64.59952
949.09        64.25086
949.48        64.09908
949.87         64.1339
950.26        64.36166
950.65        64.66291
951.04        64.83274
951.43        64.81709
951.82        64.63805
952.21        64.41492
952.60           64.38
952.99        64.57988
953.38        64.92506
953.77        65.25778
954.16        65.34154
954.55        65.12505
954.94        64.69096
955.33        64.16256
955.72        63.74255
956.11        63.49833
956.50        63.37345
956.89        63.31302
957.28        63.21205
957.66        63.06548
958.05        62.92244
958.44        62.79697
958.83        62.69814
959.22        62.62646
959.61        62.52664
960.00        62.47642
960.39        62.61324
960.78         62.9322
961.16        63.42519
961.55        63.79945
961.94        63.64364
962.33        62.91415
962.72        61.82094
963.11        60.75197
963.49        60.27075
963.88        60.50702
964.27        61.28469
964.66        62.41618
965.04        63.54919
965.43        64.40641
965.82        65.08707
966.21        65.52878
966.60        65.67868
966.98        65.55689
967.37        65.09254
967.76        64.45468
968.15        63.98138
968.53        63.82227
968.92        63.98222
969.31        64.25156
969.69        64.24734
970.08        63.90017
970.47         63.3294
970.86        62.93404
971.24        63.39756
971.63        64.72474
972.02        66.59656
972.40        68.46418
972.79        69.45859
973.17        69.52383
973.56        68.84223
973.95        67.81776
974.33        67.14101
974.72         67.0405
975.11        67.28425
975.49        67.62489
975.88        67.68121
976.26        67.34237
976.65        66.80543
977.04        66.11735
977.42        65.30724
977.81        64.40792
978.19        63.34224
978.58         62.5481
978.96        62.71101
979.35        63.90117
979.74        65.93172
980.12        68.03751
980.51        68.76541
980.89        67.88646
981.28        65.65681
981.66        62.95168
982.05        61.48136
982.43        61.75772
982.82        63.26718
983.20        65.19187
983.59        66.07645
983.97        65.65452
984.35        64.34423
984.74        62.74047
985.12        61.83882
985.51        61.96958
985.89        62.79421
986.28        63.92506
986.66        64.95796
987.04        65.68647
987.43        66.17149
987.81        66.51852
988.20        66.78974
988.58        67.03337
988.96        67.22805
989.35         67.0503
989.73        66.09772
990.12         64.2782
990.50        61.59903
990.88        58.85867
991.27        57.87135
991.65        59.17205
992.03        62.15949
992.42        65.24768
992.80        66.82629
993.18        66.50575
993.56        64.63702
993.95        61.97918
994.33        60.38917
994.71        60.84856
995.10        62.46524
995.48        64.34016
995.86        65.44395
996.24        65.65564
996.63        65.29402
997.01        64.70074
997.39         64.4613
997.77        64.81747
998.15        65.51366
998.54        66.09872
998.92        66.03833
999.30        65.21652
999.68        63.82233
1000.06        62.32273
1000.45        61.51152
1000.83        61.71539
1001.21        62.66306
1001.59        63.82562
1001.97        64.42245
1002.35        64.25391
1002.73        63.50608
1003.12        62.55146
1003.50        61.99419
1003.88        62.14838
1004.26        62.75326
1004.64        63.43918
1005.02        63.76041
1005.40        63.65025
1005.78        63.28271
1006.16        62.85332
1006.54        62.69769
1006.92        62.92147
1007.30        63.38901
1007.69        63.99798
1008.07        64.43026
1008.45        64.64127
1008.83        64.69625
1009.21        64.59045
1009.59        64.30422
1009.97        63.81538
1010.35        63.06929
1010.73        62.14057
1011.11        61.32047
1011.49        60.85064
1011.86        60.86983
1012.24        61.09724
1012.62        61.32798
1013.00        61.51648
1013.38        61.73674
1013.76        62.10536
1014.14        62.82693
1014.52        63.92217
1014.90          65.254
1015.28        66.62762
1015.66         67.6607
1016.04        68.13643
1016.41        68.20968
1016.79        67.71397
1017.17        66.80563
1017.55        65.61574
1017.93        64.24329
1018.31        62.96716
1018.69          62.163
1019.06        62.00087
1019.44        62.51406
1019.82        63.61739
1020.20        65.01802
1020.58        66.37978
1020.95        67.43163
1021.33        68.23751
1021.71        68.98259
1022.09        69.66804
1022.46        70.23408
1022.84        70.20573
1023.22        68.57234
1023.60        65.04471
1023.97        59.49036
1024.35        53.32493
1024.73        49.50623
