SpectraSmart Spectrum 2.9.0.0
--------- Device Information -----------
Spectrum Name :  反射率_0
Saving Time :  2024/04/27 22:17:18
Spectro-Module Model Name : SE2030-DUVN
Spectro-Module Serial Number : OS361AC55029948
Wavelength Start : 200
Wavelength End : 1025
Wavelength Unit : Wavelength(nm)
Spectrum Unit : Reflectance(%)
-----------Spectrum Setting ------------
Integration Time : 20ms
Average : 10
Boxcar : 0
Background removal :  enabled
linearity correction :  enabled
SC :  disabled
Intensity correction :  disabled
DWT denoise :  enabled
savitzky-golay :  disabled
FFT :  disabled
Running average :  disabled
Kalman :  disabled
High pass :  disabled
---------------BEGIN--------------------
Wavelength(nm)             Reflectance(%)
200.29               0
200.75       -113.3662
201.21       -56.24836
201.67        -8.56928
202.13        13.05607
202.58         18.0289
203.04        15.12595
203.50          11.445
203.96        15.11484
204.42        25.62298
204.88        38.22836
205.34        48.67822
205.80        53.95505
206.26        53.91171
206.72          48.114
207.18        36.36798
207.64        27.14357
208.10        28.36536
208.55         36.1384
209.01        40.01409
209.47        34.82055
209.93          16.998
210.39       -31.11657
210.85       -177.4014
211.31       -354.5849
211.77       -142.4209
212.23       -3.566745
212.69        45.08525
213.14        59.30154
213.60        57.65869
214.06        44.30074
214.52        15.93801
214.98       -10.45981
215.44       -9.809281
215.90        3.293028
216.36        16.51962
216.81        25.84994
217.27        32.05602
217.73        38.10761
218.19        42.92754
218.65        43.51232
219.11        39.28006
219.57        30.53943
220.02        19.67705
220.48        14.94828
220.94        18.76164
221.40        27.46943
221.86        37.70269
222.32        46.23422
222.77        52.42465
223.23        57.19179
223.69        59.97627
224.15        59.94592
224.61         57.4693
225.06        52.66751
225.52        47.70277
225.98        46.44548
226.44        49.06298
226.90        53.19761
227.36        56.62943
227.81        57.63383
228.27        56.37179
228.73        53.47531
229.19        49.53294
229.65        45.92157
230.10        43.41693
230.56        42.07257
231.02         41.4768
231.48        41.11246
231.93        40.75661
232.39        40.59921
232.85        41.02789
233.31         42.5695
233.77        45.06433
234.22        48.20806
234.68        50.89246
235.14        51.79254
235.60         50.7013
236.05        47.73091
236.51        44.14299
236.97        42.84746
237.43         44.9801
237.88        49.96728
238.34        55.18978
238.80        57.75098
239.26        56.81382
239.71        51.79641
240.17        42.98888
240.63        38.42959
241.08        44.79691
241.54        56.02285
242.00        64.61653
242.46        67.42078
242.91        64.95552
243.37        56.00515
243.83        35.22639
244.28        5.012255
244.74       -4.580662
245.20        12.41121
245.66        32.02055
246.11        41.99042
246.57         44.8666
247.03        44.66968
247.48        42.35775
247.94        42.37638
248.40        47.37712
248.85        53.07151
249.31        57.22407
249.77        59.33239
250.22         59.8829
250.68        59.50954
251.14        58.91355
251.59        58.46017
252.05        58.10855
252.51        57.36658
252.96        55.21083
253.42        51.31937
253.88        46.95169
254.33        44.46548
254.79        43.67827
255.25        43.31776
255.70        43.19285
256.16        43.56739
256.62        45.49084
257.07        49.94912
257.53        55.85127
257.99        61.52086
258.44        65.20514
258.90        65.84013
259.35        63.79944
259.81        60.64421
260.27        57.39797
260.72        55.27719
261.18        54.63528
261.63        54.58954
262.09        54.82737
262.55         54.6576
263.00        53.93789
263.46        53.08466
263.91          52.152
264.37        51.52788
264.83        51.18507
265.28        50.95494
265.74        50.78725
266.19        50.43169
266.65        49.93273
267.11        49.31759
267.56        48.66266
268.02        48.18344
268.47        47.86578
268.93        47.65195
269.38        47.42775
269.84        47.05264
270.30        46.48417
270.75        45.77775
271.21        44.97996
271.66        44.11096
272.12        43.22806
272.57        42.29166
273.03        41.41438
273.48        40.67829
273.94        40.14619
274.39        39.74732
274.85        39.41185
275.31        38.93957
275.76        38.28154
276.22        37.53894
276.67        36.77691
277.13        36.20381
277.58        35.79119
278.04        35.52106
278.49        35.23876
278.95        34.84943
279.40         34.2781
279.86        33.64085
280.31        32.97932
280.77        32.48282
281.22        32.13474
281.68        31.92591
282.13        31.74799
282.59        31.51446
283.04         31.1829
283.50        30.81012
283.95        30.44099
284.41         30.1908
284.86        30.05847
285.32        30.02308
285.77        30.00286
286.22        29.92612
286.68        29.79272
287.13        29.59774
287.59        29.40914
288.04        29.24687
288.50        29.15347
288.95        29.08377
289.41        29.04499
289.86        28.99676
290.32        28.95403
290.77        28.92107
291.22        28.91137
291.68        28.93464
292.13        28.98693
292.59        29.08228
293.04        29.23222
293.50        29.48323
293.95        29.82948
294.40        30.26926
294.86        30.76659
295.31        31.25527
295.77        31.72734
296.22        32.18031
296.68        32.66299
297.13        33.22813
297.58        33.88424
298.04         34.6058
298.49        35.32072
298.95        35.94717
299.40        36.46838
299.85         36.9175
300.31        37.38669
300.76        37.97613
301.21        38.70855
301.67        39.54458
302.12        40.36077
302.58        41.03099
303.03        41.50445
303.48        41.83379
303.94        42.13407
304.39        42.52122
304.84        43.03734
305.30        43.64502
305.75         44.2167
306.20        44.61284
306.66        44.82336
307.11        44.87152
307.57        44.89164
308.02        45.01142
308.47        45.27548
308.93        45.63214
309.38        45.96399
309.83        46.13469
310.29        46.12804
310.74        45.98446
311.19        45.78762
311.65         45.6613
312.10        45.62189
312.55        45.63299
313.00           45.67
313.46        45.69773
313.91        45.69173
314.36        45.67481
314.82        45.61395
315.27        45.44943
315.72        45.18172
316.18        44.83574
316.63        44.48049
317.08        44.25239
317.53        44.17785
317.99        44.21388
318.44        44.28215
318.89        44.23537
319.35         44.0351
319.80        43.72716
320.25        43.37698
320.70        43.09731
321.16        42.91099
321.61        42.78703
322.06        42.67716
322.51        42.50945
322.97        42.25911
323.42        41.97481
323.87        41.66996
324.32        41.37308
324.78        41.09513
325.23        40.83186
325.68        40.60357
326.13        40.45575
326.59        40.37358
327.04        40.36596
327.49        40.35077
327.94        40.20406
328.39        39.89644
328.85        39.45119
329.30        38.96513
329.75        38.58097
330.20        38.35268
330.66        38.23336
331.11        38.19001
331.56        38.10283
332.01        37.93677
332.46        37.72554
332.92        37.49456
333.37         37.3317
333.82        37.24174
334.27        37.18661
334.72        37.13951
335.17        37.06291
335.63        36.93505
336.08        36.80214
336.53        36.63878
336.98        36.41544
337.43         36.1449
337.88        35.84103
338.34        35.58833
338.79        35.53537
339.24        35.69839
339.69        36.01902
340.14        36.37448
340.59        36.56361
341.05         36.5286
341.50        36.33665
341.95        36.04152
342.40        35.74405
342.85        35.48996
343.30        35.24817
343.75        35.05746
344.20        34.98013
344.66        35.02198
345.11        35.17172
345.56        35.33828
346.01        35.36428
346.46        35.21716
346.91        34.93681
347.36        34.63352
347.81        34.48042
348.26        34.51711
348.72        34.69641
349.17        34.90847
349.62        34.98034
350.07        34.86957
350.52        34.62156
350.97        34.36093
351.42        34.28508
351.87        34.42689
352.32        34.71413
352.77        34.98449
353.22          34.994
353.67        34.69854
354.13        34.19851
354.58        33.63373
355.03         33.2795
355.48        33.20678
355.93        33.33164
356.38         33.5261
356.83        33.58913
357.28        33.46658
357.73         33.2292
358.18         32.9508
358.63        32.74172
359.08        32.63188
359.53        32.57281
359.98        32.53211
360.43         32.4676
360.88        32.36382
361.33        32.23941
361.78        32.08539
362.23        31.91502
362.68        31.73947
363.13        31.49553
363.58        31.19621
364.03        31.18299
364.48        30.94879
364.93        30.88741
365.38        30.81347
365.83        30.68574
366.28        30.48899
366.73        30.25122
367.18        29.99287
367.63        29.73289
368.08        29.48801
368.53        29.25386
368.98        29.05371
369.43        28.92383
369.88        28.86558
370.33        28.86612
370.78        28.87814
371.23         28.8256
371.68        28.68183
372.13        28.45401
372.58        28.18209
373.03        27.93569
373.48        27.74001
373.93        27.59392
374.38        27.44893
374.83        27.22382
375.28        26.91563
375.72        26.54778
376.17        26.24827
376.62        26.17056
377.07        26.32636
377.52        26.63607
377.97        26.95956
378.42        27.08117
378.87        26.95021
379.32        26.64732
379.77        26.24846
380.22        25.86963
380.67        25.55703
381.11        25.27477
381.56        25.05755
382.01        24.96342
382.46        24.99173
382.91         25.1335
383.36        25.28665
383.81        25.28396
384.26        25.09316
384.71        24.75779
385.15        24.38297
385.60        24.17416
386.05        24.16633
386.50        24.30433
386.95        24.48662
387.40        24.55444
387.85        24.47456
388.29        24.28885
388.74        24.11253
389.19        24.05102
389.64        24.11751
390.09        24.25338
390.54        24.38843
390.98        24.41045
391.43         24.3091
391.88        24.13555
392.33        23.91596
392.78        23.72428
393.23        23.59274
393.67         23.3931
394.12        23.18728
394.57        23.33995
395.02         23.4336
395.47        23.41272
395.91        23.18724
396.36        23.07447
396.81        23.09294
397.26        23.06792
397.71         22.9924
398.15        22.94377
398.60        22.94739
399.05        22.89154
399.50        22.81556
399.95        22.92301
400.39        23.14132
400.84        23.11888
401.29        22.86771
401.74        22.63914
402.18        22.51007
402.63        22.51699
403.08        22.61413
403.53        22.59729
403.97        22.45511
404.42        22.33899
404.87        22.27798
405.32        22.26992
405.76        22.31647
406.21        22.35507
406.66        22.38478
407.11        22.51492
407.55        22.67698
408.00        22.63589
408.45        22.40375
408.90        22.08509
409.34        21.80668
409.79        21.84021
410.24        22.11583
410.68        22.23489
411.13        22.16145
411.58        22.13895
412.03        22.19204
412.47        22.24087
412.92        22.27409
413.37        22.31713
413.81        22.34003
414.26        22.31713
414.71        22.24175
415.15        22.12637
415.60        22.00261
416.05        21.94055
416.49         21.9598
416.94        22.03415
417.39        22.12514
417.83        22.17382
418.28        22.15549
418.73        22.07737
419.17        21.96655
419.62        21.87138
420.07        21.81593
420.51        21.79837
420.96        21.78224
421.41        21.73617
421.85        21.65224
422.30        21.44898
422.74        21.23072
423.19        21.41677
423.64        21.91921
424.08        22.14692
424.53        22.00537
424.98        21.97047
425.42        22.06101
425.87        21.84909
426.31        21.46212
426.76        21.56057
427.21        22.03889
427.65        22.09539
428.10        21.76406
428.54        21.65937
428.99        21.78853
429.44        22.01861
429.88        22.19607
430.33         21.8143
430.77        21.12786
431.22        21.08376
431.66        21.63085
432.11        22.06284
432.56        22.25889
433.00        22.26141
433.45        21.96267
433.89        21.78507
434.34        21.98102
434.78        20.94733
435.23        21.40874
435.67        21.96327
436.12        22.36553
436.57        22.42185
437.01         22.0027
437.46        21.80564
437.90        21.96625
438.35         22.2875
438.79        22.02357
439.24        21.99482
439.68        21.99974
440.13        21.99287
440.57        21.96359
441.02        22.06601
441.46        22.23624
441.91        22.04893
442.35        21.65005
442.80         21.7901
443.24        22.34304
443.69        22.42389
444.13        22.03248
444.58        21.88011
445.02        21.96679
445.47        21.92594
445.91        21.76345
446.36        21.69072
446.80         21.7137
447.24        21.75852
447.69         21.8241
448.13        21.96174
448.58        22.13161
449.02        22.20874
449.47         22.1952
449.91         22.1957
450.36        22.21856
450.80        22.18936
451.25        22.12218
451.69        22.07478
452.13        22.04862
452.58        22.00953
453.02        21.95774
453.47        21.90387
453.91        21.84738
454.36        21.82524
454.80        21.79878
455.24        21.67934
455.69        21.51581
456.13        21.35455
456.58        21.26269
457.02        21.42047
457.46        21.70676
457.91        21.72064
458.35        21.55499
458.79        21.49426
459.24        21.57067
459.68        21.58657
460.13        21.55622
460.57        21.47064
461.01        21.43171
461.46        21.45765
461.90        21.43508
462.34        21.42235
462.79        21.74606
463.23        21.81677
463.68        21.75277
464.12        21.68978
464.56        21.66204
465.01        21.72458
465.45        21.78118
465.89        21.67742
466.34        21.48712
466.78        21.32639
467.22        21.21676
467.67        21.64075
468.11        21.63366
468.55        21.72616
468.99        21.64563
469.44        21.63901
469.88        21.70398
470.32        21.67945
470.77        21.59668
471.21        21.57888
471.65        21.64184
472.10        21.75411
472.54        21.85937
472.98        21.90364
473.42         21.8822
473.87        21.75839
474.31        21.59843
474.75        21.70119
475.20        22.00484
475.64        22.07219
476.08        21.90927
476.52        21.93403
476.97        22.16745
477.41        22.19557
477.85        22.21999
478.29        22.38141
478.74        22.33536
479.18         22.1646
479.62        22.51687
480.06        22.58871
480.50        22.62384
480.95        22.61123
481.39        22.53169
481.83        22.84257
482.27        22.85917
482.72        22.77347
483.16        23.09207
483.60         23.1655
484.04        23.16113
484.48        23.23193
484.93         23.5835
485.37        23.40654
485.81        23.69618
486.25        24.41943
486.69        24.19411
487.14        23.30999
487.58        24.44538
488.02        24.27093
488.46        24.45851
488.90        25.00053
489.34        24.17821
489.79        23.97322
490.23        24.75286
490.67        24.99529
491.11        24.96065
491.55        25.02198
491.99        25.23495
492.43        25.45976
492.88        25.68257
493.32        25.90951
493.76        26.11483
494.20        26.33652
494.64        26.58946
495.08        26.77233
495.52        26.89066
495.96        27.19507
496.41        27.62844
496.85        27.53122
497.29        27.08913
497.73        27.23575
498.17        27.89695
498.61        28.36543
499.05        28.48537
499.49        28.49349
499.93        28.46266
500.37        28.47844
500.82        28.56552
501.26        28.69457
501.70        28.92594
502.14        28.82952
502.58        29.38656
503.02        29.60191
503.46        29.63485
503.90        29.64616
504.34        29.64163
504.78        29.67716
505.22        29.75587
505.66        29.80942
506.10        29.85693
506.54        30.01103
506.98        30.27783
507.42         30.4769
507.86        30.78766
508.30        30.92475
508.74        30.93958
509.18        30.85042
509.62        30.72577
510.06        30.67594
510.50        30.72944
510.94        30.85774
511.38        31.01256
511.82        31.11471
512.26         31.1425
512.70        31.12571
513.14         31.0973
513.58        31.09516
514.02        31.13167
514.46        31.21184
514.90        31.32298
515.34        31.33684
515.78        31.42459
516.22        31.44784
516.66        31.47112
517.10          31.505
517.54          31.553
517.98        31.60649
518.42        31.64712
518.86        31.65251
519.30         31.6185
519.74        31.55398
520.18        31.48212
520.62        31.43715
521.06        31.42867
521.50        31.45051
521.93        31.48267
522.37        31.48227
522.81        31.44313
523.25        31.37289
523.69        31.29952
524.13         31.2674
524.57        31.28159
525.01        31.32477
525.45        31.35575
525.89        31.31009
526.32        31.17425
526.76        30.98366
527.20        30.77993
527.64        30.63342
528.08        30.56258
528.52        30.54057
528.96        30.54895
529.40        30.55806
529.83        30.55101
530.27        30.54296
530.71        30.51073
531.15        30.41913
531.59        30.26965
532.03        30.07444
532.46        29.88169
532.90         29.7852
533.34        29.79922
533.78        29.89635
534.22        30.02382
534.66        30.09918
535.09        30.09733
535.53        30.04862
535.97        29.97849
536.41        29.93403
536.85        29.92958
537.28        29.95004
537.72        29.98089
538.16        29.99674
538.60        29.99389
539.04         29.9922
539.47        29.99706
539.91        30.03065
540.35        30.09117
540.79        30.17961
541.22        30.28474
541.66        30.39158
542.10        30.49429
542.54        30.59599
542.97        30.70487
543.41        30.85186
543.85         31.0345
544.29        31.24421
544.72        31.45226
545.16        31.63582
545.60        31.78002
546.04        31.89143
546.47        31.99617
546.91        32.13268
547.35        32.30548
547.79        32.51783
548.22        32.73097
548.66        32.87327
549.10        32.95887
549.53        33.12601
549.97        33.38214
550.41        33.61919
550.84        33.82667
551.28        34.08468
551.72        34.37448
552.15        34.58205
552.59        34.69662
553.03        34.90783
553.46        34.92968
553.90        35.06523
554.34        35.22973
554.77        35.42622
555.21        35.62292
555.65         35.7764
556.08        35.84396
556.52        35.92012
556.96        36.00674
557.39        36.15744
557.83         36.3503
558.27        36.42175
558.70         36.3927
559.14        36.43716
559.57        36.55514
560.01        36.68721
560.45        36.80283
560.88        36.85089
561.32        36.88609
561.75        36.98592
562.19        37.15548
562.63        37.35291
563.06        37.52141
563.50        37.52066
563.93        37.39993
564.37        37.43492
564.80        37.63228
565.24         37.8686
565.68        38.09841
566.11        38.29051
566.55        38.43803
566.98        38.57484
567.42        38.70957
567.85        38.74841
568.29        38.76937
568.72        38.88257
569.16        39.07562
569.60        39.30491
570.03        39.58504
570.47        39.53499
570.90        39.59366
571.34        40.18641
571.77        40.21247
572.21        40.20093
572.64        40.61188
573.08        40.57563
573.51         40.6567
573.95         40.8399
574.38        41.09819
574.82        41.33103
575.25        41.41135
575.69        41.21917
576.12        41.04535
576.56        41.65396
576.99        41.59808
577.42        41.48555
577.86         41.3983
578.29         41.7541
578.73        41.51123
579.16        41.47292
579.60        41.24863
580.03        41.10416
580.47        41.06903
580.90        40.84377
581.33        41.10826
581.77         40.8716
582.20         40.8393
582.64        40.41941
583.07        40.35254
583.51        40.18422
583.94        40.20545
584.37        40.17543
584.81        40.07774
585.24         39.9266
585.68        39.80635
586.11        39.63556
586.54         39.4548
586.98        39.36024
587.41        39.72446
587.85        39.03319
588.28        39.23873
588.71        39.32899
589.15        39.32025
589.58        39.03962
590.01        39.17442
590.45        39.34378
590.88        38.77238
591.31        38.78252
591.75        39.05706
592.18        39.20284
592.61        39.23998
593.05        39.49908
593.48        39.73228
593.91        39.43911
594.35        39.37167
594.78         39.5436
595.21        39.53014
595.65        39.66484
596.08        39.67993
596.51        40.32621
596.94        40.21583
597.38        40.56348
597.81        40.98464
598.24        40.89449
598.68        41.27586
599.11        41.59732
599.54        42.11343
599.97        42.52979
600.41        42.78775
600.84        43.09078
601.27        43.38914
601.70        43.73099
602.14        43.71321
602.57        44.32491
603.00          44.912
603.43        45.38915
603.87        45.83266
604.30        46.01864
604.73        46.35483
605.16        46.93909
605.60        47.33442
606.03        47.94268
606.46        48.50932
606.89        48.78595
607.32        49.03585
607.76        49.61779
608.19        49.60071
608.62        49.77074
609.05        49.92311
609.48        50.20229
609.92        50.55433
610.35        51.17096
610.78        51.38865
611.21        51.56306
611.64        52.11559
612.07        52.32783
612.50        52.38393
612.94        52.56169
613.37        52.94499
613.80        52.86881
614.23         53.2709
614.66        53.49686
615.09        53.76405
615.52        54.02604
615.96         54.3277
616.39        54.15226
616.82        54.43629
617.25        54.76487
617.68        54.83374
618.11        54.87714
618.54        54.80238
618.97        55.36832
619.40        55.65273
619.84         56.2301
620.27        56.22301
620.70        56.15966
621.13        55.87022
621.56        56.45499
621.99         56.5338
622.42        56.42265
622.85        56.29874
623.28        56.61703
623.71        56.51775
624.14        56.38019
624.57        57.00996
625.00        56.54766
625.43        56.57541
625.86        56.36843
626.29        56.38881
626.72        55.95297
627.15        56.05616
627.58        55.98429
628.01        56.01002
628.44        55.88131
628.87        55.45009
629.30        55.72567
629.73         55.1789
630.16        54.71384
630.59        54.56968
631.02        54.35081
631.45        54.20318
631.88        54.00228
632.31        53.76076
632.74        53.28236
633.17        53.11802
633.60        52.68606
634.03        52.41912
634.46        52.08434
634.89        51.75569
635.32        51.38636
635.75         50.9687
636.18        50.56569
636.61        50.18792
637.04        49.69826
637.47        49.29097
637.89        48.97041
638.32        48.74488
638.75        48.46687
639.18        48.12725
639.61        47.80866
640.04        47.51147
640.47        47.21406
640.90        46.92238
641.33        46.62648
641.76        46.33461
642.18        46.17601
642.61        45.97398
643.04        45.86543
643.47        45.79459
643.90        45.75836
644.33        45.74931
644.76        45.77115
645.18        45.81221
645.61        45.84362
646.04        45.86689
646.47         45.8914
646.90        45.94776
647.33        46.08954
647.75        46.33199
648.18        46.64803
648.61        47.00582
649.04        47.40059
649.47        47.79562
649.89        48.07796
650.32        48.29766
650.75         48.6825
651.18        49.21904
651.61        49.68934
652.03        50.01395
652.46        50.30656
652.89        50.70624
653.32        50.93459
653.74        51.26176
654.17        52.57218
654.60        52.71721
655.03        53.01335
655.46        53.30782
655.88          54.121
656.31        55.47673
656.74        57.00333
657.16        56.04654
657.59        56.20843
658.02         55.8577
658.45        56.64949
658.87        56.74866
659.30        57.23291
659.73        57.11155
660.15        57.27701
660.58        57.57087
661.01        57.95895
661.44        58.37347
661.86        58.59647
662.29        58.63709
662.72        58.60336
663.14         58.6087
663.57         58.8534
664.00        59.28693
664.42        59.54848
664.85        59.62273
665.27        59.74294
665.70        59.92367
666.13        60.07318
666.55         60.1975
666.98        60.32016
667.41        60.44961
667.83        60.59126
668.26        60.73801
668.69         60.8984
669.11         61.0564
669.54        61.18399
669.96        61.28834
670.39        61.34104
670.82        61.37743
671.24        61.52244
671.67        61.79354
672.09        61.87318
672.52        62.22855
672.94        62.28045
673.37        62.21223
673.80         62.1968
674.22        62.27545
674.65        62.31917
675.07        62.35351
675.50        62.45435
675.92        62.61643
676.35        62.79123
676.77        62.97545
677.20        63.12747
677.62        63.24969
678.05        63.45552
678.47        63.68107
678.90        63.65168
679.32        63.43798
679.75        63.41953
680.17        63.62344
680.60        63.86099
681.02        64.06903
681.45        64.19825
681.87        64.23331
682.30        64.19424
682.72        64.14332
683.15        64.14861
683.57        64.25429
684.00        64.44684
684.42         64.6863
684.85        64.89426
685.27        65.03961
685.70        65.15179
686.12        65.23611
686.54        65.32325
686.97        65.40062
687.39        65.46143
687.82        65.50942
688.24        65.42625
688.66        65.53065
689.09        65.54765
689.51        65.58482
689.94        65.62037
690.36        65.66506
690.78        65.71886
691.21        65.77734
691.63        65.83013
692.06        65.87618
692.48        65.91094
692.90        65.95165
693.33        66.00708
693.75        66.08578
694.17        66.21899
694.60        66.35744
695.02        66.41846
695.44        66.42258
695.87        66.41755
696.29        66.42789
696.71        66.72544
697.14        67.23338
697.56        67.25056
697.98        66.73794
698.41        67.46015
698.83        67.17214
699.25        67.42369
699.68        67.50534
700.10        67.58779
700.52        67.64399
700.94        67.66806
701.37        67.69176
701.79        67.74014
702.21        67.80714
702.64        67.90237
703.06        67.99558
703.48        68.05961
703.90        68.09571
704.33        68.10593
704.75        68.12486
705.17        68.18801
705.59        68.30344
706.01        68.43251
706.44        68.55432
706.86        68.75789
707.28        68.83773
707.70        68.94604
708.12        69.03596
708.55        69.05697
708.97        69.14861
709.39        69.07041
709.81        68.91917
710.23        68.88272
710.66        68.98672
711.08        69.15668
711.50        69.32027
711.92        69.42307
712.34        69.44572
712.76         69.4026
713.19        69.33541
713.61          69.362
714.03        69.48507
714.45        69.67301
714.87         69.8726
715.29        69.99912
715.71        70.03365
716.13        70.01621
716.56        69.97054
716.98        69.98473
717.40        70.07148
717.82        70.26318
718.24        70.51431
718.66        70.69978
719.08        70.79333
719.50        70.84509
719.92         70.8737
720.34        70.89274
720.76        70.91113
721.19        70.91453
721.61        70.90817
722.03         70.8698
722.45        70.80208
722.87        70.72303
723.29        70.65585
723.71        70.63218
724.13        70.66469
724.55        70.74592
724.97        70.86956
725.39        71.02379
725.81        71.19347
726.23        71.36759
726.65        71.53093
727.07        71.66425
727.49        71.75996
727.91        71.82039
728.33        71.83607
728.75        71.79695
729.17        71.70914
729.59        71.58086
730.01        71.45287
730.43        71.38828
730.85        71.40082
731.27        71.47617
731.69        71.57632
732.10        71.63937
732.52        71.63368
732.94        71.62261
733.36        71.64052
733.78        71.64544
734.20        71.63346
734.62        72.09612
735.04        71.83486
735.46         72.2964
735.88        72.60351
736.30        72.42107
736.72        71.77871
737.13        71.68612
737.55        72.10838
737.97        72.29766
738.39        72.20142
738.81        72.05743
739.23        71.96754
739.65        72.22948
740.06        72.69319
740.48        72.87929
740.90        72.72279
741.32        72.58337
741.74        72.44364
742.16        72.40202
742.57        72.46335
742.99        72.66238
743.41        72.90331
743.83         72.9072
744.25        72.69265
744.67         72.5414
745.08        72.53252
745.50        72.54031
745.92        72.59708
746.34        72.79803
746.75        73.05963
747.17        73.19081
747.59        73.15012
748.01        72.97613
748.42        72.77585
748.84        72.71475
749.26        72.74998
749.68        73.04185
750.09        72.80044
750.51        72.77576
750.93        72.77092
751.35        72.85352
751.76        73.00269
752.18        73.08431
752.60         73.1016
753.01        73.14973
753.43        73.21946
753.85         73.2887
754.27         73.3553
754.68        73.41511
755.10        73.48658
755.52        73.60177
755.93        73.77157
756.35        73.97665
756.77        74.09508
757.18        74.19494
757.60        74.31898
758.02        73.94163
758.43        73.10122
758.85        74.22707
759.26        73.92513
759.68         74.0862
760.10        73.77483
760.51        73.44435
760.93        74.07645
761.34        73.59922
761.76        74.43285
762.18        74.42188
762.59        74.28007
763.01        74.26842
763.42        74.46888
763.84        74.52465
764.26         74.4444
764.67        74.46969
765.09        74.60922
765.50        74.61565
765.92        74.52528
766.33        74.50631
766.75        74.50565
767.16        74.42088
767.58        74.24768
768.00        74.27244
768.41        74.51473
768.83        74.66705
769.24        74.69849
769.66        74.86678
770.07        75.09619
770.49        75.04065
770.90        74.76785
771.32        74.89359
771.73        75.07886
772.15        75.16417
772.56        75.06161
772.97        74.97194
773.39        74.92465
773.80        75.03214
774.22        75.23743
774.63        75.36211
775.05        75.35996
775.46        75.42861
775.88        75.53613
776.29        75.59684
776.70        75.60524
777.12        75.63508
777.53        75.70682
777.95        75.76013
778.36        75.81638
778.77         75.8796
779.19        75.95645
779.60        76.11082
780.02        76.25587
780.43        76.25259
780.84        76.12574
781.26        75.89146
781.67        75.74632
782.09        76.14975
782.50        76.73502
782.91        77.27342
783.33        75.90897
783.74        75.67696
784.15        76.07073
784.57         76.2905
784.98        76.27998
785.39        76.35247
785.81        76.51766
786.22        76.71951
786.63        76.91233
787.04        77.01279
787.46        77.02171
787.87        76.97321
788.28        76.91029
788.70        76.87444
789.11        76.86396
789.52        76.88015
789.93        76.92517
790.35        76.99075
790.76        77.08527
791.17        77.16803
791.58        77.22731
792.00         77.2437
792.41        77.24349
792.82        77.25626
793.23        77.27605
793.65        77.27162
794.06        77.40331
794.47        77.56461
794.88        78.23205
795.29        78.84514
795.71        78.28186
796.12        77.96627
796.53        77.65296
796.94        77.33611
797.35        77.12907
797.76        77.34507
798.18        77.86292
798.59        78.12648
799.00        78.07109
799.41        77.94395
799.82        77.81445
800.23        77.71637
800.64        77.68678
801.06        77.67972
801.47        77.72335
801.88        77.79026
802.29        77.86823
802.70        77.96175
803.11        78.05212
803.52        78.10383
803.93        78.11378
804.34        78.08881
804.75        78.04831
805.17        78.04902
805.58        78.14363
805.99        78.20204
806.40        78.22978
806.81        78.46941
807.22        78.78447
807.63        78.64784
808.04        78.18019
808.45        78.06053
808.86        78.35232
809.27        78.68366
809.68        78.92603
810.09        79.01254
810.50        78.89867
810.91        78.62316
811.32          78.286
811.73        78.06742
812.14         78.0279
812.55        78.06885
812.96         78.1835
813.37        78.46725
813.78        78.83152
814.19         79.0178
814.60        79.00144
815.01        78.97712
815.42        78.95288
815.83        78.78223
816.24        78.53782
816.65        78.44873
817.05        78.56985
817.46        78.80684
817.87        79.08662
818.28        79.23763
818.69        79.21914
819.10        79.08013
819.51        78.90982
819.92        78.86385
820.33        78.98837
820.74         79.2282
821.14        79.48546
821.55        79.65187
821.96         79.6745
822.37        79.58591
822.78        79.45268
823.19        79.38883
823.60        79.43428
824.00        79.58688
824.41        79.71889
824.82        79.72143
825.23        79.56791
825.64        79.29514
826.04        79.05613
826.45        79.05472
826.86        79.34338
827.27        79.85543
827.68        80.39138
828.08        80.65326
828.49        80.49253
828.90        80.03786
829.31        79.49825
829.72        79.23116
830.12        79.35754
830.53         79.7168
830.94          80.152
831.35        80.36143
831.75        80.27686
832.16        79.94972
832.57        79.51362
832.97        79.15697
833.38        78.95467
833.79        78.86277
834.20        78.86413
834.60        78.93139
835.01         79.0576
835.42        79.24654
835.82        79.49989
836.23        79.71972
836.64        79.90336
837.04        80.07512
837.45        80.17661
837.86         80.2318
838.26        80.26209
838.67        80.24701
839.08        80.23659
839.48        80.29458
839.89        80.43185
840.29        80.63128
840.70        80.85267
841.11        81.03218
841.51        81.16595
841.92        81.22729
842.33        81.23957
842.73        81.23901
843.14        81.18643
843.54        81.10567
843.95        80.99377
844.35        80.87196
844.76        80.73822
845.17        80.60076
845.57        80.47931
845.98        80.35743
846.38        80.26085
846.79        80.16722
847.19        80.08989
847.60        79.98817
848.00        79.88517
848.41        79.76431
848.81        79.67327
849.22        79.60689
849.62        79.61203
850.03        79.66538
850.43          79.786
850.84         79.9193
851.24         80.1031
851.65        80.26648
852.05         80.4894
852.46        80.77474
852.86        81.08202
853.27        81.39243
853.67        81.52966
854.07         81.4496
854.48        81.10879
854.88        80.59722
855.29        79.91479
855.69        79.31693
856.10        78.82016
856.50        78.47405
856.90        78.29263
857.31        78.31146
857.71         78.5535
858.12        78.94484
858.52        79.38055
858.92        79.55489
859.33        79.37332
859.73        78.93575
860.13        78.36093
860.54        77.91586
860.94        77.74472
861.34        77.75362
861.75        77.84027
862.15        77.89426
862.55        77.84836
862.96        77.76501
863.36        77.67347
863.76        77.59654
864.17        77.53381
864.57        77.46415
864.97         77.4039
865.38        77.37163
865.78        77.41135
866.18        77.50438
866.58        77.55525
866.99        77.40998
867.39        77.08738
867.79        76.61784
868.19        76.16905
868.60        75.94711
869.00         75.9808
869.40        76.23728
869.80        76.59112
870.21        76.80661
870.61        76.87849
871.01        76.81677
871.41        76.69858
871.81        76.63631
872.22        76.63541
872.62        76.68299
873.02        76.78514
873.42        76.94494
873.82        77.14688
874.22        77.40092
874.63        77.66576
875.03        77.84374
875.43         77.9334
875.83         77.9376
876.23        77.92739
876.63        78.03259
877.03        78.26227
877.44        78.54918
877.84        78.77782
878.24        78.72233
878.64        78.35101
879.04        77.78002
879.44        77.14615
879.84        76.62292
880.24        76.26459
880.64        76.02834
881.04        75.92557
881.44        75.97305
881.84        76.15055
882.24        76.43961
882.65        76.73484
883.05        76.95956
883.45        77.03576
883.85        76.99454
884.25        76.86434
884.65        76.70226
885.05        76.53871
885.45        76.35464
885.85        76.21811
886.25        76.24612
886.65        76.45258
887.05        76.80805
887.45        77.17245
887.85        77.32381
888.25        77.21684
888.65        76.91002
889.04        76.53792
889.44        76.37419
889.84        76.46603
890.24        76.72187
890.64        77.01448
891.04        77.14486
891.44        77.06204
891.84         76.8509
892.24        76.57338
892.64        76.31586
893.04        76.12898
893.44        75.99784
893.83        75.98065
894.23          76.107
894.63        76.38902
895.03        76.78423
895.43        77.22604
895.83        77.59605
896.23        77.84623
896.63         78.0078
897.02        78.03779
897.42        77.92876
897.82        77.68849
898.22        77.32978
898.62        76.99397
899.01        76.93138
899.41        77.16904
899.81        77.65356
900.21        78.19405
900.61        78.46289
901.00        78.36835
901.40        78.02747
901.80         77.5999
902.20        77.35466
902.59        77.38065
902.99        77.57772
903.39        77.86927
903.79        78.11672
904.18        78.26198
904.58        78.36253
904.98        78.43489
905.38        78.50913
905.77        78.57992
906.17        78.61833
906.57        78.61218
906.96        78.57835
907.36        78.48965
907.76        78.38211
908.15        78.22828
908.55        77.89977
908.95        77.43384
909.34        76.86357
909.74        76.38536
910.14        76.23201
910.53         76.4567
910.93        76.98029
911.33        77.61449
911.72        78.02845
912.12        78.10982
912.52        77.95809
912.91        77.73194
913.31        77.71272
913.70        77.94941
914.10        78.33935
914.49        78.77913
914.89        79.00945
915.29        78.97668
915.68        78.76958
916.08        78.49036
916.47        78.29041
916.87        78.23544
917.26        78.24833
917.66        78.32531
918.05          78.425
918.45        78.51411
918.84        78.63979
919.24        78.71639
919.64        78.68441
920.03        78.55595
920.42        78.34063
920.82        78.13354
921.21        78.07712
921.61        78.18526
922.00        78.43098
922.40        78.73858
922.79        79.05327
923.19        79.29506
923.58        79.51944
923.98        79.64597
924.37        79.61646
924.77         79.4192
925.16        79.04311
925.55        78.64518
925.95        78.49548
926.34        78.65825
926.74          79.063
927.13        79.50426
927.52         79.5417
927.92        79.12831
928.31        78.39478
928.70        77.67123
929.10        77.45511
929.49        77.84669
929.89        78.64378
930.28         79.6061
930.67        80.17359
931.07        80.15762
931.46        79.76941
931.85        79.16159
932.24        78.61353
932.64        78.23657
933.03        77.93594
933.42        77.77123
933.82        77.84396
934.21        78.14576
934.60        78.66575
934.99        79.21462
935.39        79.42883
935.78        79.25661
936.17        78.77112
936.56        78.17516
936.96        77.82954
937.35        77.89607
937.74        78.23565
938.13        78.69353
938.53        79.04887
938.92        79.23277
939.31        79.28778
939.70        79.28275
940.09        79.32414
940.49        79.41092
940.88        79.53995
941.27        79.58013
941.66        79.35099
942.05        78.84698
942.44        78.15678
942.84        77.51694
943.23         77.2477
943.62        77.45983
944.01        78.06393
944.40        78.84479
944.79        79.40486
945.18        79.59503
945.57        79.49547
945.97        79.23611
946.36        79.10052
946.75        79.12771
947.14         79.2351
947.53        79.30585
947.92        79.15327
948.31         78.7532
948.70        78.21662
949.09        77.69382
949.48        77.39496
949.87        77.36855
950.26        77.53203
950.65        77.80833
951.04        78.07561
951.43        78.27709
951.82        78.44625
952.21        78.52656
952.60        78.42975
952.99        78.15636
953.38        77.72711
953.77         77.2822
954.16         77.0436
954.55        77.04863
954.94        77.23331
955.33        77.45562
955.72        77.47284
956.11        77.21143
956.50        76.74106
956.89        76.17604
957.28        75.70717
957.66        75.46432
958.05        75.43231
958.44        75.54863
958.83        75.70164
959.22        75.84145
959.61        75.91429
960.00        76.10994
960.39        76.73711
960.78        77.78686
961.16        79.19008
961.55        80.30472
961.94        80.15926
962.33        78.61873
962.72        76.11245
963.11        73.53766
963.49        72.19592
963.88        72.37782
964.27        73.70469
964.66        75.64517
965.04        77.20441
965.43        77.88369
965.82        78.00792
966.21        77.74357
966.60        77.36631
966.98         77.0108
967.37        76.47989
967.76        75.90457
968.15        75.57448
968.53        75.58707
968.92        75.93839
969.31         76.3996
969.69        76.54073
970.08        76.26817
970.47        75.70982
970.86        75.17472
971.24        75.22551
971.63        75.90472
972.02        76.98375
972.40        78.14587
972.79        78.84632
973.17        79.05837
973.56        78.87195
973.95        78.47896
974.33         78.1768
974.72        78.06203
975.11        78.02788
975.49        77.99057
975.88        77.84716
976.26        77.58478
976.65        77.26514
977.04        76.90462
977.42        76.48906
977.81        75.98555
978.19        75.36888
978.58        74.89373
978.96        74.95064
979.35        75.56369
979.74        76.65079
980.12        77.79245
980.51        78.08067
980.89         77.4424
981.28        76.01804
981.66        74.40542
982.05        73.73801
982.43         74.3214
982.82        75.74615
983.20        77.44866
983.59         78.3861
983.97         78.3853
984.35        77.72729
984.74        76.70119
985.12         75.8235
985.51        75.32494
985.89        75.06625
986.28        75.07684
986.66        75.49358
987.04        76.23883
987.43        77.24538
987.81        78.29705
988.20        78.87034
988.58        78.87186
988.96        78.44497
989.35        77.67098
989.73        76.79901
990.12        75.88564
990.50        74.80228
990.88         73.8893
991.27         73.8832
991.65         74.9204
992.03        76.75461
992.42        78.41941
992.80        78.96442
993.18        78.14186
993.56        76.07372
993.95        73.44102
994.33        72.02454
994.71         72.6599
995.10        74.56312
995.48        76.64164
995.86        77.68266
996.24        77.57732
996.63        76.62796
997.01        75.38634
997.39        74.92465
997.77        75.63698
998.15        77.05766
998.54        78.47216
998.92         78.9556
999.30        78.33557
999.68        77.00987
1000.06        75.37991
1000.45        74.14344
1000.83        73.70858
1001.21        73.76402
1001.59        74.33637
1001.97         75.5004
1002.35        77.19402
1002.73        79.50655
1003.12        81.76296
1003.50        82.38769
1003.88         81.0273
1004.26        78.24107
1004.64        75.28593
1005.02         73.7399
1005.40        73.82248
1005.78        75.09538
1006.16        76.83849
1006.54        77.72472
1006.92        77.32422
1007.30        76.07346
1007.69        74.57841
1008.07        73.71696
1008.45        73.83081
1008.83        74.54489
1009.21        75.46652
1009.59        76.08225
1009.97        76.22546
1010.35        76.06443
1010.73        75.67943
1011.11        75.26931
1011.49        74.97659
1011.86        74.75986
1012.24        74.54054
1012.62        74.47552
1013.00        74.58414
1013.38        74.96813
1013.76        75.35841
1014.14        75.27148
1014.52        74.62004
1014.90        73.42754
1015.28        72.38773
1015.66        72.82473
1016.04        75.00208
1016.41        78.53936
1016.79        81.89795
1017.17        83.23438
1017.55        82.22905
1017.93        79.45898
1018.31        76.23209
1018.69         74.6235
1019.06        75.23402
1019.44        77.57771
1019.82        80.57091
1020.20        81.87943
1020.58        80.73705
1020.95        78.04604
1021.33        75.06152
1021.71        73.25929
1022.09        72.84499
1022.46        73.11967
1022.84        73.71692
1023.22        73.88249
1023.60        73.30022
1023.97        72.23778
1024.35         70.5709
1024.73        67.62786
