SpectraSmart Spectrum 2.9.0.0
--------- Device Information -----------
Spectrum Name :  反射率_0
Saving Time :  2024/04/27 22:55:57
Spectro-Module Model Name : SE2030-DUVN
Spectro-Module Serial Number : OS361AC55029948
Wavelength Start : 200
Wavelength End : 1025
Wavelength Unit : Wavelength(nm)
Spectrum Unit : Reflectance(%)
-----------Spectrum Setting ------------
Integration Time : 20ms
Average : 10
Boxcar : 0
Background removal :  enabled
linearity correction :  enabled
SC :  disabled
Intensity correction :  disabled
DWT denoise :  enabled
savitzky-golay :  disabled
FFT :  disabled
Running average :  disabled
Kalman :  disabled
High pass :  disabled
---------------BEGIN--------------------
Wavelength(nm)             Reflectance(%)
200.29               0
200.75       -48.17526
201.21       -55.35397
201.67       -46.55026
202.13       -33.87154
202.58       -19.97827
203.04       -3.177521
203.50          15.056
203.96        29.44298
204.42        38.10868
204.88        42.63547
205.34        44.62088
205.80        46.20124
206.26        47.99623
206.72        49.05566
207.18        48.99613
207.64         47.0826
208.10        44.16674
208.55        43.23087
209.01        40.96589
209.47        34.43673
209.93        19.99555
210.39       -16.71658
210.85       -126.5939
211.31       -258.3021
211.77       -98.19372
212.23        7.061924
212.69        43.63581
213.14        53.40391
213.60        49.95913
214.06         35.2627
214.52        7.829492
214.98       -9.968534
215.44        2.784391
215.90        25.05321
216.36        41.40158
216.81        47.22813
217.27        45.39275
217.73        39.96417
218.19        32.64514
218.65        25.76645
219.11        20.65321
219.57        16.25212
220.02        14.11138
220.48        18.80333
220.94        29.43863
221.40        42.87514
221.86        54.44794
222.32         60.0801
222.77        60.44915
223.23        57.57956
223.69        53.69747
224.15        50.97574
224.61        49.72853
225.06        49.12069
225.52         49.1624
225.98        49.34999
226.44        49.44904
226.90        49.60866
227.36        49.68736
227.81        49.47609
228.27          48.953
228.73        48.04935
229.19        46.75927
229.65        45.24538
230.10        43.64543
230.56        42.33718
231.02        41.24021
231.48        40.29305
231.93        39.46077
232.39        38.83191
232.85        38.68357
233.31        39.44229
233.77        40.99829
234.22        43.14396
234.68         45.0723
235.14        45.84837
235.60         45.3096
236.05        43.52399
236.51        41.30165
236.97        40.45238
237.43        41.68358
237.88        44.68206
238.34         47.7056
238.80        48.96731
239.26        47.86083
239.71        43.78606
240.17        36.83003
240.63        32.51238
241.08         36.1064
241.54        43.76758
242.00        49.80717
242.46        51.43354
242.91        48.71009
243.37          40.035
243.83        20.97829
244.28       -3.496977
244.74       -4.696517
245.20        17.75867
245.66        37.35352
246.11        42.94445
246.57        36.99146
247.03        20.30302
247.48        -7.03916
247.94       -25.03728
248.40       -13.91346
248.85        13.48459
249.31        40.79008
249.77         55.7783
250.22        59.61598
250.68        58.27861
251.14        54.95161
251.59        51.60548
252.05        48.41045
252.51        43.59658
252.96        37.08811
253.42        33.44383
253.88        34.85246
254.33        39.74686
254.79        43.96743
255.25        44.43918
255.70        42.10375
256.16        38.96072
256.62        36.93393
257.07        38.00214
257.53        41.47514
257.99        45.44166
258.44        48.38274
258.90        49.34034
259.35        48.41169
259.81        46.65918
260.27        44.68494
260.72        43.17732
261.18        42.45679
261.63        42.02727
262.09        41.67561
262.55        40.88674
263.00        39.62196
263.46        38.21892
263.91        36.95007
264.37        36.42653
264.83        36.59431
265.28        37.15139
265.74        37.73867
266.19        37.77591
266.65        37.25416
267.11        36.34939
267.56         35.3126
268.02        34.61866
268.47        34.33585
268.93        34.30373
269.38        34.35177
269.84        34.24472
270.30        33.89558
270.75        33.39004
271.21        32.74143
271.66        31.92228
272.12        30.98762
272.57        29.92651
273.03        28.89534
273.48        28.06486
273.94         27.5234
274.39        27.20538
274.85        27.02533
275.31        26.78718
275.76         26.4277
276.22        26.00515
276.67        25.57783
277.13         25.3096
277.58        25.16817
278.04        25.12699
278.49        25.00578
278.95         24.6452
279.40        23.99692
279.86        23.20259
280.31        22.40616
280.77        21.91468
281.22        21.74084
281.68        21.80712
282.13        21.94575
282.59        21.95504
283.04        21.77838
283.50        21.49294
283.95        21.17078
284.41        20.94699
284.86        20.84218
285.32        20.82112
285.77         20.8147
286.22        20.75439
286.68         20.6402
287.13        20.47399
287.59        20.32762
288.04        20.23926
288.50        20.24062
288.95          20.285
289.41         20.3413
289.86         20.3275
290.32        20.24718
290.77        20.12785
291.22        20.01701
291.68        19.97946
292.13        20.02755
292.59        20.15104
293.04        20.33729
293.50        20.58722
293.95         20.8833
294.40        21.23392
294.86        21.61249
295.31        21.97052
295.77        22.30405
296.22        22.60622
296.68        22.92101
297.13         23.2992
297.58        23.75317
298.04        24.26145
298.49        24.76638
298.95        25.18932
299.40        25.51775
299.85        25.77674
300.31        26.05156
300.76        26.43818
301.21         26.9587
301.67        27.57307
302.12        28.16912
302.58        28.61448
303.03        28.87074
303.48        28.98962
303.94        29.08488
304.39        29.28572
304.84        29.63308
305.30        30.08642
305.75        30.52951
306.20        30.82079
306.66         30.9432
307.11        30.91826
307.57        30.87065
308.02        30.93177
308.47        31.13869
308.93        31.43528
309.38        31.69498
309.83        31.75005
310.29        31.58277
310.74        31.24971
311.19         30.8679
311.65        30.61833
312.10        30.53373
312.55        30.56057
313.00        30.64034
313.46        30.68301
313.91        30.65193
314.36        30.58228
314.82        30.46115
315.27        30.26114
315.72          29.992
316.18        29.66573
316.63        29.33696
317.08        29.11869
317.53        29.03047
317.99        29.03536
318.44        29.07131
318.89        29.01736
319.35        28.84152
319.80        28.58412
320.25        28.28471
320.70        28.01325
321.16        27.78904
321.61        27.59481
322.06        27.42573
322.51        27.27898
322.97        27.14507
323.42        27.04082
323.87         26.9356
324.32        26.78218
324.78        26.56827
325.23        26.30446
325.68        26.03296
326.13        25.83293
326.59        25.71105
327.04        25.66579
327.49        25.62556
327.94         25.4798
328.39        25.20128
328.85        24.81608
329.30        24.40844
329.75        24.11899
330.20        23.99243
330.66        23.98387
331.11        24.02302
331.56         23.9471
332.01        23.71548
332.46        23.37455
332.92        23.01287
333.37        22.80627
333.82        22.79444
334.27        22.91557
334.72        23.08222
335.17        23.15327
335.63        23.07742
336.08         22.9172
336.53        22.69434
336.98        22.45579
337.43        22.23428
337.88        22.01741
338.34        21.84812
338.79        21.80128
339.24        21.88325
339.69        22.06937
340.14        22.28616
340.59        22.40692
341.05        22.39697
341.50        22.30002
341.95        22.14528
342.40        21.99338
342.85        21.87146
343.30        21.75538
343.75        21.67691
344.20        21.68916
344.66        21.79205
345.11        21.96499
345.56        22.12389
346.01        22.12851
346.46        21.95218
346.91        21.63848
347.36        21.28382
347.81        21.03736
348.26        20.94119
348.72        20.96148
349.17        21.03226
349.62        21.04222
350.07        20.96438
350.52        20.83196
350.97        20.71847
351.42        20.73877
351.87        20.90423
352.32        21.15741
352.77        21.39603
353.22        21.47238
353.67        21.35647
354.13        21.11641
354.58        20.80479
355.03        20.55664
355.48        20.41947
355.93        20.36131
356.38        20.35747
356.83        20.36851
357.28        20.37136
357.73        20.37202
358.18        20.36395
358.63         20.3331
359.08        20.27329
359.53        20.18459
359.98        20.05292
360.43        19.86285
360.88        19.62366
361.33        19.34645
361.78        19.07286
362.23        18.90569
362.68        18.86875
363.13        18.86446
363.58        18.82703
364.03        19.02286
364.48        18.82141
364.93        18.72188
365.38        18.57283
365.83        18.43615
366.28        18.32203
366.73        18.22586
367.18        18.12425
367.63        17.96607
368.08        17.74891
368.53         17.4922
368.98        17.25321
369.43        17.12004
369.88        17.10741
370.33        17.18534
370.78        17.27846
371.23        17.26472
371.68        17.11227
372.13        16.85608
372.58        16.56395
373.03        16.34805
373.48        16.24498
373.93         16.2281
374.38        16.25001
374.83        16.23472
375.28        16.16156
375.72        16.04286
376.17        15.94264
376.62        15.92067
377.07         15.9795
377.52        16.07905
377.97        16.15728
378.42        16.12238
378.87        15.95956
379.32        15.71603
379.77        15.43375
380.22        15.17205
380.67        14.95665
381.11        14.77073
381.56        14.64105
382.01         14.6094
382.46        14.67039
382.91        14.80511
383.36        14.93692
383.81        14.94503
384.26        14.80513
384.71        14.55395
385.15        14.25317
385.60        14.03299
386.05        13.92282
386.50          13.897
386.95        13.92598
387.40        13.96086
387.85        13.98417
388.29        13.99847
388.74        14.03327
389.19        14.09834
389.64        14.18745
390.09        14.27796
390.54        14.33866
390.98        14.32323
391.43        14.23252
391.88        14.09377
392.33        13.92471
392.78        13.77288
393.23        13.65884
393.67        13.50947
394.12        13.36496
394.57        13.43374
395.02        13.47425
395.47        13.45537
395.91        13.32061
396.36        13.24301
396.81        13.23337
397.26        13.19525
397.71        13.13409
398.15        13.10861
398.60        13.13293
399.05        13.13416
399.50        13.12673
399.95        13.21709
400.39        13.36103
400.84        13.36081
401.29        13.21802
401.74        13.06947
402.18        12.96071
402.63        12.91585
403.08        12.92881
403.53        12.91716
403.97        12.87921
404.42        12.88831
404.87        12.93183
405.32         12.9616
405.76        12.96784
406.21        12.92853
406.66        12.86642
407.11        12.88001
407.55         12.9403
408.00        12.90351
408.45        12.76745
408.90        12.57554
409.34        12.39596
409.79        12.39309
410.24        12.53095
410.68        12.58827
411.13        12.54605
411.58        12.53712
412.03        12.57671
412.47        12.62384
412.92        12.66825
413.37        12.72262
413.81        12.75941
414.26        12.74823
414.71        12.68438
415.15        12.58021
415.60        12.46872
416.05        12.41238
416.49        12.42921
416.94        12.49535
417.39        12.58182
417.83        12.64407
418.28        12.66122
418.73        12.64121
419.17        12.59096
419.62        12.52528
420.07        12.45906
420.51        12.39848
420.96        12.34025
421.41        12.29484
421.85        12.26214
422.30        12.18475
422.74        12.10968
423.19        12.26042
423.64        12.58121
424.08        12.73932
424.53        12.66828
424.98        12.63202
425.42        12.64017
425.87         12.4517
426.31        12.15709
426.76        12.16629
427.21        12.42269
427.65        12.46926
428.10        12.30607
428.54         12.2502
428.99        12.30054
429.44        12.39707
429.88        12.45966
430.33        12.21939
430.77        11.81748
431.22        11.77059
431.66        12.06187
432.11        12.28754
432.56        12.37688
433.00        12.44413
433.45        12.38362
433.89        12.13163
434.34        11.93096
434.78        11.37465
435.23        11.90482
435.67        12.36621
436.12         12.5873
436.57        12.70035
437.01        12.60894
437.46        12.55069
437.90        12.59597
438.35        12.67435
438.79        12.39219
439.24        12.26901
439.68        12.20829
440.13         12.1716
440.57        12.14675
441.02        12.22236
441.46        12.35924
441.91        12.27535
442.35        12.05398
442.80        12.20351
443.24        12.61189
443.69           12.57
444.13        12.12698
444.58        11.93638
445.02        12.00982
445.47        12.02038
445.91        11.94249
446.36        11.90609
446.80        11.90479
447.24        11.90187
447.69        11.90668
448.13        11.96576
448.58        12.06108
449.02        12.12126
449.47        12.14378
449.91         12.1842
450.36        12.24103
450.80        12.26941
451.25        12.27212
451.69        12.27523
452.13        12.27623
452.58        12.26018
453.02        12.21672
453.47        12.13678
453.91        12.02312
454.36         11.9053
454.80        11.79532
455.24        11.69868
455.69         11.6511
456.13        11.65859
456.58        11.71867
457.02        11.87038
457.46          12.032
457.91        11.99621
458.35        11.84463
458.79        11.77559
459.24        11.81774
459.68        11.84942
460.13        11.86052
460.57        11.81697
461.01        11.77064
461.46        11.74145
461.90        11.68937
462.34        11.67814
462.79        11.89125
463.23        11.99806
463.68        12.03289
464.12        12.03004
464.56        11.99722
465.01        11.97903
465.45        11.94617
465.89        11.85304
466.34        11.74778
466.78        11.68111
467.22        11.64317
467.67        11.86133
468.11        11.79936
468.55        11.76502
468.99        11.63774
469.44        11.59184
469.88        11.63495
470.32         11.6666
470.77        11.68804
471.21        11.73827
471.65        11.81525
472.10        11.90944
472.54        11.98773
472.98        12.01565
473.42         11.9934
473.87        11.90209
474.31         11.7931
474.75         11.8577
475.20        12.06577
475.64        12.16859
476.08        12.14527
476.52         12.2003
476.97        12.34081
477.41        12.32904
477.85        12.28635
478.29        12.38551
478.74        12.31913
479.18        12.23003
479.62         12.4314
480.06        12.47313
480.50        12.48592
480.95        12.46507
481.39         12.4128
481.83        12.60354
482.27        12.66157
482.72        12.67809
483.16        12.90876
483.60        12.96623
484.04        12.94119
484.48        12.90015
484.93         12.9886
485.37        12.92918
485.81        13.19884
486.25        13.62729
486.69        13.02787
487.14        12.72339
487.58        13.75628
488.02        13.66256
488.46        13.64704
488.90        13.87787
489.34        13.29302
489.79        13.18149
490.23         13.6662
490.67        14.03004
491.11         14.3096
491.55        14.37887
491.99         14.3053
492.43        14.38533
492.88        14.63038
493.32        14.80256
493.76        14.87509
494.20        14.97431
494.64        15.11362
495.08        15.21109
495.52        15.27921
495.96        15.46857
496.41        15.77659
496.85        15.77665
497.29        15.57372
497.73        15.74886
498.17        16.23355
498.61        16.48747
499.05        16.44549
499.49        16.42019
499.93        16.46788
500.37        16.52708
500.82        16.60191
501.26        16.73758
501.70        16.94265
502.14        16.85919
502.58        17.08072
503.02        17.14591
503.46        17.16102
503.90        17.15805
504.34        17.14234
504.78        17.17779
505.22        17.26523
505.66        17.35333
506.10        17.44634
506.54        17.59778
506.98        17.80569
507.42        17.96821
507.86        18.17982
508.30        18.25585
508.74         18.2274
509.18         18.1099
509.62        17.97476
510.06        17.93719
510.50        18.02296
510.94        18.20054
511.38        18.40075
511.82        18.51083
512.26        18.50242
512.70         18.4128
513.14        18.29873
513.58        18.24315
514.02        18.27104
514.46        18.36847
514.90        18.49995
515.34        18.54487
515.78        18.59232
516.22        18.57448
516.66        18.55481
517.10        18.57798
517.54         18.6535
517.98        18.76147
518.42        18.86136
518.86        18.89444
519.30        18.84805
519.74        18.74279
520.18        18.62253
520.62        18.55377
521.06        18.55392
521.50        18.60576
521.93        18.67351
522.37        18.69038
522.81        18.64302
523.25        18.54859
523.69        18.44513
524.13        18.39215
524.57        18.39924
525.01         18.4431
525.45        18.48008
525.89        18.44199
526.32        18.31505
526.76        18.13763
527.20        17.94869
527.64        17.81198
528.08        17.74585
528.52        17.72318
528.96        17.73762
529.40        17.77923
529.83        17.83316
530.27         17.9028
530.71        17.94417
531.15        17.88761
531.59         17.7276
532.03         17.4874
532.46        17.23626
532.90        17.10032
533.34        17.10361
533.78        17.20819
534.22        17.35122
534.66        17.43356
535.09        17.42849
535.53         17.3729
535.97        17.29477
536.41        17.24044
536.85        17.22619
537.28        17.23271
537.72         17.2601
538.16        17.30915
538.60        17.37535
539.04        17.46484
539.47        17.55243
539.91        17.60776
540.35        17.62268
540.79        17.61029
541.22        17.59632
541.66        17.62471
542.10        17.70528
542.54        17.82458
542.97        17.95926
543.41         18.0832
543.85         18.1851
544.29        18.27563
544.72        18.36102
545.16        18.46512
545.60        18.58789
546.04        18.72237
546.47        18.86519
546.91        19.00735
547.35        19.14384
547.79        19.28467
548.22        19.42504
548.66        19.55395
549.10         19.6833
549.53        19.88502
549.97        20.13798
550.41        20.33919
550.84         20.4762
551.28         20.6032
551.72        20.73362
552.15        20.86446
552.59        21.00541
553.03        21.14888
553.46        21.28656
553.90        21.42295
554.34        21.55429
554.77        21.69008
555.21        21.82229
555.65         21.9383
556.08        22.01431
556.52        22.10206
556.96        22.20009
557.39        22.34035
557.83        22.50677
558.27         22.5977
558.70        22.61865
559.14        22.66281
559.57        22.72962
560.01        22.79578
560.45        22.84932
560.88        22.86072
561.32        22.87691
561.75        22.95658
562.19        23.09591
562.63        23.27542
563.06        23.43295
563.50        23.40308
563.93        23.23703
564.37        23.21528
564.80        23.34906
565.24        23.51068
565.68        23.68247
566.11        23.81275
566.55        24.01622
566.98        24.20692
567.42         24.3947
567.85        24.46846
568.29        24.47172
568.72        24.48263
569.16        24.53072
569.60        24.68687
570.03         24.9816
570.47        25.07072
570.90        25.19697
571.34        25.83873
571.77        25.78134
572.21        25.74337
572.64        25.93719
573.08        25.95262
573.51        26.30006
573.95        26.42143
574.38        26.37766
574.82        26.49355
575.25        26.54195
575.69        26.46693
576.12        26.39426
576.56        26.87789
576.99        26.98065
577.42        26.69349
577.86        27.03271
578.29        26.85019
578.73        26.70876
579.16        26.62045
579.60        26.56961
580.03        26.48904
580.47        26.38144
580.90         26.1587
581.33        26.20773
581.77        26.20749
582.20        25.82537
582.64        25.61805
583.07        25.73648
583.51        25.68631
583.94        25.60131
584.37         25.4934
584.81        25.38711
585.24        25.24871
585.68        25.14725
586.11        24.98048
586.54        24.81825
586.98        24.87095
587.41        25.02758
587.85        24.65905
588.28        24.62454
588.71        24.56525
589.15        24.68648
589.58        24.55309
590.01        24.76455
590.45        24.77983
590.88        24.20073
591.31        24.18011
591.75        24.51483
592.18        24.59718
592.61         24.4013
593.05        24.61731
593.48        24.77989
593.91        24.43192
594.35        24.61525
594.78        24.90583
595.21        25.16373
595.65        25.25973
596.08        25.07926
596.51        25.47168
596.94        25.57552
597.38        25.88937
597.81        26.17776
598.24        26.26424
598.68         26.6956
599.11        26.97136
599.54        27.28727
599.97        27.15581
600.41        28.03151
600.84        28.38121
601.27        28.61411
601.70        28.96789
602.14        29.18712
602.57        29.81195
603.00        30.35549
603.43        30.74296
603.87        31.07223
604.30        31.21659
604.73        31.68227
605.16        32.32519
605.60        32.86737
606.03        33.47552
606.46         33.9509
606.89        34.38056
607.32        34.62777
607.76         35.3322
608.19         35.4584
608.62        35.80479
609.05        36.13417
609.48         36.5504
609.92        36.98297
610.35        37.28563
610.78        37.78209
611.21        37.40325
611.64        38.30424
612.07        38.54594
612.50        38.73909
612.94        39.03141
613.37         39.4681
613.80        39.70856
614.23        40.15911
614.66         40.4277
615.09        40.63154
615.52        40.93919
615.96        41.38869
616.39        41.40877
616.82         41.7095
617.25        42.19537
617.68        42.34561
618.11        42.54586
618.54        42.62592
618.97        42.94646
619.40        43.16182
619.84         43.5689
620.27        43.61337
620.70         43.6581
621.13        43.49188
621.56        44.08025
621.99        44.32206
622.42        44.34937
622.85        44.22797
623.28         44.5857
623.71        44.61728
624.14        44.14677
624.57        44.42294
625.00        44.58667
625.43        44.16734
625.86        44.14713
626.29        44.30173
626.72         43.9298
627.15        43.92327
627.58        43.74662
628.01        43.72075
628.44        43.21251
628.87        42.87803
629.30        42.91347
629.73        42.35051
630.16        41.94679
630.59        41.68649
631.02        41.44414
631.45        41.24394
631.88        40.96926
632.31        40.62123
632.74        40.03561
633.17         39.6483
633.60        39.18262
634.03        38.77036
634.46        38.39192
634.89        38.01101
635.32        37.55521
635.75        37.01256
636.18        36.43592
636.61        35.87048
637.04         35.3499
637.47        34.91357
637.89        34.62036
638.32        34.39986
638.75        34.16367
639.18        33.75606
639.61        33.37383
640.04        32.97964
640.47         32.6209
640.90        32.30623
641.33        32.02006
641.76        31.75397
642.18        31.57157
642.61         31.3478
643.04        31.18553
643.47         31.0661
643.90        31.01657
644.33        31.03629
644.76        31.11533
645.18        31.21979
645.61        31.29188
646.04        31.32254
646.47        31.32823
646.90        31.35391
647.33         31.4798
647.75          31.734
648.18        32.07861
648.61        32.46901
649.04        32.91854
649.47        33.37954
649.89        33.64578
650.32        33.81507
650.75        34.33667
651.18        35.15826
651.61         35.7907
652.03        36.14227
652.46        36.48696
652.89        36.99114
653.32         37.3563
653.74        37.73632
654.17        39.08736
654.60        39.61904
655.03        39.55618
655.46        40.01321
655.88         41.2067
656.31        42.53573
656.74        43.26363
657.16        43.11533
657.59        43.40155
658.02        43.71122
658.45        43.99016
658.87        44.89761
659.30        45.12296
659.73        45.16909
660.15         45.2819
660.58        45.65546
661.01        46.36965
661.44        47.25811
661.86        47.65161
662.29        47.57973
662.72        47.57681
663.14        47.78826
663.57        48.21481
664.00         48.7608
664.42        49.06813
664.85        49.11997
665.27        49.18765
665.70        49.32698
666.13        49.48219
666.55        49.67299
666.98        49.92101
667.41        50.20463
667.83         50.4714
668.26        50.69886
668.69        50.90841
669.11        51.09642
669.54        51.26548
669.96        51.42613
670.39         51.5243
670.82        51.59809
671.24        51.80497
671.67        52.10192
672.09        52.25426
672.52         52.2828
672.94        52.33324
673.37        52.45012
673.80        52.64103
674.22        52.88699
674.65        53.05805
675.07        53.15425
675.50        53.24025
675.92        53.34907
676.35        53.48709
676.77        53.66558
677.20        53.88089
677.62        54.10619
678.05         54.2818
678.47        54.39523
678.90        54.47314
679.32        54.54232
679.75        54.65661
680.17          54.827
680.60        55.04026
681.02        55.25958
681.45        55.42398
681.87        55.53181
682.30        55.54921
682.72        55.53491
683.15        55.69445
683.57        56.00038
684.00        56.12126
684.42        56.08586
684.85        56.20938
685.27        56.48987
685.70        56.74837
686.12        56.93592
686.54        57.07934
686.97        57.15309
687.39        57.15712
687.82        57.13334
688.24        57.03965
688.66        57.17309
689.09        57.27531
689.51        57.41842
689.94        57.54545
690.36        57.65301
690.78         57.7524
691.21        57.84499
691.63        57.92666
692.06        57.99947
692.48         58.0568
692.90        58.11424
693.33        58.17862
693.75        58.25839
694.17        58.39457
694.60         58.5495
695.02        58.62016
695.44        58.63291
695.87        58.71532
696.29        58.88379
696.71        59.16766
697.14        59.48768
697.56        59.57079
697.98        59.42273
698.41        59.55814
698.83        59.63185
699.25        59.74658
699.68        59.80421
700.10        59.94768
700.52        60.16678
700.94        60.48923
701.37        60.73185
701.79        60.87154
702.21        60.84015
702.64        60.68903
703.06        60.51259
703.48        60.48037
703.90        60.63402
704.33        60.91401
704.75        61.23486
705.17        61.43356
705.59        61.46666
706.01        61.36641
706.44        61.20593
706.86        61.22292
707.28        61.28424
707.70        61.45556
708.12        61.64632
708.55        61.83553
708.97        61.97422
709.39         61.9898
709.81        61.92485
710.23        61.94633
710.66        62.07506
711.08        62.23802
711.50         62.3781
711.92        62.46154
712.34        62.47868
712.76        62.44554
713.19        62.39838
713.61        62.43796
714.03        62.56526
714.45        62.75081
714.87        62.95699
715.29        63.12319
715.71        63.23259
716.13        63.31615
716.56        63.36463
716.98          63.408
717.40         63.4465
717.82        63.51933
718.24        63.63466
718.66         63.7636
719.08        63.90183
719.50        64.07103
719.92        64.23859
720.34         64.3368
720.76        64.35329
721.19         64.2987
721.61        64.22266
722.03        64.17816
722.45         64.1848
722.87        64.23176
723.29        64.29865
723.71        64.34821
724.13        64.37418
724.55        64.39669
724.97        64.44328
725.39        64.53236
725.81        64.66113
726.23        64.84906
726.65        65.08892
727.07        65.14162
727.49        65.36542
727.91        65.47096
728.33         65.5426
728.75        65.53111
729.17        65.44088
729.59        65.27839
730.01        65.10059
730.43        65.04842
730.85        65.14895
731.27        65.29706
731.69        65.40758
732.10        65.70113
732.52        65.56719
732.94        65.55145
733.36        65.53398
733.78        65.51139
734.20        65.48293
734.62        65.89081
735.04        65.68767
735.46        66.09863
735.88        66.63661
736.30        66.54971
736.72        65.94171
737.13         65.6722
737.55        65.81491
737.97         66.0519
738.39        66.26122
738.81        66.21143
739.23        65.94176
739.65        65.92524
740.06        66.14073
740.48        66.24678
740.90        66.21192
741.32        66.31633
741.74        66.46211
742.16         66.6304
742.57        66.78342
742.99        66.93605
743.41        67.06608
743.83        67.12434
744.25        67.10789
744.67        67.01928
745.08        66.93616
745.50        66.95047
745.92        67.09718
746.34        67.35137
746.75        67.61501
747.17        67.72602
747.59        67.64808
748.01        67.41689
748.42        67.16198
748.84        67.07485
749.26        67.18362
749.68        67.48655
750.09        67.83913
750.51        67.82465
750.93        67.52203
751.35        67.53964
751.76        67.86266
752.18        67.96011
752.60        67.82132
753.01        67.78258
753.43        67.85311
753.85        67.89011
754.27        67.88484
754.68        68.03685
755.10        68.04697
755.52        68.13768
755.93        68.21355
756.35        68.27766
756.77        68.31258
757.18        68.31676
757.60        68.32968
758.02        68.28316
758.43        68.18668
758.85        68.27238
759.26        68.55029
759.68        68.15784
760.10        68.78781
760.51        68.26585
760.93        69.08739
761.34        69.22139
761.76        68.87953
762.18        68.80509
762.59        68.98521
763.01        68.80195
763.42        69.11392
763.84        69.11683
764.26        69.10207
764.67        69.13673
765.09        69.25185
765.50        69.35265
765.92        69.41594
766.33        69.33585
766.75         69.0981
767.16        68.98464
767.58        68.98743
768.00        69.00512
768.41        69.08081
768.83        69.23339
769.24        69.41409
769.66        69.68355
770.07         69.9115
770.49        69.70557
770.90         69.2004
771.32        69.12331
771.73        69.48299
772.15        69.60101
772.56        69.47029
772.97        69.56728
773.39        69.83389
773.80        69.85668
774.22        69.66125
774.63        69.73744
775.05        70.02383
775.46        70.14533
775.88         70.0514
776.29        69.98955
776.70         70.0023
777.12        70.06947
777.53        70.21951
777.95        70.43232
778.36        70.65564
778.77        70.78558
779.19        70.80002
779.60        70.73729
780.02        70.63667
780.43        70.60526
780.84         70.6498
781.26        70.69423
781.67        70.79025
782.09        70.95564
782.50        70.99368
782.91        71.43966
783.33         70.5266
783.74        70.42638
784.15        70.63097
784.57        70.82456
784.98        70.95222
785.39        71.07629
785.81        71.19912
786.22        71.35845
786.63        71.51263
787.04        71.56387
787.46        71.51749
787.87        71.40645
788.28        71.29792
788.70         71.2641
789.11        71.30328
789.52        71.43534
789.93        71.61098
790.35        71.66339
790.76        71.62472
791.17        71.66055
791.58        71.76857
792.00        71.81446
792.41        71.82594
792.82        71.83295
793.23        71.84052
793.65        72.00555
794.06        72.33875
794.47        72.44882
794.88        72.24715
795.29        72.88572
795.71        72.49605
796.12        72.50481
796.53        72.38336
796.94        72.37056
797.35        72.43504
797.76        72.35755
798.18        72.21072
798.59         72.2148
799.00        72.39023
799.41        72.60152
799.82        72.78745
800.23        72.91498
800.64        72.95716
801.06        72.90002
801.47        72.80719
801.88        72.70947
802.29        72.63061
802.70         72.5654
803.11         72.5246
803.52        72.52363
803.93        72.56864
804.34        72.65679
804.75         72.7787
805.17        72.93041
805.58        73.13338
805.99        73.27161
806.40        73.32939
806.81        73.50959
807.22        73.69044
807.63        73.37998
808.04        72.74054
808.45        72.52087
808.86        72.81376
809.27        73.23634
809.68        73.62638
810.09        73.84797
810.50        73.82498
810.91        73.60401
811.32        73.29146
811.73        73.07902
812.14        73.03539
812.55        73.06853
812.96        73.15355
813.37        73.35406
813.78        73.59119
814.19        73.63454
814.60        73.53236
815.01        73.56905
815.42        73.76453
815.83        73.95535
816.24        74.09132
816.65         74.1646
817.05        74.16025
817.46        74.05176
817.87          73.916
818.28        73.81472
818.69        73.76909
819.10        73.77077
819.51        73.80943
819.92        73.85943
820.33        73.90887
820.74        73.96089
821.14        74.01147
821.55        74.09025
821.96        74.17797
822.37        74.26311
822.78        74.31934
823.19        74.30557
823.60        74.21414
824.00        74.08246
824.41        73.90012
824.82        73.73943
825.23        73.62289
825.64         73.5467
826.04        73.53324
826.45        73.57288
826.86        73.66953
827.27        73.82336
827.68        74.00244
828.08        74.18296
828.49        74.28137
828.90        74.33208
829.31        74.36137
829.72        74.42323
830.12        74.55083
830.53        74.68018
830.94        74.78771
831.35        74.80115
831.75        74.72704
832.16        74.54285
832.57        74.32608
832.97         74.1739
833.38         74.1104
833.79         74.1188
834.20        74.15668
834.60        74.15051
835.01        74.09582
835.42        74.01188
835.82        73.95014
836.23        73.91611
836.64        73.95038
837.04        74.06728
837.45        74.20411
837.86        74.35975
838.26        74.53494
838.67        74.70692
839.08        74.90079
839.48        75.14156
839.89        75.41798
840.29        75.70317
840.70         75.9434
841.11        76.06436
841.51        76.06942
841.92        75.94894
842.33        75.75897
842.73        75.58836
843.14        75.42598
843.54        75.29203
843.95        75.18862
844.35        75.13274
844.76        75.11252
845.17        75.12817
845.57        75.16972
845.98        75.17484
846.38        75.15141
846.79        75.08769
847.19        74.99953
847.60        74.86509
848.00        74.71503
848.41        74.52333
848.81        74.36356
849.22        74.27966
849.62        74.31749
850.03        74.43932
850.43        74.60433
850.84        74.65849
851.24        74.62019
851.65        74.47014
852.05        74.34755
852.46        74.38972
852.86        74.61702
853.27        74.96934
853.67          75.269
854.07        75.46214
854.48        75.48761
854.88        75.42316
855.29        75.19729
855.69        74.89368
856.10        74.47182
856.50        74.02081
856.90        73.61259
857.31         73.3894
857.71        73.42815
858.12        73.63647
858.52        73.96999
858.92        74.21889
859.33        74.29616
859.73        74.27512
860.13        74.14909
860.54        73.94668
860.94        73.73263
861.34        73.46884
861.75        73.16361
862.15        72.89664
862.55        72.66173
862.96        72.47516
863.36        72.32774
863.76         72.1776
864.17        72.01147
864.57        71.85538
864.97        71.74259
865.38        71.70641
865.78        71.79374
866.18         71.9625
866.58         72.1387
866.99        72.20866
867.39        72.17278
867.79        72.03712
868.19        71.87859
868.60        71.77783
869.00        71.74963
869.40        71.80083
869.80        71.90657
870.21          72.022
870.61        72.19463
871.01        72.36712
871.41        72.53411
871.81        72.69582
872.22        72.81828
872.62        72.91048
873.02        72.95911
873.42        72.93902
873.82        72.84912
874.22        72.72418
874.63         72.5764
875.03         72.3823
875.43        72.16405
875.83        71.93192
876.23        71.76723
876.63        71.80308
877.03        72.05223
877.44        72.45063
877.84        72.87728
878.24        73.09565
878.64        73.04408
879.04        72.80488
879.44        72.48096
879.84        72.21675
880.24        72.06434
880.64        71.99223
881.04        72.00684
881.44        72.12061
881.84         72.3138
882.24        72.55815
882.65        72.79497
883.05        73.02341
883.45        73.17432
883.85        73.26066
884.25        73.21758
884.65        72.95272
885.05        72.48523
885.45        71.86314
885.85        71.27813
886.25        71.06169
886.65        71.29106
887.05        71.85764
887.45        72.54713
887.85        73.02654
888.25        73.19236
888.65        73.12069
889.04        72.89282
889.44        72.69762
889.84        72.58115
890.24        72.48917
890.64        72.38387
891.04         72.2173
891.44        71.98951
891.84        71.75005
892.24        71.55254
892.64        71.45866
893.04        71.48669
893.44        71.61906
893.83        71.83699
894.23        72.04456
894.63        72.23382
895.03        72.40171
895.43        72.56387
895.83        72.74915
896.23        72.95464
896.63        73.16325
897.02          73.314
897.42        73.36368
897.82        73.29789
898.22        73.14529
898.62        72.98638
899.01        72.96236
899.41        73.08811
899.81        73.33829
900.21        73.62347
900.61        73.79529
901.00        73.79749
901.40        73.67656
901.80        73.50292
902.20         73.4032
902.59        73.41746
902.99        73.49849
903.39        73.56742
903.79        73.48441
904.18        73.23617
904.58        72.90459
904.98        72.60905
905.38        72.52687
905.77        72.67253
906.17        72.97206
906.57        73.33299
906.96        73.61867
907.36        73.74794
907.76        73.79681
908.15        73.73841
908.55        73.45824
908.95        73.01225
909.34        72.41518
909.74        71.93143
910.14        71.91793
910.53         72.4301
910.93         73.3319
911.33        74.31932
911.72        74.86048
912.12        74.79475
912.52        74.31487
912.91        73.63985
913.31        73.11389
913.70        72.82882
914.10        72.66955
914.49        72.63857
914.89        72.68372
915.29        72.79135
915.68        72.99017
916.08        73.21005
916.47        73.31673
916.87        73.29547
917.26        73.14258
917.66        72.95003
918.05        72.84003
918.45        72.84087
918.84        72.95656
919.24        73.08856
919.64         73.1567
920.03        73.15926
920.42        73.11575
920.82        73.12145
921.21        73.31358
921.61        73.69354
922.00        74.21362
922.40         74.7488
922.79        75.16065
923.19        75.35243
923.58        75.40879
923.98        75.30855
924.37        75.08578
924.77        74.75797
925.16        74.29395
925.55        73.84338
925.95        73.65866
926.34         73.7903
926.74        74.17811
927.13         74.5975
927.52         74.5758
927.92        74.05799
928.31        73.18069
928.70        72.29583
929.10        71.93742
929.49        72.21979
929.89        72.94781
930.28        73.86175
930.67        74.37852
931.07        74.30502
931.46        73.84657
931.85        73.21136
932.24        72.76061
932.64        72.60715
933.03        72.63158
933.42        72.76847
933.82        72.91861
934.21        73.04528
934.60        73.21089
934.99        73.40194
935.39        73.55158
935.78        73.68164
936.17        73.77177
936.56        73.87582
936.96        74.08929
937.35        74.46098
937.74        74.90841
938.13        75.32503
938.53        75.56825
938.92        75.61082
939.31        75.48038
939.70        75.25024
940.09        75.05296
940.49        74.90997
940.88        74.82649
941.27         74.7338
941.66        74.52377
942.05        74.19052
942.44        73.80943
942.84        73.47383
943.23        73.26494
943.62        73.24239
944.01        73.36287
944.40        73.61893
944.79        73.99408
945.18         74.4263
945.57        74.86407
945.97        75.17339
946.36        75.24444
946.75        75.02489
947.14        74.55904
947.53        73.92065
947.92        73.25537
948.31        72.66885
948.70        72.19004
949.09        71.86833
949.48        71.75337
949.87        71.84076
950.26        72.09606
950.65        72.50015
951.04        73.01649
951.43         73.5911
951.82        74.19691
952.21        74.66372
952.60        74.72575
952.99        74.33688
953.38        73.58111
953.77        72.70731
954.16         72.1033
954.55        71.85867
954.94        71.87115
955.33        71.97929
955.72        71.89368
956.11        71.53513
956.50        71.02566
956.89        70.45305
957.28        69.95855
957.66        69.65019
958.05        69.46661
958.44        69.46873
958.83        69.75607
959.22        70.28952
959.61        70.97199
960.00        71.65878
960.39         72.1255
960.78        72.29344
961.16        72.25565
961.55        71.90883
961.94        71.22552
962.33        70.29165
962.72        69.19936
963.11        68.25329
963.49        67.87705
963.88        68.14659
964.27        68.96163
964.66        70.05147
965.04        70.91322
965.43        71.26228
965.82        71.23083
966.21        70.99593
966.60        70.87193
966.98        70.94789
967.37        71.08038
967.76        71.14954
968.15        70.92968
968.53        70.41692
968.92        69.78909
969.31        69.21932
969.69        68.90832
970.08         68.9193
970.47        69.17918
970.86        69.78389
971.24        70.89243
971.63        72.32279
972.02        73.91225
972.40        75.31043
972.79        75.92612
973.17        75.77747
973.56        74.98329
973.95        73.84249
974.33         72.8805
974.72        72.31157
975.11        72.00247
975.49        71.93188
975.88        72.06277
976.26        72.35095
976.65        72.84914
977.04        73.32698
977.42        73.34984
977.81        72.76837
978.19        71.61508
978.58        70.41187
978.96        70.05618
979.35        70.73761
979.74        72.24305
980.12        73.90414
980.51        74.40754
980.89        73.55946
981.28        71.61855
981.66        69.38525
982.05        68.35969
982.43         68.9706
982.82         70.7217
983.20        72.81187
983.59        73.84431
983.97        73.56875
984.35        72.35397
984.74        70.78892
985.12        69.89452
985.51        69.98919
985.89        70.72629
986.28        71.69363
986.66        72.41788
987.04        72.70311
987.43        72.66472
987.81        72.44925
988.20        72.18588
988.58        71.99158
988.96        71.84913
989.35        71.51447
989.73        70.70316
990.12        69.32913
990.50          67.388
990.88        65.53159
991.27        65.18291
991.65        66.69147
992.03        69.52074
992.42        72.25264
992.80        73.47881
993.18        72.86868
993.56        70.68286
993.95        67.69602
994.33        65.92107
994.71        66.35555
995.10        68.08002
995.48         70.0358
995.86        71.00029
996.24        70.84108
996.63        69.96136
997.01        68.74339
997.39        67.91991
997.77        67.88771
998.15        68.34293
998.54        69.05683
998.92        69.81361
999.30        70.49986
999.68        71.23665
1000.06        71.91243
1000.45        72.20321
1000.83        72.08856
1001.21        71.55479
1001.59        70.86076
1001.97         70.3976
1002.35        70.27381
1002.73        70.49454
1003.12        70.79164
1003.50        70.46406
1003.88        69.46748
1004.26        68.07313
1004.64        66.95142
1005.02        66.92503
1005.40         68.0497
1005.78         70.0795
1006.16        72.26767
1006.54        73.25665
1006.92        72.65029
1007.30        70.83492
1007.69        68.69941
1008.07         67.6492
1008.45        68.13489
1008.83        69.64458
1009.21        71.43946
1009.59        72.46687
1009.97        72.42353
1010.35        71.59524
1010.73        70.22324
1011.11        68.99534
1011.49        68.35938
1011.86        68.16353
1012.24        68.22378
1012.62        68.52414
1013.00        69.01568
1013.38        69.88847
1013.76        70.80173
1014.14        71.12282
1014.52        70.73687
1014.90        69.65601
1015.28        68.70306
1015.66        69.48949
1016.04        72.28757
1016.41        76.53436
1016.79        80.47704
1017.17        81.96471
1017.55        80.66008
1017.93          77.383
1018.31        73.48225
1018.69        71.04498
1019.06        70.78922
1019.44        72.24164
1019.82        74.87557
1020.20        77.41515
1020.58         79.0509
1020.95        79.90474
1021.33        80.20989
1021.71        80.25871
1022.09        80.13256
1022.46        79.66185
1022.84        78.52177
1023.22        76.07359
1023.60        72.14347
1023.97        66.60979
1024.35        60.68933
1024.73        56.86329
