SpectraSmart Spectrum 2.9.0.0
--------- Device Information -----------
Spectrum Name :  反射率_0
Saving Time :  2024/04/27 22:30:21
Spectro-Module Model Name : SE2030-DUVN
Spectro-Module Serial Number : OS361AC55029948
Wavelength Start : 200
Wavelength End : 1025
Wavelength Unit : Wavelength(nm)
Spectrum Unit : Reflectance(%)
-----------Spectrum Setting ------------
Integration Time : 20ms
Average : 10
Boxcar : 0
Background removal :  enabled
linearity correction :  enabled
SC :  disabled
Intensity correction :  disabled
DWT denoise :  enabled
savitzky-golay :  disabled
FFT :  disabled
Running average :  disabled
Kalman :  disabled
High pass :  disabled
---------------BEGIN--------------------
Wavelength(nm)             Reflectance(%)
200.29               0
200.75        30.74248
201.21        61.98312
201.67        81.92439
202.13        86.07561
202.58        80.21667
203.04        68.78063
203.50        57.64473
203.96        55.39346
204.42        61.80903
204.88        72.11501
205.34        81.42783
205.80        85.68235
206.26        84.56479
206.72        78.18418
207.18        66.82673
207.64        60.11744
208.10        64.93659
208.55        74.43619
209.01        80.73367
209.47        81.94109
209.93        78.04154
210.39        65.12635
210.85        23.14417
211.31       -34.36732
211.77        22.04652
212.23        62.28048
212.69        77.29515
213.14        83.08721
213.60        84.75482
214.06        84.89518
214.52        82.92456
214.98        78.46806
215.44        74.43912
215.90        71.72662
216.36        70.55553
216.81        70.62897
217.27        71.32765
217.73        72.75086
218.19        74.01909
218.65        73.37369
219.11        70.45763
219.57        65.72389
220.02        60.33187
220.48        58.48846
220.94        61.17068
221.40         66.3014
221.86        72.25094
222.32        77.64217
222.77        81.94637
223.23        85.39776
223.69        87.46662
224.15        87.49681
224.61        85.70181
225.06        82.29843
225.52        78.50846
225.98        76.51344
226.44        76.79708
226.90        78.18707
227.36        79.70772
227.81        80.55334
228.27          80.849
228.73        80.85658
229.19        80.52596
229.65        79.74168
230.10        78.53973
230.56        77.24401
231.02        76.18896
231.48         75.9711
231.93        76.50585
232.39        77.63511
232.85         78.9521
233.31        80.00008
233.77        80.62094
234.22        80.98254
234.68        80.99478
235.14        80.50024
235.60        79.53302
236.05        78.09789
236.51        76.51927
236.97        75.75421
237.43        76.15345
237.88        77.53661
238.34        79.08791
238.80        80.25964
239.26        80.91957
239.71        81.51169
240.17        81.27376
240.63        78.88757
241.08        75.06261
241.54        71.33352
242.00        69.37939
242.46        69.50437
242.91        71.61521
243.37        76.72872
243.83        87.81232
244.28        103.3776
244.74        107.3847
245.20        97.28968
245.66        85.13988
246.11        75.99194
246.57        67.25201
247.03        55.21791
247.48        39.47084
247.94        30.44708
248.40        38.24083
248.85        56.67073
249.31        74.81419
249.77        83.76783
250.22        84.76494
250.68        81.89278
251.14        78.14252
251.59        75.92783
252.05        75.38229
252.51        75.19047
252.96        74.60487
253.42        73.19794
253.88        71.09473
254.33        70.08606
254.79         69.6255
255.25        68.12073
255.70        65.84429
256.16        63.75661
256.62        63.46888
257.07        66.63781
257.53        72.20785
257.99         77.9785
258.44         81.8616
258.90        82.68259
259.35        80.65556
259.81          77.477
260.27         74.1286
260.72        71.77913
261.18        70.89804
261.63        70.59365
262.09        70.60963
262.55        70.19785
263.00        69.21881
263.46        68.13776
263.91        67.09187
264.37        66.67742
264.83        66.80027
265.28        67.14223
265.74        67.48996
266.19        67.30498
266.65        66.63707
267.11        65.60824
267.56         64.4054
268.02        63.43795
268.47        62.75405
268.93        62.25452
269.38        61.82645
269.84        61.34304
270.30        60.74215
270.75        60.07833
271.21        59.33858
271.66        58.42471
272.12         57.3762
272.57        56.17465
273.03        54.98928
273.48        53.98376
273.94        53.25771
274.39        52.69503
274.85         52.2291
275.31         51.6329
275.76          50.836
276.22        49.96427
276.67        49.04336
277.13        48.26071
277.58        47.57472
278.04        46.99997
278.49        46.40409
278.95        45.76043
279.40        44.99118
279.86        44.20279
280.31        43.40578
280.77        42.77544
281.22        42.26934
281.68        41.89783
282.13        41.53008
282.59        41.07699
283.04        40.48555
283.50        39.83189
283.95        39.16579
284.41        38.63584
284.86        38.24488
285.32        37.97001
285.77        37.73106
286.22        37.47276
286.68        37.18746
287.13        36.85604
287.59        36.51212
288.04         36.1099
288.50        35.69596
288.95        35.25253
289.41        34.84081
289.86        34.49118
290.32        34.24175
290.77        34.06638
291.22        33.96397
291.68        33.91961
292.13        33.90675
292.59        33.94125
293.04        34.00513
293.50        34.10424
293.95        34.22614
294.40        34.38298
294.86        34.56918
295.31        34.76793
295.77        34.98848
296.22        35.21626
296.68        35.49612
297.13        35.87247
297.58        36.34603
298.04        36.89194
298.49        37.42189
298.95        37.82859
299.40        38.08665
299.85        38.23555
300.31        38.37507
300.76        38.62451
301.21        39.02018
301.67         39.5227
302.12        40.02374
302.58        40.41498
303.03        40.64649
303.48        40.76865
303.94        40.87204
304.39        41.03511
304.84        41.29453
305.30        41.62383
305.75        41.92526
306.20        42.10287
306.66        42.15247
307.11        42.08112
307.57        41.99564
308.02        41.98546
308.47        42.08678
308.93        42.26353
309.38        42.41544
309.83        42.42591
310.29        42.28397
310.74        42.02133
311.19        41.72136
311.65        41.51064
312.10        41.40332
312.55        41.36117
313.00        41.34535
313.46        41.29749
313.91        41.18939
314.36        41.04973
314.82        40.86065
315.27        40.58788
315.72        40.24159
316.18        39.84296
316.63        39.45353
317.08        39.19519
317.53        39.09053
317.99         39.1007
318.44        39.15734
318.89        39.12869
319.35         38.9774
319.80        38.74136
320.25        38.46561
320.70        38.23222
321.16        38.05631
321.61        37.91172
322.06        37.77171
322.51        37.60076
322.97        37.38247
323.42        37.15224
323.87        36.89799
324.32        36.60569
324.78        36.27688
325.23        35.92018
325.68        35.58484
326.13        35.36094
326.59        35.25125
327.04        35.25718
327.49        35.27851
327.94        35.15716
328.39        34.85674
328.85        34.41348
329.30        33.94805
329.75        33.65187
330.20        33.58294
330.66        33.66756
331.11        33.82604
331.56        33.87342
332.01        33.75229
332.46        33.51247
332.92        33.19769
333.37        32.92459
333.82        32.72176
334.27          32.552
334.72        32.40419
335.17        32.26359
335.63        32.11509
336.08        31.99927
336.53         31.8859
336.98        31.72915
337.43        31.52935
337.88         31.2998
338.34        31.10201
338.79        31.04673
339.24         31.1503
339.69        31.37089
340.14        31.62473
340.59        31.77694
341.05        31.78588
341.50         31.6927
341.95        31.53476
342.40        31.38468
342.85         31.2691
343.30        31.16311
343.75        31.06863
344.20         30.9901
344.66        30.92998
345.11        30.89569
345.56        30.86436
346.01        30.79116
346.46        30.66825
346.91        30.50208
347.36        30.34482
347.81        30.27424
348.26        30.30791
348.72        30.43596
349.17        30.57683
349.62         30.6018
350.07        30.48361
350.52        30.24234
350.97        30.01523
351.42        30.02294
351.87        30.29155
352.32        30.74353
352.77        31.15538
353.22        31.18701
353.67        30.78199
354.13         30.0703
354.58        29.27892
355.03        28.82452
355.48        28.81149
355.93        29.11497
356.38        29.52234
356.83         29.6988
357.28        29.55696
357.73         29.2077
358.18        28.79366
358.63        28.53114
359.08        28.47403
359.53        28.53699
359.98        28.62385
360.43        28.59653
360.88        28.41751
361.33        28.13704
361.78        27.80993
362.23        27.55087
362.68        27.39571
363.13        27.24756
363.58        27.05563
364.03        27.07857
364.48        26.76042
364.93        26.55931
365.38        26.34412
365.83        26.17288
366.28         26.0497
366.73         25.9589
367.18        25.87579
367.63        25.74909
368.08        25.56861
368.53        25.35354
368.98        25.12315
369.43        24.90673
369.88        24.71845
370.33        24.55319
370.78        24.41331
371.23        24.30301
371.68        24.21714
372.13        24.14768
372.58        24.08663
373.03        24.02012
373.48        23.93977
373.93        23.84892
374.38         23.7287
374.83        23.55093
375.28        23.31952
375.72        23.04037
376.17        22.78342
376.62        22.61567
377.07        22.54891
377.52        22.55221
377.97        22.58341
378.42        22.57447
378.87        22.50354
379.32        22.39487
379.77        22.24847
380.22         22.0648
380.67        21.85165
381.11        21.60527
381.56        21.36798
382.01        21.21175
382.46        21.15237
382.91        21.17677
383.36        21.21699
383.81        21.16237
384.26         20.9924
384.71        20.73993
385.15        20.47806
385.60        20.35434
386.05        20.38497
386.50        20.52444
386.95        20.68711
387.40        20.74155
387.85        20.66042
388.29        20.47828
388.74        20.28963
389.19        20.17893
389.64        20.16135
390.09        20.19508
390.54        20.23634
390.98        20.21592
391.43        20.12746
391.88        20.00056
392.33        19.84805
392.78        19.71751
393.23        19.62957
393.67        19.48442
394.12        19.31862
394.57        19.41131
395.02        19.41601
395.47        19.29495
395.91        19.01886
396.36        18.92219
396.81         19.0311
397.26        19.17198
397.71        19.28195
398.15        19.34347
398.60        19.36013
399.05        19.26494
399.50        19.12237
399.95        19.14669
400.39        19.29082
400.84        19.25048
401.29        19.03037
401.74        18.83101
402.18        18.71356
402.63        18.71472
403.08        18.80356
403.53        18.81792
403.97        18.74669
404.42        18.70905
404.87        18.71117
405.32        18.72539
405.76        18.74783
406.21        18.73193
406.66         18.6979
407.11        18.77018
407.55        18.89877
408.00         18.8795
408.45        18.70197
408.90        18.41768
409.34        18.12766
409.79        18.07574
410.24        18.22345
410.68        18.27226
411.13        18.20152
411.58        18.19894
412.03        18.27975
412.47        18.36894
412.92        18.44787
413.37        18.54009
413.81        18.60493
414.26        18.59828
414.71         18.5133
415.15        18.36398
415.60        18.20409
416.05        18.14034
416.49        18.19946
416.94        18.34365
417.39        18.50826
417.83        18.59243
418.28        18.56355
418.73        18.44705
419.17        18.28795
419.62        18.16269
420.07        18.10545
420.51        18.10476
420.96        18.12645
421.41         18.1395
421.85        18.12936
422.30        18.02296
422.74         17.8994
423.19        18.10277
423.64        18.55447
424.08        18.75323
424.53        18.60918
424.98        18.51554
425.42        18.49063
425.87        18.18856
426.31        17.73897
426.76        17.71915
427.21        18.05033
427.65        18.07538
428.10        17.82522
428.54        17.80004
428.99        17.99704
429.44        18.30042
429.88        18.56071
430.33        18.32085
430.77         17.7764
431.22        17.72714
431.66        18.14206
432.11        18.42395
432.56        18.47598
433.00         18.4053
433.45         18.1135
433.89        17.77602
434.34        17.69027
434.78        16.89354
435.23        17.53208
435.67        18.15125
436.12        18.50789
436.57        18.62633
437.01         18.3827
437.46        18.24461
437.90        18.32204
438.35        18.48054
438.79        18.12699
439.24        17.98457
439.68        17.90567
440.13        17.84707
440.57        17.80547
441.02        17.92655
441.46        18.15353
441.91        18.07963
442.35         17.8119
442.80        18.04876
443.24        18.64445
443.69        18.65252
444.13        18.11236
444.58        17.86688
445.02         17.9305
445.47        17.86977
445.91        17.69955
446.36        17.66479
446.80        17.76567
447.24        17.92448
447.69        18.08718
448.13         18.2144
448.58        18.26134
449.02        18.15512
449.47        17.96606
449.91        17.88757
450.36        17.94914
450.80        18.05436
451.25         18.1601
451.69        18.22818
452.13        18.23416
452.58        18.17739
453.02        18.08023
453.47        17.98598
453.91        17.90853
454.36        17.86667
454.80        17.82979
455.24        17.73064
455.69        17.60856
456.13        17.50199
456.58        17.46055
457.02        17.62094
457.46        17.87975
457.91        17.90658
458.35        17.77638
458.79        17.72258
459.24        17.77312
459.68        17.76549
460.13        17.71663
460.57        17.62622
461.01        17.58101
461.46        17.59553
461.90        17.57502
462.34        17.56262
462.79        17.82465
463.23        17.87993
463.68        17.82649
464.12        17.78027
464.56         17.7659
465.01        17.82204
465.45        17.86623
465.89        17.76836
466.34        17.58914
466.78        17.43015
467.22        17.30069
467.67        17.57918
468.11        17.48396
468.55        17.45342
468.99        17.30507
469.44        17.29287
469.88        17.42228
470.32        17.54767
470.77        17.64093
471.21          17.713
471.65        17.75448
472.10        17.76449
472.54        17.74423
472.98        17.72465
473.42         17.7192
473.87        17.67104
474.31         17.6031
474.75        17.71458
475.20        17.94302
475.64        17.95033
476.08        17.75238
476.52        17.71125
476.97        17.85181
477.41        17.81174
477.85        17.75626
478.29        17.91781
478.74        17.84152
479.18        17.73793
479.62        18.05634
480.06        18.13245
480.50        18.15475
480.95        18.12123
481.39        18.03357
481.83        18.28434
482.27        18.32789
482.72        18.30073
483.16        18.59339
483.60         18.6621
484.04        18.64252
484.48        18.66244
484.93        18.86388
485.37        18.70053
485.81        18.98037
486.25        19.43635
486.69        18.95459
487.14         18.6857
487.58        19.54099
488.02        19.50452
488.46        19.70332
488.90        19.87536
489.34        19.29209
489.79         19.0177
490.23        19.55988
490.67        19.81306
491.11        19.93282
491.55        19.97006
491.99        19.97762
492.43        20.09139
492.88         20.3101
493.32        20.48771
493.76        20.60398
494.20        20.76427
494.64        20.98365
495.08        21.16035
495.52        21.28934
495.96        21.55924
496.41        21.93445
496.85        21.84984
497.29        21.46512
497.73        21.60999
498.17        22.19429
498.61        22.47439
499.05        22.36396
499.49        22.28189
499.93        22.30286
500.37        22.35265
500.82        22.42809
501.26         22.5764
501.70        22.80714
502.14        22.64229
502.58        22.89939
503.02         22.9916
503.46        23.06344
503.90        23.14127
504.34        23.20405
504.78        23.29158
505.22        23.39236
505.66        23.45453
506.10          23.495
506.54        23.60554
506.98        23.79375
507.42        23.91537
507.86        24.12032
508.30        24.19982
508.74        24.19956
509.18        24.13643
509.62        24.05302
510.06        24.01481
510.50        24.04095
510.94        24.11397
511.38        24.21756
511.82        24.32424
512.26        24.42052
512.70        24.51543
513.14        24.60053
513.58        24.65136
514.02        24.66476
514.46        24.66159
514.90        24.66358
515.34         24.6216
515.78        24.68655
516.22        24.73669
516.66        24.80333
517.10        24.86331
517.54        24.91005
517.98         24.9463
518.42        24.97194
518.86        24.99102
519.30        25.00313
519.74        25.00433
520.18        24.99338
520.62        24.96912
521.06        24.93406
521.50         24.8943
521.93        24.85345
522.37        24.80742
522.81        24.76094
523.25        24.71085
523.69        24.66894
524.13        24.65331
524.57         24.6622
525.01        24.68809
525.45        24.69949
525.89        24.64663
526.32        24.51966
526.76        24.34547
527.20        24.16173
527.64        24.03257
528.08        23.97468
528.52        23.96632
528.96        23.98539
529.40        23.99597
529.83        23.98252
530.27        23.95843
530.71        23.91683
531.15        23.84738
531.59         23.7536
532.03        23.63916
532.46        23.52412
532.90         23.4561
533.34        23.44057
533.78        23.46461
534.22        23.50748
534.66        23.53568
535.09        23.53626
535.53        23.52335
535.97        23.49811
536.41        23.46666
536.85        23.43442
537.28        23.40157
537.72        23.37612
538.16        23.36861
538.60         23.3833
539.04        23.42347
539.47        23.47872
539.91        23.54573
540.35        23.61534
540.79        23.69339
541.22        23.77459
541.66        23.85196
542.10        23.92487
542.54        23.99714
542.97        24.07416
543.41        24.17933
543.85        24.31233
544.29        24.46652
544.72        24.63083
545.16        24.80601
545.60        24.97914
546.04        25.14689
546.47         25.3042
546.91        25.43935
547.35        25.54876
547.79        25.65011
548.22        25.73845
548.66        25.79925
549.10        25.85439
549.53        26.00048
549.97        26.23196
550.41        26.44721
550.84        26.63482
551.28        26.85567
551.72        27.09018
552.15        27.27497
552.59        27.40881
553.03        27.49735
553.46        27.56766
553.90        27.68538
554.34        27.85611
554.77        28.07074
555.21        28.28387
555.65        28.42269
556.08        28.44601
556.52        28.44658
556.96        28.45206
557.39        28.54444
557.83        28.71504
558.27        28.82017
558.70         28.8609
559.14        28.94676
559.57        29.06872
560.01        29.19745
560.45        29.30487
560.88        29.33289
561.32        29.33868
561.75        29.40134
562.19         29.5287
562.63        29.71702
563.06        29.89235
563.50          29.833
563.93        29.59923
564.37        29.55169
564.80        29.70231
565.24        29.86564
565.68        30.01262
566.11        30.17113
566.55        30.33552
566.98        30.51652
567.42        30.69874
567.85        30.77421
568.29         30.7972
568.72        30.86665
569.16        31.01399
569.60        31.22167
570.03        31.50042
570.47        31.60579
570.90        31.90486
571.34        32.23254
571.77        32.42213
572.21        32.36573
572.64        32.62705
573.08        32.56419
573.51        32.74468
573.95        32.93161
574.38        33.04715
574.82        33.21129
575.25        33.09175
575.69        33.17766
576.12        33.00085
576.56        33.42701
576.99        33.54713
577.42        33.44871
577.86        33.60997
578.29        33.76581
578.73        33.45576
579.16        33.38318
579.60        33.29155
580.03        33.19225
580.47        33.09948
580.90        32.89295
581.33        33.09219
581.77        32.94635
582.20        32.82443
582.64        32.37922
583.07        32.38097
583.51        32.22906
583.94        32.23727
584.37        32.24805
584.81        32.19735
585.24        32.05299
585.68        31.94407
586.11        31.46097
586.54         31.5742
586.98        31.57411
587.41        31.57218
587.85        31.28143
588.28        31.23532
588.71        31.25349
589.15        31.45267
589.58        31.14462
590.01        31.56368
590.45         31.4255
590.88        31.03652
591.31        30.94855
591.75        31.13117
592.18        31.12295
592.61        30.95425
593.05        31.10169
593.48         31.3465
593.91        31.02138
594.35        31.38899
594.78        31.66712
595.21        31.68643
595.65        31.74448
596.08        31.70638
596.51        32.13907
596.94        32.20845
597.38        32.54951
597.81        32.95063
598.24        32.80404
598.68        33.50354
599.11        33.55365
599.54        33.88852
599.97        33.95705
600.41        34.55596
600.84        34.91267
601.27        35.19409
601.70        35.52927
602.14        35.82293
602.57        36.41226
603.00        36.83972
603.43        37.28008
603.87         37.8188
604.30         37.9932
604.73        38.39074
605.16        39.00975
605.60        39.60312
606.03        40.15501
606.46        40.45007
606.89        41.08925
607.32        41.16202
607.76        41.89504
608.19         41.9127
608.62        42.24778
609.05        42.66271
609.48        42.94621
609.92        43.00459
610.35        44.03733
610.78        44.24092
611.21        44.08683
611.64         45.0398
612.07        45.32128
612.50        45.50077
612.94        45.76904
613.37        46.21367
613.80        46.21784
614.23         46.6085
614.66        46.88939
615.09        47.27721
615.52        47.66148
615.96        48.03843
616.39        48.07766
616.82        48.64935
617.25        48.60671
617.68        48.95168
618.11        49.11518
618.54        49.37575
618.97         49.7656
619.40        50.16461
619.84        50.68406
620.27        50.74012
620.70        50.67681
621.13        50.36916
621.56        50.95789
621.99        51.19798
622.42        51.19712
622.85        51.05344
623.28        51.50512
623.71        51.47441
624.14        51.16079
624.57        51.37024
625.00        51.29496
625.43        51.23573
625.86        51.17756
626.29        51.12173
626.72        51.07801
627.15         50.8738
627.58         50.7737
628.01        50.78356
628.44        50.28362
628.87        50.01192
629.30         50.1322
629.73        49.52361
630.16         49.0839
630.59        48.84233
631.02        48.58821
631.45        48.37851
631.88        48.07518
632.31         47.6763
632.74        47.15581
633.17        46.71009
633.60        46.23107
634.03        45.77996
634.46        45.35064
634.89        44.92033
635.32        44.44134
635.75        43.90765
636.18        43.36369
636.61         42.8408
637.04        42.33387
637.47        41.87788
637.89        41.57544
638.32        41.35896
638.75        41.05334
639.18        40.63874
639.61        40.20219
640.04        39.78447
640.47        39.42874
640.90        39.15368
641.33        38.93052
641.76        38.72761
642.18        38.59016
642.61         38.3546
643.04        38.15729
643.47        37.98249
643.90        37.87638
644.33        37.84835
644.76         37.8862
645.18        37.96436
645.61        38.03454
646.04        38.08762
646.47         38.1389
646.90        38.22046
647.33        38.37894
647.75        38.62989
648.18         38.9703
648.61        39.36343
649.04        39.75062
649.47        40.12621
649.89         40.4824
650.32        40.85424
650.75        41.38802
651.18        42.03078
651.61        42.52081
652.03        42.83446
652.46        43.16383
652.89        43.63649
653.32        44.09565
653.74        44.77291
654.17         45.7375
654.60         46.0085
655.03        46.35793
655.46        47.32221
655.88         47.7993
656.31        49.15851
656.74        50.44589
657.16        50.11238
657.59        50.59991
658.02        50.43906
658.45        50.72312
658.87        51.31847
659.30        51.82479
659.73        51.99503
660.15        52.79434
660.58         52.7658
661.01        53.24628
661.44        53.79637
661.86        54.17804
662.29         54.3853
662.72        54.54308
663.14        54.74299
663.57        55.09351
664.00        55.55185
664.42           55.85
664.85        55.98187
665.27        56.13113
665.70        56.31425
666.13        56.47138
666.55        56.61778
666.98         56.7724
667.41           56.97
667.83        57.25537
668.26        57.62028
668.69        58.05251
669.11        58.48215
669.54        58.79811
669.96        58.98008
670.39        59.02696
670.82        59.01925
671.24        59.12912
671.67        59.36332
672.09        59.59081
672.52        59.78391
672.94        59.89922
673.37         59.9696
673.80        60.11263
674.22        60.34452
674.65         60.5316
675.07         60.6845
675.50        60.86969
675.92        61.08106
676.35        61.25609
676.77         61.3962
677.20        61.52286
677.62        61.65383
678.05        61.79873
678.47        61.95753
678.90        62.13842
679.32        62.34293
679.75        62.55208
680.17        62.75283
680.60        63.09247
681.02        63.27338
681.45        63.40787
681.87        63.42675
682.30        63.29671
682.72        63.13462
683.15        63.26552
683.57        63.67286
684.00        63.94352
684.42         64.0421
684.85        64.22495
685.27        64.46634
685.70         64.6026
686.12        64.63654
686.54        64.69214
686.97        64.79121
687.39        64.91882
687.82        65.02814
688.24        65.20863
688.66        65.17463
689.09        65.19192
689.51        65.23574
689.94        65.34248
690.36        65.52661
690.78         65.7718
691.21        66.02465
691.63         66.1785
692.06        66.21758
692.48        66.17744
692.90        66.11256
693.33        66.09757
693.75        66.16139
694.17         66.2874
694.60         66.4538
695.02        66.64079
695.44        66.82145
695.87         67.0125
696.29        67.21939
696.71        67.34692
697.14        67.59947
697.56        67.67728
697.98        67.66643
698.41        67.74176
698.83        67.89885
699.25         68.0621
699.68         68.2032
700.10        68.37187
700.52        68.54881
700.94        68.72909
701.37        68.86205
701.79        68.90263
702.21        68.82958
702.64        68.67664
703.06        68.51794
703.48         68.4904
703.90        68.62835
704.33        68.88905
704.75        69.19799
705.17        69.40659
705.59        69.47593
706.01        69.42213
706.44        69.32487
706.86        69.45115
707.28        69.63697
707.70        69.95173
708.12        70.25934
708.55        70.48703
708.97        70.57446
709.39        70.45454
709.81        70.21847
710.23        70.13326
710.66        70.24876
711.08         70.4645
711.50        70.68807
711.92        70.83318
712.34        70.87313
712.76        70.84116
713.19        70.78517
713.61        70.83006
714.03        70.98114
714.45        71.19552
714.87        71.43011
715.29        71.62392
715.71        71.75609
716.13        71.84727
716.56        71.88313
716.98        71.91532
717.40        71.93275
717.82        71.93362
718.24        71.93605
718.66        71.97235
719.08        72.04727
719.50        72.14796
719.92        72.26337
720.34        72.37126
720.76        72.46062
721.19        72.53136
721.61        72.57779
722.03        72.55681
722.45        72.46796
722.87        72.33434
723.29        72.21901
723.71        72.19617
724.13        72.28242
724.55        72.56538
724.97        72.78546
725.39        72.99532
725.81        73.10296
726.23        73.13928
726.65        73.14237
727.07        73.18097
727.49        73.27554
727.91        73.39869
728.33        73.52345
728.75        73.60859
729.17        73.64371
729.59        73.64377
730.01         73.6152
730.43        73.62293
730.85        73.68929
731.27        73.69244
731.69        73.60249
732.10        73.95975
732.52        73.84555
732.94        73.97097
733.36        74.02766
733.78        74.14471
734.20        74.23789
734.62        74.30841
735.04        73.92339
735.46        74.66975
735.88        74.20113
736.30        74.14305
736.72        73.94077
737.13         74.0868
737.55        74.46249
737.97        74.68709
738.39        74.69712
738.81        74.39458
739.23        73.95769
739.65        74.10588
740.06        74.70394
740.48        74.95435
740.90        74.79388
741.32        74.79433
741.74        74.88484
742.16        74.97932
742.57        75.05383
742.99        75.13837
743.41        75.23978
743.83        75.31071
744.25        75.35246
744.67        75.36545
745.08        75.38487
745.50        75.42748
745.92        75.50647
746.34        75.60696
746.75        75.70093
747.17        75.70976
747.59        75.62073
748.01        75.54723
748.42        75.51575
748.84        75.34383
749.26        75.13862
749.68        75.38467
750.09        75.96112
750.51        76.17739
750.93        76.03631
751.35        76.11508
751.76          76.391
752.18        76.42143
752.60        76.16303
753.01        75.94875
753.43        75.89359
753.85        75.72232
754.27        75.37733
754.68        76.57561
755.10        76.28653
755.52        76.56555
755.93         76.5541
756.35        76.58465
756.77        76.64377
757.18         76.7514
757.60        77.03222
758.02        77.10802
758.43        76.80627
758.85        77.75942
759.26        77.59924
759.68        76.54873
760.10        77.16318
760.51        76.54071
760.93        77.33015
761.34        77.16864
761.76        77.52243
762.18        77.37167
762.59        77.11842
763.01        77.15034
763.42        77.47557
763.84        77.55791
764.26        77.42377
764.67        77.32119
765.09        77.30882
765.50        77.57366
765.92        78.02966
766.33        77.84225
766.75        76.95094
767.16        77.42467
767.58        77.10619
768.00        77.38411
768.41        77.59122
768.83        77.95176
769.24        78.31686
769.66        78.44278
770.07        78.32905
770.49        78.08762
770.90         77.8489
771.32        77.86161
771.73        78.10413
772.15        78.20974
772.56        78.17724
772.97        78.24404
773.39        78.39558
773.80        78.55647
774.22        78.68047
774.63        78.81802
775.05         78.9104
775.46        78.95795
775.88        78.92562
776.29        78.85397
776.70        78.76801
777.12        78.73289
777.53        78.78611
777.95        78.87637
778.36        79.01007
778.77        79.17135
779.19        79.35126
779.60        79.57274
780.02        79.75608
780.43        79.83789
780.84         79.7901
781.26        79.51965
781.67        79.24846
782.09        79.42033
782.50        79.80756
782.91        80.61818
783.33        79.76777
783.74        79.76463
784.15        79.99764
784.57        79.92432
784.98        79.62309
785.39        79.68498
785.81        80.06657
786.22        80.24438
786.63        80.17445
787.04        80.12582
787.46        80.13474
787.87        80.12719
788.28        80.12951
788.70        80.14102
789.11        80.14832
789.52        80.22614
789.93        80.34772
790.35        80.38058
790.76        80.36208
791.17        80.36825
791.58          80.409
792.00        80.49977
792.41        80.61737
792.82         80.5735
793.23        80.45786
793.65         80.5344
794.06        80.84959
794.47        81.36469
794.88        81.88757
795.29        81.88081
795.71        81.81258
796.12        81.29419
796.53        80.67509
796.94        80.55901
797.35        80.95374
797.76        81.16975
798.18        81.14055
798.59        81.28548
799.00        81.57954
799.41         81.7206
799.82        81.70585
800.23        81.70956
800.64        81.74702
801.06        81.74014
801.47          81.717
801.88        81.64844
802.29        81.53396
802.70        81.38804
803.11        81.26721
803.52        81.23417
803.93        81.30994
804.34        81.53809
804.75        81.82346
805.17        81.90863
805.58        81.86307
805.99        81.83496
806.40        81.87935
806.81        82.21692
807.22        82.64444
807.63        82.40972
808.04        81.66402
808.45        81.40459
808.86        81.72816
809.27        82.05491
809.68        82.25993
810.09         82.3914
810.50         82.4018
810.91        82.28655
811.32         82.0957
811.73        81.93276
812.14        81.83879
812.55        81.73902
812.96        81.67104
813.37        81.81506
813.78        82.11369
814.19        82.28037
814.60        82.28663
815.01        82.32626
815.42        82.39874
815.83        82.35812
816.24        82.24961
816.65        82.25007
817.05        82.39278
817.46        82.58259
817.87        82.78201
818.28        82.87836
818.69         82.8474
819.10         82.7319
819.51        82.58562
819.92        82.49996
820.33        82.51234
820.74        82.59357
821.14        82.71534
821.55        82.87264
821.96        83.03096
822.37        83.19114
822.78        83.33559
823.19        83.42832
823.60        83.45715
824.00        83.45396
824.41        83.36826
824.82        83.22513
825.23        83.04366
825.64        82.83769
826.04        82.69556
826.45        82.70979
826.86        82.90895
827.27         83.2561
827.68        83.65414
828.08        83.97135
828.49        84.08212
828.90         84.0547
829.31        83.93969
829.72        83.83326
830.12        83.79934
830.53        83.76619
830.94        83.73678
831.35        83.67671
831.75        83.60858
832.16        83.50237
832.57        83.43075
832.97        83.46311
833.38        83.59915
833.79        83.81714
834.20        84.04588
834.60        84.18113
835.01        84.21165
835.42        84.14545
835.82        84.06566
836.23        84.02686
836.64        84.08244
837.04        84.23894
837.45        84.36801
837.86        84.36761
838.26        84.23046
838.67        83.97738
839.08         83.7456
839.48        83.73353
839.89        83.98013
840.29         84.4226
840.70        84.91344
841.11        85.22482
841.51        85.31384
841.92        85.19558
842.33        85.00038
842.73        84.94648
843.14        85.03249
843.54        85.21653
843.95         85.3831
844.35        85.37511
844.76        85.14809
845.17        84.78631
845.57        84.38831
845.98        84.05935
846.38        83.88004
846.79        83.78977
847.19        83.81398
847.60        83.92924
848.00        84.13431
848.41        84.38652
848.81         84.6517
849.22        84.78521
849.62        84.79566
850.03        84.69233
850.43        84.53904
850.84        84.35819
851.24         84.2295
851.65         84.0667
852.05        84.01286
852.46         84.1688
852.86        84.52511
853.27        85.04981
853.67        85.45963
854.07        85.57806
854.48        85.33002
854.88        84.81467
855.29        84.10849
855.69        83.62748
856.10        83.40872
856.50        83.45447
856.90        83.59748
857.31        83.59505
857.71        83.43038
858.12         83.1286
858.52        82.84161
858.92        82.67012
859.33        82.63569
859.73         82.7477
860.13        82.90443
860.54        82.96804
860.94         82.9366
861.34        82.79236
861.75        82.61752
862.15        82.60614
862.55        82.75364
862.96        83.01372
863.36        83.19884
863.76        82.98435
864.17          82.319
864.57        81.34792
864.97        80.36452
865.38        79.80312
865.78        79.83002
866.18        80.31021
866.58        81.00117
866.99        81.46462
867.39        81.57959
867.79          81.425
868.19         81.1772
868.60        81.06739
869.00        81.15237
869.40        81.38316
869.80         81.6388
870.21         81.7277
870.61        81.67103
871.01        81.46328
871.41        81.25399
871.81        81.24493
872.22        81.43528
872.62         81.8056
873.02        82.17062
873.42        82.18438
873.82        81.78084
874.22        81.11417
874.63        80.46484
875.03        80.18649
875.43        80.35947
875.83        80.84661
876.23        81.49014
876.63        82.02176
877.03        82.33348
877.44        82.49832
877.84        82.51637
878.24        82.35532
878.64        82.04829
879.04        81.59815
879.44        81.16979
879.84        81.00671
880.24        81.13898
880.64        81.51386
881.04        81.94274
881.44        82.08408
881.84        81.84398
882.24        81.30849
882.65        80.65596
883.05        80.30648
883.45        80.32468
883.85         80.6059
884.25        80.95811
884.65        81.09291
885.05        80.95045
885.45         80.6284
885.85        80.29268
886.25        80.22208
886.65        80.48103
887.05        80.95394
887.45        81.47075
887.85        81.78349
888.25        81.82683
888.65        81.68375
889.04        81.43459
889.44        81.25282
889.84        81.17564
890.24        81.13451
890.64        81.12233
891.04        81.13297
891.44        81.15762
891.84        81.23579
892.24         81.2834
892.64        81.15359
893.04        80.84238
893.44        80.39257
893.83         80.0285
894.23        80.04517
894.63        80.51385
895.03        81.31757
895.43        82.18141
895.83        82.65411
896.23        82.62286
896.63        82.23128
897.02        81.69197
897.42        81.37598
897.82        81.36204
898.22        81.55161
898.62        81.83445
899.01        82.04088
899.41        82.09277
899.81         82.0733
900.21         82.0499
900.61        82.12111
901.00        82.29688
901.40        82.52885
901.80        82.75409
902.20        82.90218
902.59        82.95625
902.99        82.92835
903.39        82.82879
903.79        82.65744
904.18        82.43808
904.58        82.21159
904.98        82.02439
905.38        81.95286
905.77        81.99497
906.17        82.11671
906.57        82.29488
906.96        82.51015
907.36         82.7007
907.76        82.89576
908.15        83.00492
908.55        82.79982
908.95        82.30794
909.34        81.59531
909.74         80.9414
910.14        80.72481
910.53        81.02701
910.93        81.69785
911.33        82.52501
911.72        83.12529
912.12        83.34765
912.52        83.32652
912.91        83.10825
913.31        82.81002
913.70        82.48289
914.10        82.07407
914.49        81.73631
914.89        81.67706
915.29        81.96411
915.68        82.53727
916.08        83.18643
916.47        83.56133
916.87        83.58868
917.26        83.33633
917.66        82.97064
918.05        82.72668
918.45        82.66681
918.84        82.74591
919.24        82.84744
919.64        82.87299
920.03        82.81207
920.42        82.71221
920.82        82.64021
921.21        82.67373
921.61        82.81346
922.00         83.0353
922.40        83.30017
922.79        83.64082
923.19        83.98468
923.58        84.34448
923.98        84.58715
924.37        84.57265
924.77        84.27403
925.16         83.7251
925.55         83.0956
925.95        82.68037
926.34        82.57932
926.74        82.71866
927.13        82.97957
927.52        83.04962
927.92         82.8903
928.31        82.59296
928.70        82.33419
929.10        82.36846
929.49        82.74483
929.89        83.31457
930.28        83.99174
930.67        84.49291
931.07        84.69585
931.46        84.70705
931.85        84.52297
932.24        84.18507
932.64        83.74931
933.03        83.22224
933.42        82.74123
933.82        82.52256
934.21        82.61812
934.60        82.98252
934.99        83.47565
935.39        83.81812
935.78        83.95709
936.17        83.93433
936.56        83.82726
936.96        83.77128
937.35        83.86457
937.74         84.0323
938.13        84.21124
938.53        84.32233
938.92        84.34605
939.31        84.28896
939.70        84.23911
940.09         84.3362
940.49         84.5694
940.88        84.92337
941.27        85.19635
941.66        85.09267
942.05        84.58143
942.44        83.78197
942.84        82.96735
943.23        82.53204
943.62        82.61696
944.01        83.11308
944.40        83.82888
944.79        84.40374
945.18        84.68971
945.57        84.76122
945.97        84.68005
946.36        84.62366
946.75        84.60158
947.14        84.53168
947.53         84.3688
947.92        84.05975
948.31        83.61779
948.70        83.13916
949.09        82.65153
949.48        82.16511
949.87        81.71825
950.26        81.31787
950.65        81.10483
951.04        81.29663
951.43        81.90629
951.82        82.85234
952.21         83.8592
952.60        84.44633
952.99        84.46934
953.38        84.04584
953.77        83.42684
954.16        83.02384
954.55        82.94039
954.94        83.04208
955.33        83.19014
955.72        83.15527
956.11        82.86479
956.50        82.42467
956.89        81.89314
957.28         81.3457
957.66        80.88673
958.05        80.50667
958.44        80.27699
958.83        80.29765
959.22        80.56032
959.61        80.97394
960.00        81.50989
960.39        82.12833
960.78        82.75813
961.16        83.41599
961.55        83.78358
961.94        83.47228
962.33        82.45463
962.72        80.93215
963.11        79.36786
963.49        78.42141
963.88        78.25839
964.27        78.73423
964.66        79.59462
965.04        80.36472
965.43        80.76257
965.82        80.94115
966.21        81.04778
966.60        81.33639
966.98        81.88108
967.37        82.52451
967.76        83.10294
968.15        83.31957
968.53        83.10199
968.92        82.55244
969.31        81.90374
969.69        81.46798
970.08        81.33192
970.47        81.45133
970.86        81.74284
971.24        82.07164
971.63        82.31186
972.02         82.4968
972.40        82.72144
972.79        82.99657
973.17        83.39064
973.56        83.81669
973.95        84.14111
974.33        84.10211
974.72        83.63344
975.11        82.81544
975.49        81.91833
975.88         81.4196
976.26        81.47417
976.65        81.95126
977.04        82.57499
977.42        82.83849
977.81        82.52586
978.19         81.7617
978.58        80.93018
978.96        80.67346
979.35        81.12394
979.74        82.12423
980.12        83.25251
980.51        83.60344
980.89        83.10337
981.28        81.92563
981.66        80.63931
982.05        80.27544
982.43        81.09229
982.82        82.64725
983.20        84.42246
983.59        85.46721
983.97        85.62836
984.35        85.18674
984.74        84.29085
985.12        83.23352
985.51        82.23386
985.89        81.24742
986.28        80.60939
986.66        80.87756
987.04        82.03154
987.43        83.86637
987.81        85.83091
988.20        86.80279
988.58        86.51679
988.96        85.28242
989.35        83.51625
989.73         81.9752
990.12        80.88724
990.50        80.08208
990.88        79.69419
991.27        79.99627
991.65        80.94522
992.03        82.36023
992.42        83.72506
992.80        84.66786
993.18        85.04188
993.56        84.93376
993.95        84.25405
994.33        82.96625
994.71        81.44062
995.10        79.92774
995.48        78.85323
995.86        78.45981
996.24        78.67987
996.63        79.40065
997.01        80.60026
997.39        81.86935
997.77        82.89124
998.15        83.69633
998.54        84.07884
998.92        83.84605
999.30         83.0428
999.68        81.68971
1000.06        80.30076
1000.45        79.82821
1000.83        80.59782
1001.21        82.26537
1001.59        84.17888
1001.97        85.35809
1002.35        85.56409
1002.73        85.06665
1003.12        84.09156
1003.50         83.1176
1003.88        82.46529
1004.26        81.94936
1004.64         81.6702
1005.02        81.75062
1005.40        82.15302
1005.78        82.94674
1006.16        83.73263
1006.54        83.75142
1006.92        82.84547
1007.30        81.18446
1007.69        79.53119
1008.07        79.08626
1008.45        80.14278
1008.83         82.2411
1009.21        84.46444
1009.59        85.49656
1009.97        84.98697
1010.35        83.19758
1010.73         80.6218
1011.11         78.6673
1011.49         78.1782
1011.86        78.93024
1012.24        80.29841
1012.62        81.61594
1013.00        82.69041
1013.38         83.8008
1013.76        85.01215
1014.14         86.3917
1014.52        87.92088
1014.90        89.36971
1015.28        90.69711
1015.66        91.88169
1016.04        92.76054
1016.41        93.39091
1016.79        93.20734
1017.17         91.7466
1017.55        89.10233
1017.93        85.64507
1018.31        82.20658
1018.69        80.01071
1019.06        79.46639
1019.44        80.35194
1019.82        82.28583
1020.20        84.25446
1020.58        85.64447
1020.95        86.48486
1021.33         86.9511
1021.71        87.31688
1022.09        87.64359
1022.46        87.71903
1022.84        87.40401
1023.22        86.38297
1023.60        84.55849
1023.97        81.89243
1024.35        78.86862
1024.73         76.3119
