SpectraSmart Spectrum 2.9.0.0
--------- Device Information -----------
Spectrum Name :  反射率_0
Saving Time :  2024/04/27 22:31:42
Spectro-Module Model Name : SE2030-DUVN
Spectro-Module Serial Number : OS361AC55029948
Wavelength Start : 200
Wavelength End : 1025
Wavelength Unit : Wavelength(nm)
Spectrum Unit : Reflectance(%)
-----------Spectrum Setting ------------
Integration Time : 20ms
Average : 10
Boxcar : 0
Background removal :  enabled
linearity correction :  enabled
SC :  disabled
Intensity correction :  disabled
DWT denoise :  enabled
savitzky-golay :  disabled
FFT :  disabled
Running average :  disabled
Kalman :  disabled
High pass :  disabled
---------------BEGIN--------------------
Wavelength(nm)             Reflectance(%)
200.29               0
200.75       -45.73043
201.21       -29.46249
201.67       -12.24715
202.13       -3.684907
202.58       -1.319551
203.04       -1.666947
203.50      -0.6078618
203.96        5.923495
204.42        16.63747
204.88        28.69882
205.34        38.20814
205.80        42.22113
206.26        40.60956
206.72        32.00305
207.18        17.55647
207.64        11.92056
208.10        22.74751
208.55        39.60518
209.01        49.24521
209.47        47.56023
209.93        32.76088
210.39       -10.58515
210.85       -147.1238
211.31       -325.8638
211.77       -137.4298
212.23       -6.716629
212.69         40.4458
213.14        54.88013
213.60        54.30628
214.06        43.70286
214.52         20.1782
214.98       -3.095066
215.44       -4.594084
215.90        4.376628
216.36        14.62083
216.81        23.30769
217.27        30.58117
217.73        38.69896
218.19         45.8639
218.65        47.89441
219.11        43.69415
219.57         33.7044
220.02        20.60987
220.48        13.69617
220.94        15.98723
221.40        23.63913
221.86        32.70046
222.32        39.20144
222.77        42.67843
223.23        44.61823
223.69        44.88197
224.15        42.88125
224.61         38.9414
225.06        32.94101
225.52        27.26967
225.98        26.28892
226.44        29.90523
226.90        35.20992
227.36        39.55086
227.81        40.93472
228.27        39.51026
228.73        36.09681
229.19        31.23476
229.65         26.3284
230.10        22.34194
230.56        19.39898
231.02        17.51841
231.48        16.71898
231.93        16.75051
232.39        17.52681
232.85        18.92378
233.31        20.68958
233.77        22.61382
234.22        24.78225
234.68        26.38163
235.14        26.55725
235.60        25.20041
236.05        22.14137
236.51         18.8443
236.97        18.46132
237.43        22.02632
237.88        28.84814
238.34        35.56961
238.80        38.32139
239.26        35.94598
239.71        27.21533
240.17        12.44884
240.63        3.764302
241.08         12.2632
241.54        29.44899
242.00         43.7309
242.46        50.53759
242.91        51.35818
243.37        46.49961
243.83        32.85112
244.28        13.89004
244.74        11.12313
245.20        25.34386
245.66        38.09754
246.11         40.7151
246.57        34.34996
247.03        19.87171
247.48       -2.241359
247.94       -14.85479
248.40       -2.243242
248.85        23.48747
249.31         48.3909
249.77        62.56413
250.22        67.02253
250.68        66.70644
251.14         64.0443
251.59        60.40721
252.05        55.85092
252.51        48.49373
252.96        38.49265
253.42        32.61613
253.88        34.29113
254.33        40.44922
254.79        45.44377
255.25        45.20654
255.70        41.01295
256.16         35.7638
256.62        31.50767
257.07         30.4268
257.53        32.12023
257.99        34.65997
258.44        36.98309
258.90        38.46138
259.35        38.91914
259.81        38.94096
260.27        38.50629
260.72        37.57047
261.18        36.50585
261.63        35.25718
262.09         34.0615
262.55        32.93182
263.00        31.84903
263.46        30.89564
263.91        30.09965
264.37         29.7131
264.83        29.65467
265.28        29.78976
265.74        29.92673
266.19        29.71914
266.65        29.17465
267.11        28.39599
267.56        27.51307
268.02        26.81241
268.47        26.33956
268.93        26.01004
269.38        25.79073
269.84        25.64373
270.30        25.52053
270.75        25.42506
271.21        25.24845
271.66        24.78852
272.12        24.04665
272.57        23.07048
273.03        22.05507
273.48        21.24497
273.94        20.74258
274.39        20.44713
274.85        20.27929
275.31        20.07499
275.76        19.77078
276.22        19.42085
276.67        19.03164
277.13        18.66299
277.58        18.29958
278.04         17.9597
278.49        17.57775
278.95        17.13727
279.40        16.62101
279.86        16.10282
280.31        15.65075
280.77          15.439
281.22        15.45313
281.68        15.64175
282.13        15.87717
282.59        15.99621
283.04         15.9615
283.50        15.82144
283.95        15.64107
284.41        15.53717
284.86        15.52778
285.32        15.57893
285.77        15.63046
286.22        15.61325
286.68        15.52996
287.13        15.39122
287.59        15.26513
288.04        15.19221
288.50        15.20594
288.95        15.26884
289.41        15.36147
289.86         15.4267
290.32        15.46498
290.77        15.49539
291.22         15.5462
291.68        15.65498
292.13        15.82966
292.59        16.06775
293.04        16.36069
293.50        16.71219
293.95         17.1113
294.40        17.56447
294.86        18.05973
295.31        18.57456
295.77        19.10531
296.22        19.63437
296.68        20.18122
297.13        20.75533
297.58        21.35901
298.04        21.98651
298.49        22.59418
298.95        23.12402
299.40        23.57641
299.85        23.96894
300.31        24.40195
300.76        24.99433
301.21        25.76081
301.67        26.64576
302.12        27.49862
302.58        28.12893
303.03        28.49139
303.48        28.66112
303.94        28.78191
304.39        29.02997
304.84        29.46143
305.30         30.0215
305.75        30.59578
306.20        31.04396
306.66        31.34367
307.11        31.51774
307.57        31.66454
308.02        31.87157
308.47        32.16879
308.93        32.51028
309.38        32.80424
309.83        32.94096
310.29        32.91238
310.74        32.75409
311.19        32.54609
311.65        32.40874
312.10        32.35936
312.55        32.36642
313.00        32.39906
313.46        32.40978
313.91        32.37517
314.36         32.3171
314.82        32.21545
315.27        32.03162
315.72        31.77016
316.18        31.45004
316.63         31.1217
317.08        30.88913
317.53        30.77258
317.99        30.73849
318.44        30.73594
318.89        30.66261
319.35        30.49163
319.80        30.25827
320.25        29.99398
320.70        29.75572
321.16        29.55515
321.61         29.3732
322.06         29.2048
322.51        29.04851
322.97        28.89297
323.42        28.75385
323.87        28.58968
324.32        28.33819
324.78        27.98733
325.23        27.55604
325.68        27.11238
326.13        26.77634
326.59        26.56726
327.04        26.47931
327.49         26.4156
327.94        26.22006
328.39        25.85395
328.85        25.35464
329.30        24.83776
329.75        24.49846
330.20        24.39374
330.66        24.45722
331.11        24.57875
331.56         24.5326
332.01        24.25785
332.46         23.8157
332.92        23.32109
333.37        22.99832
333.82        22.90687
334.27        22.97653
334.72        23.10328
335.17         23.1178
335.63        22.96133
336.08        22.70489
336.53        22.39635
336.98        22.12257
337.43        21.92209
337.88        21.76867
338.34         21.6585
338.79        21.59131
339.24        21.55833
339.69        21.55808
340.14        21.57323
340.59        21.57129
341.05        21.53798
341.50        21.48068
341.95        21.38113
342.40         21.2249
342.85        21.01595
343.30        20.75947
343.75        20.50165
344.20        20.31482
344.66        20.22292
345.11        20.21503
345.56        20.23662
346.01         20.1943
346.46        20.06628
346.91        19.86934
347.36        19.68488
347.81        19.63771
348.26        19.74463
348.72        19.96629
349.17        20.17432
349.62         20.1653
350.07        19.90188
350.52        19.44532
350.97        18.96881
351.42        18.74933
351.87        18.84251
352.32        19.15757
352.77        19.50656
353.22        19.59964
353.67        19.37628
354.13        18.95107
354.58        18.45955
355.03        18.16774
355.48        18.14761
355.93        18.31156
356.38        18.54988
356.83        18.69583
357.28        18.69715
357.73        18.60849
358.18        18.47724
358.63         18.3727
359.08        18.31368
359.53         18.2653
359.98        18.20619
360.43        18.11202
360.88        17.97846
361.33        17.82269
361.78        17.64464
362.23        17.47769
362.68         17.3384
363.13        17.15014
363.58        16.91493
364.03        17.01805
364.48        16.84215
364.93        16.87011
365.38        16.88774
365.83        16.86249
366.28         16.7778
366.73        16.65293
367.18        16.50854
367.63         16.3648
368.08        16.23207
368.53        16.10013
368.98        15.97551
369.43        15.86767
369.88        15.77843
370.33        15.71491
370.78        15.65039
371.23        15.54016
371.68        15.37537
372.13        15.15981
372.58        14.95284
373.03        14.85086
373.48        14.87278
373.93        14.99941
374.38        15.13009
374.83        15.10458
375.28        14.89718
375.72        14.54718
376.17        14.21413
376.62        14.11229
377.07        14.27266
377.52        14.60312
377.97        14.94661
378.42        15.05939
378.87        14.88917
379.32         14.5355
379.77        14.09855
380.22        13.72593
380.67        13.47001
381.11        13.28154
381.56        13.17559
382.01        13.17684
382.46        13.27113
382.91        13.45483
383.36        13.63498
383.81        13.66026
384.26        13.50406
384.71        13.20606
385.15        12.86489
385.60        12.67278
386.05        12.66499
386.50        12.79065
386.95        12.96714
387.40        13.06139
387.85        13.04372
388.29        12.95642
388.74        12.87141
389.19         12.8592
389.64        12.92911
390.09        13.03384
390.54        13.14108
390.98        13.20342
391.43        13.20579
391.88        13.17114
392.33        13.07899
392.78        12.91858
393.23        12.71078
393.67        12.41575
394.12        12.11947
394.57         12.0778
395.02        12.08942
395.47        12.10789
395.91        12.06665
396.36        12.09149
396.81        12.17306
397.26        12.22394
397.71        12.23249
398.15        12.23098
398.60        12.23213
399.05        12.17624
399.50        12.09124
399.95        12.09676
400.39        12.15895
400.84        12.09408
401.29        11.91421
401.74        11.75708
402.18        11.66506
402.63        11.65834
403.08        11.71348
403.53        11.72344
403.97        11.67917
404.42          11.656
404.87        11.65777
405.32        11.66733
405.76        11.68107
406.21        11.66621
406.66        11.63616
407.11         11.6697
407.55         11.7358
408.00        11.71011
408.45        11.57962
408.90        11.36621
409.34        11.13351
409.79        11.03554
410.24        11.06732
410.68        11.07692
411.13        11.05726
411.58        11.11588
412.03        11.23189
412.47        11.30732
412.92        11.31681
413.37        11.28928
413.81        11.24113
414.26        11.20727
414.71        11.19398
415.15        11.19026
415.60        11.18616
416.05        11.16815
416.49        11.13587
416.94        11.09741
417.39        11.06245
417.83        11.04478
418.28        11.04241
418.73        11.04298
419.17        11.04871
419.62        11.06634
420.07        11.09705
420.51        11.14592
420.96        11.17903
421.41        11.15846
421.85        11.07889
422.30        10.90354
422.74        10.71639
423.19        10.77517
423.64        11.04255
424.08         11.2143
424.53        11.19814
424.98         11.1703
425.42        11.12511
425.87        10.87009
426.31        10.52153
426.76        10.49031
427.21        10.73941
427.65        10.85738
428.10        10.80551
428.54        10.80792
428.99        10.85255
429.44        10.90284
429.88        10.91382
430.33        10.69191
430.77        10.36665
431.22        10.37216
431.66        10.67684
432.11        10.89355
432.56        10.94888
433.00        10.95381
433.45        10.82679
433.89        10.53583
434.34        10.30701
434.78        9.785293
435.23        10.21144
435.67        10.59017
436.12        10.77263
436.57        10.87322
437.01        10.80348
437.46        10.75347
437.90        10.78224
438.35        10.83414
438.79        10.57639
439.24        10.46112
439.68        10.40877
440.13        10.38404
440.57        10.38316
441.02        10.49177
441.46        10.67325
441.91         10.6736
442.35        10.54488
442.80        10.71088
443.24        11.07252
443.69        11.01296
444.13        10.58749
444.58        10.38666
445.02         10.4264
445.47        10.42209
445.91        10.34899
446.36        10.31577
446.80        10.31543
447.24        10.31727
447.69        10.33521
448.13        10.41982
448.58         10.5526
449.02        10.66431
449.47        10.73303
449.91        10.77941
450.36        10.79805
450.80        10.76138
451.25        10.69034
451.69         10.6377
452.13        10.60992
452.58        10.58423
453.02        10.54826
453.47        10.48773
453.91        10.39974
454.36        10.31345
454.80        10.22572
455.24        10.11941
455.69        10.02453
456.13        9.953369
456.58        9.927708
457.02        10.01638
457.46        10.15692
457.91        10.16245
458.35         10.0785
458.79        10.03742
459.24        10.05624
459.68        10.04274
460.13        10.00431
460.57        9.935488
461.01        9.886589
461.46        9.865891
461.90         9.83095
462.34        9.821842
462.79        9.987931
463.23        10.05616
463.68         10.0618
464.12        10.04418
464.56        10.01157
465.01        9.999133
465.45        9.973688
465.89        9.886093
466.34        9.775918
466.78        9.689116
467.22        9.628833
467.67        9.801677
468.11        9.767812
468.55        9.773159
468.99        9.703805
469.44        9.683291
469.88        9.712155
470.32        9.714609
470.77        9.696999
471.21        9.700148
471.65        9.729259
472.10        9.775537
472.54        9.820636
472.98        9.849098
473.42        9.860222
473.87        9.831526
474.31        9.791565
474.75        9.878718
475.20        10.06178
475.64        10.13964
476.08        10.09697
476.52        10.10775
476.97        10.18136
477.41        10.12061
477.85         10.0386
478.29        10.09738
478.74        10.05003
479.18        10.00733
479.62        10.20989
480.06        10.26212
480.50        10.26526
480.95        10.22573
481.39        10.15686
481.83        10.30023
482.27        10.35452
482.72         10.3918
483.16        10.61839
483.60        10.70058
484.04        10.70738
484.48        10.71992
484.93        10.85525
485.37        10.83076
485.81        11.09529
486.25        11.57536
486.69        11.14583
487.14         11.0072
487.58        11.99224
488.02        11.61517
488.46        11.58322
488.90        11.79325
489.34        11.50775
489.79        11.43287
490.23        11.67473
490.67        11.89507
491.11        12.13295
491.55        12.14798
491.99        12.01244
492.43        12.06086
492.88        12.31201
493.32        12.54958
493.76        12.72525
494.20        12.89712
494.64          13.064
495.08        13.17184
495.52        13.24348
495.96        13.42321
496.41        13.72357
496.85        13.75862
497.29        13.61562
497.73        13.79643
498.17        14.24134
498.61        14.48155
499.05        14.45866
499.49        14.44538
499.93        14.49172
500.37         14.5427
500.82        14.60889
501.26        14.73982
501.70        14.94575
502.14        14.90994
502.58         15.1431
503.02        15.21623
503.46        15.21934
503.90        15.18438
504.34        15.13897
504.78        15.17748
505.22        15.30737
505.66        15.47227
506.10        15.64007
506.54        15.80172
506.98        15.94523
507.42        15.99838
507.86        16.08755
508.30        16.11649
508.74        16.12876
509.18        16.11469
509.62        16.10192
510.06        16.13468
510.50        16.21814
510.94        16.34336
511.38         16.4668
511.82        16.51614
512.26        16.47811
512.70        16.37798
513.14        16.26565
513.58        16.21569
514.02        16.24819
514.46        16.35041
514.90        16.48929
515.34        16.55248
515.78        16.61621
516.22        16.62043
516.66         16.6112
517.10        16.61343
517.54        16.63514
517.98        16.66285
518.42         16.6836
518.86        16.68273
519.30        16.65612
519.74        16.61129
520.18        16.55962
520.62        16.51529
521.06        16.48482
521.50         16.4691
521.93        16.46067
522.37        16.43943
522.81        16.40433
523.25        16.35489
523.69        16.31218
524.13         16.3099
524.57        16.34774
525.01        16.41091
525.45        16.45413
525.89        16.40648
526.32        16.25564
526.76        16.03753
527.20        15.80357
527.64        15.63866
528.08        15.56569
528.52        15.55504
528.96        15.58307
529.40        15.61065
529.83        15.61963
530.27        15.62396
530.71         15.6039
531.15        15.52742
531.59        15.39522
532.03        15.21478
532.46        15.03253
532.90        14.93781
533.34        14.94402
533.78        15.02613
534.22        15.12952
534.66        15.16794
535.09        15.12132
535.53        15.02052
535.97         14.9043
536.41        14.83564
536.85        14.83315
537.28        14.87654
537.72        14.94458
538.16        15.00227
538.60         15.0386
539.04        15.06845
539.47        15.09738
539.91        15.14178
540.35        15.20092
540.79        15.27045
541.22         15.3413
541.66         15.4013
542.10         15.4489
542.54        15.49237
542.97        15.53959
543.41        15.61091
543.85        15.70853
544.29        15.82653
544.72         15.9583
545.16         16.1072
545.60        16.26422
546.04        16.42837
546.47        16.59112
546.91        16.73425
547.35        16.85281
547.79        16.95709
548.22        17.05375
548.66        17.15239
549.10         17.2688
549.53        17.46431
549.97        17.71274
550.41        17.90989
550.84        18.04195
551.28        18.16112
551.72        18.28886
552.15        18.43737
552.59        18.61568
553.03        18.80772
553.46        18.99236
553.90        19.15458
554.34        19.28666
554.77        19.40375
555.21        19.50506
555.65        19.59031
556.08        19.64353
556.52        19.70882
556.96        19.78846
557.39        19.91532
557.83         20.0764
558.27        20.18287
558.70        20.23203
559.14        20.29394
559.57        20.36455
560.01         20.4234
560.45        20.47234
560.88        20.50496
561.32        20.56506
561.75         20.6988
562.19        20.87933
562.63        21.05577
563.06        21.16516
563.50        21.06535
563.93        20.83624
564.37        20.78926
564.80        20.94929
565.24        21.17583
565.68        21.40449
566.11        21.59971
566.55         21.7471
566.98        21.82284
567.42        21.86902
567.85        22.01174
568.29        22.24188
568.72         22.3302
569.16        22.31344
569.60        22.45436
570.03        22.76616
570.47        22.87377
570.90        23.04115
571.34        23.41784
571.77        23.53109
572.21        23.57244
572.64        23.87297
573.08        23.79341
573.51        23.84035
573.95        23.98435
574.38        24.23089
574.82        24.31946
575.25        24.34494
575.69        24.18837
576.12        24.06989
576.56        24.47576
576.99         24.7906
577.42        24.57803
577.86        24.72344
578.29        24.94691
578.73        24.58838
579.16        24.47138
579.60        24.28066
580.03        24.11695
580.47          24.004
580.90        23.96859
581.33        24.00955
581.77        24.09038
582.20        23.66051
582.64        23.53365
583.07        23.50077
583.51        23.37003
583.94        23.19256
584.37        23.02061
584.81        22.90001
585.24        22.79305
585.68        22.73954
586.11        22.53075
586.54        22.47854
586.98         22.3227
587.41        22.62286
587.85        22.22297
588.28        22.20942
588.71        22.12083
589.15        22.31487
589.58        21.96914
590.01         22.2099
590.45        22.21691
590.88        21.77414
591.31        21.71278
591.75        21.85603
592.18        21.90392
592.61         21.8731
593.05        21.94666
593.48        22.21823
593.91        22.05017
594.35        22.15154
594.78        22.42138
595.21        22.63245
595.65        22.75452
596.08        22.65031
596.51         22.9243
596.94        22.82416
597.38        23.06103
597.81        23.45593
598.24        23.48164
598.68        24.05257
599.11        24.39966
599.54        24.35028
599.97        24.56649
600.41        25.31985
600.84        25.70176
601.27        25.80712
601.70        26.05158
602.14        26.22794
602.57        26.69844
603.00        27.07994
603.43         27.6228
603.87        28.04566
604.30        28.32211
604.73        28.81733
605.16         29.1236
605.60        29.67077
606.03        30.08321
606.46        30.45967
606.89        30.71375
607.32        31.17218
607.76        31.79045
608.19        31.74371
608.62        31.89111
609.05        32.09011
609.48        32.37826
609.92        32.66813
610.35        33.34986
610.78        33.68926
611.21        33.40321
611.64        34.15098
612.07        34.30413
612.50         34.4231
612.94         34.6265
613.37        34.98155
613.80        35.08558
614.23        35.51525
614.66        35.73085
615.09        35.90288
615.52        36.12727
615.96        36.43017
616.39        36.43411
616.82         36.7929
617.25        36.90106
617.68        37.17869
618.11        37.28838
618.54        37.34488
618.97        37.56591
619.40        37.89879
619.84        38.05099
620.27        38.17552
620.70        38.10862
621.13        37.92138
621.56        38.33538
621.99        38.40219
622.42        38.39197
622.85        38.41049
623.28        38.38769
623.71        38.64785
624.14        38.32012
624.57        38.63624
625.00        38.74401
625.43        38.43251
625.86        38.36835
626.29        38.42789
626.72        38.03854
627.15        37.98714
627.58        37.77568
628.01        37.70674
628.44        37.29587
628.87        37.07378
629.30        37.15746
629.73         36.7285
630.16        36.14542
630.59        36.09153
631.02        35.84155
631.45         35.6405
631.88        35.36047
632.31        34.99644
632.74        34.68584
633.17        34.26673
633.60        33.90349
634.03        33.54926
634.46         33.2079
634.89        32.85843
635.32        32.46379
635.75        32.02367
636.18         31.5708
636.61        31.13427
637.04        30.71985
637.47        30.35498
637.89        30.11022
638.32        29.93473
638.75         29.7006
639.18        29.39085
639.61        29.06897
640.04        28.75485
640.47        28.46424
640.90        28.20993
641.33        27.97746
641.76        27.76149
642.18        27.62293
642.61        27.45232
643.04        27.33887
643.47        27.25904
643.90        27.22435
644.33        27.23462
644.76        27.28835
645.18        27.36806
645.61        27.44265
646.04        27.50642
646.47        27.56376
646.90        27.64878
647.33        27.81415
647.75        28.07587
648.18        28.43173
648.61        28.82493
649.04        29.18001
649.47        29.49024
649.89        29.71269
650.32        29.92547
650.75        30.43763
651.18        31.16846
651.61        31.63734
652.03        31.82936
652.46         32.0961
652.89         32.5502
653.32        32.99084
653.74        33.59315
654.17        34.22945
654.60        34.61787
655.03         34.6709
655.46        35.64648
655.88        36.26863
656.31        37.32198
656.74        39.56263
657.16        39.82092
657.59        40.00462
658.02        38.40339
658.45        38.93584
658.87        39.20775
659.30         39.5895
659.73        39.81794
660.15         39.4843
660.58        39.99995
661.01        40.38366
661.44        40.92859
661.86        41.19189
662.29        41.18232
662.72        41.21201
663.14        41.34946
663.57        41.58416
664.00        41.88348
664.42        42.09534
664.85        42.21582
665.27         42.3703
665.70        42.56009
666.13        42.71625
666.55        42.83962
666.98         42.9517
667.41        43.06273
667.83        43.18285
668.26         43.3078
668.69        43.43778
669.11        43.56565
669.54        43.67658
669.96        43.77477
670.39        43.85281
670.82        43.92247
671.24        44.02977
671.67        44.17054
672.09        44.25357
672.52        44.30133
672.94        44.42669
673.37        44.60953
673.80        44.68341
674.22        44.67041
674.65        44.70819
675.07        44.81695
675.50         44.9054
675.92        44.96557
676.35        45.01393
676.77        45.05319
677.20        45.08416
677.62        45.11943
678.05        45.16528
678.47        45.22631
678.90         45.3083
679.32        45.41126
679.75        45.54368
680.17        45.69852
680.60        45.87111
681.02        46.03198
681.45        46.12515
681.87        46.15111
682.30        46.10239
682.72        46.02594
683.15        46.04753
683.57        46.16803
684.00        46.21655
684.42        46.21521
684.85        46.32682
685.27        46.54288
685.70        46.77125
686.12        46.95105
686.54        47.05108
686.97        47.04834
687.39        46.93542
687.82        46.77979
688.24        46.66502
688.66        46.82851
689.09        46.89145
689.51        46.91901
689.94        47.04969
690.36        47.24995
690.78          47.297
691.21        47.21837
691.63        47.24569
692.06        47.38001
692.48        47.44702
692.90        47.44547
693.33        47.46519
693.75        47.51161
694.17        47.55721
694.60        47.59847
695.02        47.64377
695.44        47.70244
695.87        47.79688
696.29        47.92059
696.71        48.07241
697.14        48.20357
697.56        48.21121
697.98        48.12125
698.41        48.12178
698.83        48.21142
699.25        48.30665
699.68        48.37683
700.10         48.4547
700.52        48.52472
700.94        48.58241
701.37        48.61613
701.79        48.63368
702.21        48.62453
702.64        48.59857
703.06         48.5676
703.48        48.56472
703.90         48.6019
704.33        48.66922
704.75        48.75248
705.17        48.81075
705.59        48.83267
706.01        48.80859
706.44        48.77186
706.86         48.8583
707.28        48.93737
707.70        49.11889
708.12        49.30568
708.55        49.34422
708.97        49.24103
709.39         49.1683
709.81        49.16241
710.23        49.15854
710.66        49.17044
711.08        49.27237
711.50        49.41616
711.92        49.50277
712.34        49.51791
712.76        49.49022
713.19        49.45607
713.61        49.50855
714.03        49.64889
714.45        49.84268
714.87        50.04018
715.29        50.17021
715.71        50.21448
716.13        50.19524
716.56        50.12884
716.98        50.10048
717.40        50.11794
717.82        50.15516
718.24        50.20153
718.66         50.2724
719.08        50.34356
719.50        50.34462
719.92        50.30297
720.34        50.32145
720.76         50.4074
721.19        50.50714
721.61        50.57744
722.03        50.54551
722.45        50.40138
722.87        50.17076
723.29        49.94835
723.71        49.88576
724.13        50.01804
724.55        50.30295
724.97        50.63833
725.39        50.85392
725.81        50.90176
726.23        50.82656
726.65        50.71136
727.07        50.69205
727.49        50.80105
727.91        50.98947
728.33         51.1856
728.75        51.27318
729.17        51.22299
729.59        51.08428
730.01        50.91365
730.43         50.7973
730.85        50.76364
731.27        50.78127
731.69        50.84272
732.10        50.93795
732.52        51.04144
732.94         51.1978
733.36        51.37379
733.78        51.41045
734.20        51.27361
734.62        51.40167
735.04        51.03909
735.46        51.11953
735.88        51.35546
736.30        51.43243
736.72        51.32854
737.13        51.29122
737.55        51.32862
737.97        51.35351
738.39        51.36503
738.81        51.36289
739.23         51.3555
739.65        51.41254
740.06        51.49059
740.48        51.52795
740.90        51.49329
741.32        51.47552
741.74        51.41548
742.16        51.40401
742.57        51.43403
742.99        51.49063
743.41        51.55343
743.83        51.57673
744.25        51.55268
744.67        51.48922
745.08         51.4409
745.50        51.46777
745.92        51.58987
746.34        51.78202
746.75        51.97162
747.17        52.04203
747.59        51.97061
748.01        51.79022
748.42        51.58384
748.84        51.48895
749.26        51.53257
749.68        51.66809
750.09        51.83048
750.51        51.90127
750.93        51.87095
751.35        51.88095
751.76        51.94119
752.18        51.91434
752.60        51.78815
753.01        51.81917
753.43        51.75375
753.85        51.72045
754.27        51.61684
754.68        51.96592
755.10        51.84605
755.52        51.94642
755.93        52.02969
756.35        52.04593
756.77        51.96176
757.18        52.14553
757.60        52.68802
758.02        52.19974
758.43        52.36342
758.85        53.04364
759.26        53.09554
759.68        52.84664
760.10         52.1156
760.51        51.21291
760.93        51.88909
761.34        51.83939
761.76        52.32812
762.18        52.43758
762.59        52.42612
763.01        52.28433
763.42        52.15462
763.84        52.19291
764.26        52.40872
764.67         52.6533
765.09        52.84798
765.50           52.86
765.92        52.72796
766.33        52.57785
766.75        52.42059
767.16        52.42012
767.58         52.2513
768.00        52.41697
768.41        52.74896
768.83        52.80392
769.24        52.60897
769.66        52.59243
770.07        52.73075
770.49        52.77758
770.90        52.72242
771.32         52.6309
771.73        52.54484
772.15        52.55407
772.56        52.68911
772.97        52.79852
773.39        52.79835
773.80        53.15073
774.22        53.01677
774.63        53.02134
775.05        52.92935
775.46        52.86729
775.88        52.83033
776.29        52.80607
776.70        52.81166
777.12        52.87505
777.53        53.00673
777.95        53.17708
778.36        53.34837
778.77          53.444
779.19        53.45159
779.60          53.409
780.02        53.32796
780.43         53.2882
780.84        53.31168
781.26        53.24842
781.67        53.17919
782.09        53.45242
782.50        53.90339
782.91        54.04605
783.33        53.62012
783.74        53.47537
784.15         53.5469
784.57        53.50431
784.98        53.40647
785.39        53.17347
785.81        53.52915
786.22         53.5072
786.63        53.35131
787.04        53.33266
787.46        53.47043
787.87        53.58641
788.28        53.65142
788.70        53.72469
789.11        53.78701
789.52        53.77707
789.93        53.74003
790.35        53.85867
790.76        54.10548
791.17        54.17553
791.58        54.06479
792.00        54.02267
792.41        54.07475
792.82        54.03734
793.23        53.95978
793.65        54.02143
794.06         54.2269
794.47        54.48085
794.88         54.7044
795.29        54.69055
795.71        54.76405
796.12        54.55481
796.53        54.25137
796.94        54.30704
797.35        54.65812
797.76        54.62287
798.18        54.25292
798.59        54.18231
799.00        54.43766
799.41         54.6622
799.82        54.76245
800.23        54.76452
800.64        54.64477
801.06         54.3785
801.47        54.09129
801.88        53.93703
802.29        53.96122
802.70        54.12923
803.11        54.35186
803.52        54.46981
803.93        54.44191
804.34        54.31608
804.75        54.17351
805.17         54.1577
805.58        54.32926
805.99        54.56152
806.40        54.78446
806.81        55.03223
807.22        55.18924
807.63        54.96909
808.04        54.50584
808.45         54.3265
808.86        54.50838
809.27        54.79075
809.68        55.04647
810.09        55.15485
810.50        55.06273
810.91         54.8155
811.32        54.52443
811.73         54.3802
812.14         54.4393
812.55        54.61441
812.96        54.83329
813.37        55.05177
813.78         55.1852
814.19        55.08921
814.60        54.84681
815.01        54.74065
815.42        54.80806
815.83        54.91087
816.24         55.0055
816.65        55.07334
817.05        55.09558
817.46        55.05579
817.87        55.00615
818.28        54.98132
818.69        54.99092
819.10        55.02373
819.51        55.06639
819.92        55.09332
820.33        55.10021
820.74        55.10284
821.14         55.1016
821.55        55.13244
821.96        55.18241
822.37        55.23266
822.78        55.29544
823.19         55.3919
823.60        55.51678
824.00        55.68338
824.41        55.78662
824.82        55.72438
825.23        55.48655
825.64        55.11664
826.04         54.7644
826.45        54.65533
826.86        54.84725
827.27        55.27103
827.68        55.78408
828.08        56.16809
828.49        56.28989
828.90        56.24585
829.31        56.11046
829.72        56.01947
830.12        56.03423
830.53        56.05982
830.94        56.09672
831.35        56.12748
831.75        56.15315
832.16        56.17065
832.57        56.14755
832.97        55.99065
833.38         55.7028
833.79        55.33258
834.20        55.00359
834.60        54.89417
835.01        55.04398
835.42        55.39088
835.82        55.84202
836.23        56.17473
836.64        56.32594
837.04        56.35125
837.45         56.2635
837.86        56.17635
838.26        56.13548
838.67        56.10751
839.08        56.06427
839.48        55.95304
839.89        55.77408
840.29        55.54659
840.70        55.36522
841.11        55.36862
841.51        55.59083
841.92        55.96196
842.33        56.32878
842.73         56.4329
843.14        56.17594
843.54         55.6545
843.95        55.08021
844.35        54.80717
844.76        54.91949
845.17        55.32014
845.57        55.80549
845.98          56.008
846.38        55.84858
846.79        55.42422
847.19        54.93848
847.60        54.69402
848.00        54.78757
848.41        55.08401
848.81        55.45712
849.22        55.64409
849.62         55.6045
850.03        55.41829
850.43        55.17674
850.84        54.94734
851.24         54.8056
851.65        54.67269
852.05        54.65223
852.46        54.86917
852.86        55.29223
853.27        55.86304
853.67        56.33143
854.07        56.48471
854.48        56.26835
854.88        55.78186
855.29        55.10601
855.69        54.56827
856.10         54.2418
856.50        54.11946
856.90        54.14923
857.31        54.24881
857.71        54.41456
858.12         54.6235
858.52        54.86366
858.92        54.99454
859.33        54.97305
859.73        54.83141
860.13        54.60437
860.54        54.39112
860.94        54.26477
861.34        54.20592
861.75        54.17073
862.15        54.14983
862.55        54.10876
862.96         54.0648
863.36        54.06298
863.76        54.17056
864.17        54.37726
864.57        54.65914
864.97        54.90907
865.38        54.94746
865.78        54.77521
866.18        54.41769
866.58        53.97551
866.99        53.65813
867.39        53.55312
867.79        53.57875
868.19        53.66264
868.60        53.65551
869.00        53.50702
869.40        53.30909
869.80        53.07982
870.21        52.85936
870.61        52.74612
871.01        52.66801
871.41        52.68997
871.81        52.91559
872.22          53.327
872.62        53.91321
873.02         54.5222
873.42        54.84813
873.82        54.79957
874.22         54.4695
874.63        54.04599
875.03        53.80843
875.43        53.82185
875.83        54.00172
876.23         54.2572
876.63        54.43344
877.03        54.47265
877.44        54.42393
877.84        54.31489
878.24        54.17419
878.64        54.01944
879.04        53.83269
879.44        53.63957
879.84        53.47477
880.24        53.34853
880.64        53.27744
881.04         53.2224
881.44        53.11352
881.84        52.93117
882.24        52.66219
882.65        52.39968
883.05        52.38828
883.45         52.6245
883.85        53.05959
884.25        53.43919
884.65        53.37931
885.05        52.83231
885.45        51.91567
885.85        50.99006
886.25         50.6809
886.65        51.13207
887.05        52.12833
887.45        53.25279
887.85        53.87175
888.25        53.81899
888.65         53.2729
889.04        52.49398
889.44        51.97705
889.84        51.84959
890.24        51.96145
890.64        52.13828
891.04          52.113
891.44        51.82804
891.84        51.41995
892.24        51.01588
892.64        50.78719
893.04        50.78716
893.44        50.94355
893.83        51.23634
894.23        51.57798
894.63        51.94565
895.03        52.34415
895.43        52.70929
895.83        52.93663
896.23        53.00494
896.63        52.93386
897.02        52.80011
897.42        52.74795
897.82        52.80643
898.22        52.94841
898.62        53.11316
899.01        53.20077
899.41        53.16807
899.81        53.04454
900.21        52.89123
900.61         52.8081
901.00        52.80416
901.40          52.867
901.80        52.89927
902.20        52.76308
902.59        52.45053
902.99        52.01271
903.39        51.57859
903.79        51.34354
904.18        51.36398
904.58        51.57378
904.98        51.88599
905.38        52.17305
905.77        52.37848
906.17        52.52977
906.57        52.64551
906.96        52.77224
907.36        52.90853
907.76        53.05206
908.15         53.1441
908.55        53.04128
908.95          52.763
909.34        52.34358
909.74        51.99674
910.14        51.98963
910.53        52.36787
910.93        53.02792
911.33        53.74476
911.72        54.13606
912.12        54.07817
912.52        53.72001
912.91          53.234
913.31        52.86077
913.70        52.67596
914.10        52.59457
914.49         52.6075
914.89        52.67792
915.29        52.78188
915.68        52.93242
916.08         53.0851
916.47        53.14563
916.87        53.10851
917.26        52.97541
917.66         52.7948
918.05        52.62346
918.45        52.47693
918.84        52.36533
919.24        52.27639
919.64        52.26167
920.03         52.3423
920.42        52.50808
920.82           52.71
921.21        52.85879
921.61        52.92389
922.00        52.91218
922.40        52.90594
922.79        53.09467
923.19         53.4693
923.58        53.99237
923.98        54.42892
924.37        54.49571
924.77          54.133
925.16         53.4178
925.55        52.61076
925.95        52.16435
926.34        52.19234
926.74        52.55395
927.13         53.0411
927.52        53.21871
927.92        52.99859
928.31        52.52165
928.70        51.96671
929.10        51.59703
929.49        51.48213
929.89        51.50657
930.28        51.63555
930.67        51.73932
931.07        51.75035
931.46        51.72665
931.85        51.63735
932.24        51.45259
932.64        51.17441
933.03        50.80754
933.42        50.40542
933.82        50.06173
934.21        49.81429
934.60        49.67789
934.99        49.62348
935.39        49.57644
935.78        49.53646
936.17        49.50977
936.56        49.59236
936.96        49.91607
937.35        50.52011
937.74         51.3051
938.13        52.04195
938.53         52.4309
938.92        52.42635
939.31        52.07129
939.70        51.60784
940.09        51.46305
940.49         51.7141
940.88        52.27822
941.27        52.82681
941.66        52.85484
942.05        52.27723
942.44         51.2727
942.84        50.22805
943.23        49.69305
943.62        49.84844
944.01        50.52092
944.40        51.38562
944.79         51.8631
945.18        51.75956
945.57        51.24822
945.97        50.54531
946.36        50.05961
946.75        49.86565
947.14        49.85181
947.53        49.90245
947.92        49.83841
948.31        49.61372
948.70        49.31049
949.09         49.0503
949.48        48.99627
949.87        49.17861
950.26        49.53749
950.65        49.93413
951.04        50.15662
951.43         50.1574
951.82        49.99549
952.21         49.8063
952.60        49.83276
952.99        50.11776
953.38        50.54076
953.77        50.96413
954.16        51.18705
954.55        51.15133
954.94        50.94107
955.33        50.56503
955.72        50.03276
956.11        49.39497
956.50        48.66672
956.89        48.01992
957.28        47.74716
957.66        47.94147
958.05        48.52576
958.44        49.28297
958.83        49.85321
959.22        50.11186
959.61        50.10316
960.00         49.9622
960.39        49.92505
960.78        50.04586
961.16          50.277
961.55        50.40562
961.94        50.15543
962.33        49.50635
962.72         48.6284
963.11        47.81953
963.49        47.49137
963.88        47.72872
964.27        48.40342
964.66        49.31843
965.04        50.12167
965.43        50.57825
965.82        50.78412
966.21        50.79403
966.60        50.72594
966.98        50.61635
967.37        50.38317
967.76        50.04128
968.15        49.63057
968.53        49.22971
968.92        48.96748
969.31        48.82379
969.69        48.71161
970.08        48.63848
970.47        48.61164
970.86        48.93019
971.24        50.09607
971.63         51.9837
972.02         54.2699
972.40        56.37027
972.79        57.35331
973.17        57.18153
973.56        56.06789
973.95        54.45608
974.33        53.11995
974.72        52.39087
975.11        52.07516
975.49        52.01984
975.88        51.99456
976.26        51.88425
976.65        51.82065
977.04        51.75149
977.42        51.53284
977.81        51.10581
978.19        50.39464
978.58        49.66647
978.96        49.31246
979.35        49.41861
979.74        49.91991
980.12         50.4861
980.51        50.35077
980.89        49.45835
981.28        47.95276
981.66         46.3751
982.05        45.81196
982.43        46.51425
982.82        48.13115
983.20        50.04004
983.59        51.11695
983.97         51.1922
984.35        50.54483
984.74        49.63982
985.12        49.25888
985.51        49.63673
985.89          50.485
986.28        51.53564
986.66        52.56145
987.04         53.3984
987.43        54.11581
987.81        54.63141
988.20        54.70456
988.58        54.34759
988.96        53.64679
989.35        52.67897
989.73        51.66034
990.12        50.64037
990.50        49.45752
990.88        48.42917
991.27        48.20582
991.65        48.88269
992.03        50.35749
992.42         51.6408
992.80        51.79955
993.18        50.54325
993.56        47.97994
993.95        45.09761
994.33         44.1078
994.71        45.92445
995.10        49.25646
995.48        52.62452
995.86        54.39908
996.24         54.4705
996.63        53.34534
997.01        51.49726
997.39          50.052
997.77        49.62215
998.15        49.83662
998.54        50.36252
998.92        50.81461
999.30        51.01643
999.68        51.18911
1000.06        51.32569
1000.45        51.25659
1000.83         51.0329
1001.21        50.64743
1001.59        50.26653
1001.97         50.1559
1002.35        50.41209
1002.73        51.05538
1003.12        51.99229
1003.50        52.71076
1003.88        53.06793
1004.26        53.04784
1004.64        52.97022
1005.02        53.29405
1005.40        54.07977
1005.78        55.26997
1006.16        56.25855
1006.54        55.98186
1006.92        54.23195
1007.30        51.31991
1007.69        48.44445
1008.07        47.45529
1008.45        48.83622
1008.83        51.98043
1009.21         55.4244
1009.59         57.0533
1009.97         56.2949
1010.35        53.43802
1010.73        49.49259
1011.11        47.18262
1011.49        47.79197
1011.86        50.62222
1012.24           53.79
1012.62         54.8991
1013.00        53.56559
1013.38        50.75715
1013.76        47.64201
1014.14        46.11258
1014.52        46.77505
1014.90        48.88554
1015.28        52.03768
1015.66         55.3616
1016.04        58.14248
1016.41        60.65731
1016.79        61.91699
1017.17        60.88411
1017.55        57.67982
1017.93        52.75493
1018.31        47.70876
1018.69        45.09462
1019.06        45.65514
1019.44        49.03305
1019.82        54.11217
1020.20        58.17733
1020.58        59.88769
1020.95        59.74503
1021.33        58.70606
1021.71        58.16067
1022.09        58.38387
1022.46        58.80676
1022.84        58.83623
1023.22        57.31498
1023.60        53.87735
1023.97        48.64847
1024.35        42.76492
1024.73        38.36972
