SpectraSmart Spectrum 2.9.0.0
--------- Device Information -----------
Spectrum Name :  反射率_0
Saving Time :  2024/04/27 23:06:57
Spectro-Module Model Name : SE2030-DUVN
Spectro-Module Serial Number : OS361AC55029948
Wavelength Start : 200
Wavelength End : 1025
Wavelength Unit : Wavelength(nm)
Spectrum Unit : Reflectance(%)
-----------Spectrum Setting ------------
Integration Time : 20ms
Average : 10
Boxcar : 0
Background removal :  enabled
linearity correction :  enabled
SC :  disabled
Intensity correction :  disabled
DWT denoise :  enabled
savitzky-golay :  disabled
FFT :  disabled
Running average :  disabled
Kalman :  disabled
High pass :  disabled
---------------BEGIN--------------------
Wavelength(nm)             Reflectance(%)
200.29               0
200.75       -6.898754
201.21        4.517694
201.67        15.49992
202.13        19.47803
202.58        18.63055
203.04        15.82091
203.50        15.43079
203.96        22.46353
204.42        35.04619
204.88        49.06804
205.34        60.61458
205.80        67.03234
206.26        68.54721
206.72        65.25751
207.18        56.13466
207.64        45.75188
208.10        41.62769
208.55        43.43712
209.01        44.26965
209.47        40.02461
209.93        27.72326
210.39       -4.434879
210.85       -100.9592
211.31       -215.6171
211.77       -74.09564
212.23         17.5985
212.69        49.30198
213.14        58.00073
213.60        55.50416
214.06        44.26511
214.52        22.83711
214.98        7.627795
215.44        15.74212
215.90        31.58105
216.36        44.58942
216.81        52.24614
217.27        56.05116
217.73        58.34125
218.19        58.71812
218.65        55.72531
219.11        49.11652
219.57        38.83532
220.02        26.48872
220.48         18.6844
220.94          18.162
221.40        23.02103
221.86        30.74238
222.32        38.52047
222.77        45.38043
223.23        51.37551
223.69        55.96691
224.15        58.60983
224.61        59.58934
225.06        59.07652
225.52        57.71922
225.98        56.44582
226.44        55.72059
226.90        55.24065
227.36        54.92168
227.81        54.59232
228.27          54.156
228.73        53.62387
229.19        52.69573
229.65        50.88547
230.10        48.23616
230.56        45.40004
231.02        42.87183
231.48        41.36044
231.93        40.89369
232.39        41.22723
232.85        42.20927
233.31         43.6855
233.77        45.41547
234.22        47.38605
234.68        48.98293
235.14        49.50312
235.60        48.85722
236.05        47.05867
236.51        44.86058
236.97        43.98489
237.43        45.14564
237.88        48.12713
238.34        51.33012
238.80        53.20555
239.26        53.36175
239.71        51.58281
240.17        48.37946
240.63        48.03864
241.08         53.2275
241.54        60.09608
242.00        64.76993
242.46        65.89274
242.91        63.76725
243.37        56.92225
243.83        42.09941
244.28        24.07313
244.74        25.34791
245.20        45.05587
245.66        61.43188
246.11        66.14384
246.57         61.5198
247.03         47.8061
247.48        25.04403
247.94        9.561364
248.40        18.10044
248.85         40.9152
249.31        63.62202
249.77        75.05537
250.22        76.52067
250.68        73.34447
251.14        69.47183
251.59        67.95872
252.05        69.13631
252.51        71.97276
252.96        74.60484
253.42         72.6557
253.88        65.21597
254.33        57.23346
254.79        52.03254
255.25        49.80182
255.70        49.63207
256.16        50.95272
256.62        53.40115
257.07        56.68291
257.53        60.23907
257.99        63.17571
258.44        64.85913
258.90        65.16053
259.35        64.04595
259.81        62.40819
260.27        60.30473
260.72        57.87038
261.18        55.68772
261.63        53.57231
262.09        51.98658
262.55        51.06039
263.00        50.61898
263.46        50.61786
263.91        50.68896
264.37        50.65654
264.83        50.38377
265.28         49.9329
265.74        49.38963
266.19        48.66434
266.65        47.84647
267.11        46.88804
267.56        45.90188
268.02        45.17669
268.47        44.71688
268.93        44.48458
269.38        44.27781
269.84         43.7969
270.30        42.97988
270.75        41.92125
271.21        40.82752
271.66        39.97036
272.12        39.43102
272.57        39.07318
273.03        38.77277
273.48        38.25698
273.94         37.5252
274.39          36.643
274.85        35.76652
275.31        35.02295
275.76        34.42411
276.22        33.94478
276.67        33.50124
277.13        33.08274
277.58        32.62177
278.04        32.18085
278.49        31.69766
278.95        31.19356
279.40        30.62354
279.86        30.04832
280.31        29.46621
280.77         28.9992
281.22        28.62479
281.68        28.36409
282.13         28.1377
282.59         27.8825
283.04        27.56747
283.50        27.22802
283.95        26.91457
284.41         26.7455
284.86         26.7138
285.32        26.78947
285.77        26.86164
286.22        26.81087
286.68        26.63163
287.13        26.33606
287.59        26.03042
288.04        25.79965
288.50        25.69825
288.95        25.66787
289.41        25.67733
289.86        25.63248
290.32        25.53708
290.77        25.41933
291.22        25.33019
291.68        25.33434
292.13        25.43977
292.59        25.63782
293.04        25.90158
293.50        26.21753
293.95         26.5627
294.40        26.94527
294.86        27.36196
295.31        27.79981
295.77        28.25993
296.22        28.72447
296.68        29.19403
297.13        29.64837
297.58        30.08797
298.04        30.51602
298.49         30.9301
298.95        31.34408
299.40        31.75739
299.85        32.16469
300.31        32.59315
300.76        33.04406
301.21        33.51842
301.67        34.01435
302.12        34.46114
302.58        34.79714
303.03        34.99935
303.48        35.10276
303.94        35.20515
304.39         35.4054
304.84        35.73719
305.30        36.16864
305.75        36.58866
306.20        36.86988
306.66         36.9963
307.11        36.97982
307.57        36.92671
308.02        36.93518
308.47        37.04241
308.93        37.20786
309.38        37.33442
309.83        37.30523
310.29        37.11099
310.74        36.78877
311.19        36.42792
311.65        36.16301
312.10        36.01434
312.55        35.94696
313.00        35.91675
313.46        35.85558
313.91        35.73401
314.36        35.57832
314.82        35.38379
315.27        35.13774
315.72        34.84896
316.18        34.52716
316.63        34.20135
317.08        33.94222
317.53        33.76407
317.99        33.64597
318.44         33.5558
318.89        33.42291
319.35        33.22608
319.80        32.98263
320.25        32.71667
320.70        32.47406
321.16        32.25899
321.61        32.06203
322.06        31.85407
322.51         31.5934
322.97        31.27019
323.42        30.91764
323.87        30.55875
324.32        30.23707
324.78        29.96552
325.23        29.73556
325.68        29.54458
326.13        29.39305
326.59        29.25947
327.04        29.16135
327.49        29.04964
327.94        28.85344
328.39        28.55761
328.85        28.17295
329.30        27.76425
329.75        27.43807
330.20        27.23178
330.66        27.11121
331.11        27.04208
331.56        26.91426
332.01        26.69707
332.46        26.42037
332.92        26.12515
333.37        25.90919
333.82        25.79146
334.27        25.73914
334.72        25.71209
335.17        25.64733
335.63        25.51807
336.08        25.36261
336.53        25.18456
336.98        25.00139
337.43        24.82606
337.88        24.65119
338.34        24.50019
338.79        24.41508
339.24        24.40131
339.69         24.4503
340.14        24.51205
340.59        24.50423
341.05        24.40614
341.50        24.24006
341.95        24.05298
342.40        23.93111
342.85        23.89178
343.30        23.90506
343.75        23.91802
344.20        23.84583
344.66        23.67604
345.11        23.44338
345.56        23.19722
346.01        23.01023
346.46          22.906
346.91        22.85911
347.36        22.86246
347.81        22.90265
348.26        22.96798
348.72         23.0647
349.17        23.15588
349.62        23.18117
350.07        23.12651
350.52        22.99288
350.97        22.84567
351.42        22.79586
351.87        22.85924
352.32        23.00308
352.77        23.12286
353.22        23.05726
353.67        22.78483
354.13        22.38143
354.58        21.95036
355.03        21.70594
355.48        21.70203
355.93         21.8747
356.38        22.11805
356.83        22.26572
357.28        22.26779
357.73         22.1714
358.18        22.03393
358.63        21.94468
359.08        21.92512
359.53        21.93675
359.98        21.93807
360.43        21.87267
360.88        21.72837
361.33        21.52741
361.78        21.29719
362.23        21.11414
362.68         21.0026
363.13         20.8778
363.58        20.70209
364.03        20.77993
364.48        20.51389
364.93         20.3904
365.38         20.2583
365.83        20.16931
366.28        20.12503
366.73        20.11483
367.18        20.11328
367.63        20.06653
368.08        19.96286
368.53        19.81651
368.98        19.65458
369.43        19.51972
369.88         19.4273
370.33        19.37096
370.78        19.32764
371.23        19.26158
371.68        19.16049
372.13        19.02495
372.58        18.89459
373.03        18.83133
373.48        18.84529
373.93        18.92628
374.38        18.98778
374.83        18.89475
375.28        18.63048
375.72        18.22741
376.17         17.8485
376.62         17.7096
377.07        17.84332
377.52        18.16509
377.97        18.50673
378.42        18.60475
378.87        18.40529
379.32        18.01026
379.77        17.54752
380.22        17.20841
380.67        17.04803
381.11        17.00031
381.56        17.03221
382.01        17.09072
382.46        17.14434
382.91        17.21428
383.36        17.25725
383.81        17.20001
384.26        17.03573
384.71        16.78078
385.15        16.50085
385.60        16.33599
386.05         16.3087
386.50        16.39069
386.95        16.51679
387.40        16.58052
387.85        16.55709
388.29        16.46694
388.74        16.38546
389.19        16.38372
389.64        16.46505
390.09        16.58379
390.54        16.67985
390.98        16.65945
391.43        16.51525
391.88        16.29799
392.33         16.0391
392.78        15.80588
393.23        15.63004
393.67        15.42586
394.12        15.24607
394.57        15.34145
395.02        15.43622
395.47        15.48723
395.91        15.41589
396.36        15.39946
396.81        15.43831
397.26        15.41983
397.71        15.34436
398.15         15.2758
398.60        15.23493
399.05        15.14331
399.50        15.03306
399.95        15.04399
400.39         15.1309
400.84        15.07221
401.29        14.86767
401.74        14.66418
402.18        14.51212
402.63         14.4376
403.08        14.44816
403.53        14.47437
403.97        14.50996
404.42        14.62232
404.87        14.75871
405.32        14.80657
405.76        14.74661
406.21        14.57779
406.66        14.36564
407.11        14.28125
407.55        14.31155
408.00        14.28215
408.45        14.18038
408.90        14.03202
409.34        13.89754
409.79        13.96383
410.24        14.17946
410.68        14.27546
411.13        14.22493
411.58        14.17867
412.03        14.16272
412.47        14.15123
412.92        14.14452
413.37         14.1581
413.81        14.15842
414.26        14.10421
414.71        13.98753
415.15        13.82237
415.60        13.65704
416.05        13.58052
416.49        13.61469
416.94         13.7276
417.39        13.85519
417.83        13.89879
418.28        13.82886
418.73        13.67052
419.17        13.47925
419.62        13.34844
420.07        13.31144
420.51        13.34945
420.96        13.41097
421.41        13.43346
421.85        13.39779
422.30        13.26248
422.74        13.11244
423.19        13.23759
423.64        13.58672
424.08        13.78319
424.53        13.72757
424.98        13.66083
425.42        13.58482
425.87        13.26252
426.31        12.82444
426.76        12.74641
427.21        12.98039
427.65        13.03579
428.10        12.90333
428.54        12.89788
428.99        13.00747
429.44        13.16993
429.88        13.28589
430.33        13.04502
430.77        12.59583
431.22        12.49598
431.66         12.7375
432.11        12.91485
432.56        12.96155
433.00        12.99203
433.45        12.89356
433.89         12.5954
434.34        12.35108
434.78        11.74902
435.23        12.27328
435.67        12.71846
436.12        12.90825
436.57        12.98008
437.01        12.85397
437.46        12.80158
437.90        12.89709
438.35        13.05925
438.79        12.85057
439.24        12.75792
439.68        12.67179
440.13        12.56501
440.57        12.45481
441.02         12.4831
441.46        12.62094
441.91        12.56132
442.35        12.36335
442.80        12.51394
443.24        12.89162
443.69        12.78769
444.13        12.26961
444.58        12.02005
445.02        12.05705
445.47        12.04431
445.91        11.96744
446.36        11.97343
446.80        12.05266
447.24         12.1594
447.69        12.27183
448.13        12.39039
448.58        12.48619
449.02        12.49702
449.47        12.44877
449.91        12.44447
450.36        12.49606
450.80        12.54742
451.25        12.58153
451.69         12.5933
452.13        12.57303
452.58        12.51532
453.02        12.43227
453.47         12.3489
453.91        12.27264
454.36        12.21996
454.80         12.1721
455.24        12.08544
455.69        11.98938
456.13        11.91202
456.58        11.88297
457.02        11.98847
457.46        12.15779
457.91        12.16457
458.35        12.07576
458.79         12.0709
459.24         12.1699
459.68        12.25357
460.13        12.30322
460.57        12.27131
461.01        12.21059
461.46        12.14238
461.90        12.03919
462.34        11.99241
462.79         12.1968
463.23        12.30814
463.68        12.34878
464.12         12.3307
464.56         12.2595
465.01        12.19274
465.45        12.11458
465.89        11.99757
466.34        11.89516
466.78        11.85191
467.22        11.85237
467.67         12.1203
468.11         12.1033
468.55        12.11492
468.99        12.02841
469.44        12.02095
469.88        12.09875
470.32        12.15456
470.77        12.18749
471.21        12.23678
471.65        12.30231
472.10        12.37936
472.54        12.43613
472.98        12.44006
473.42        12.39434
473.87        12.27887
474.31        12.15695
474.75        12.24012
475.20        12.49764
475.64        12.66681
476.08        12.70169
476.52        12.78231
476.97        12.91125
477.41        12.84836
477.85        12.74576
478.29        12.82538
478.74        12.77764
479.18        12.73387
479.62         12.9979
480.06        13.06448
480.50        13.06307
480.95        13.00802
481.39         12.9125
481.83        13.07565
482.27        13.11424
482.72        13.11762
483.16        13.36876
483.60        13.48521
484.04         13.5481
484.48        13.66171
484.93        13.93343
485.37        13.89445
485.81        14.03389
486.25        14.65268
486.69        13.73146
487.14        13.53959
487.58        14.53473
488.02        14.50759
488.46        14.33855
488.90        14.59098
489.34        14.20515
489.79        14.10981
490.23        14.49627
490.67         14.8301
491.11        15.16208
491.55        15.22273
491.99        15.08598
492.43        15.13936
492.88        15.40078
493.32        15.59826
493.76        15.70446
494.20        15.85379
494.64        16.05663
495.08        16.22689
495.52        16.36066
495.96        16.59298
496.41        16.91218
496.85        16.87275
497.29        16.60982
497.73        16.77934
498.17        17.31566
498.61        17.63197
499.05        17.64032
499.49        17.64604
499.93        17.70126
500.37        17.75044
500.82        17.80345
501.26        17.91702
501.70        18.10708
502.14        17.99214
502.58        18.21173
503.02        18.28383
503.46        18.32144
503.90        18.35035
504.34        18.37558
504.78        18.46275
505.22         18.6072
505.66        18.75585
506.10        18.88598
506.54        19.01408
506.98        19.13606
507.42        19.15622
507.86        19.23263
508.30        19.26012
508.74        19.29127
509.18        19.31719
509.62        19.34961
510.06        19.40414
510.50        19.48093
510.94        19.57795
511.38         19.6765
511.82        19.74562
512.26         19.7775
512.70        19.77999
513.14        19.77156
513.58         19.7756
514.02        19.79878
514.46        19.84827
514.90        19.91202
515.34        19.89969
515.78         19.9213
516.22        19.89417
516.66        19.87137
517.10        19.87845
517.54        19.92136
517.98        19.98756
518.42        20.05569
518.86        20.09557
519.30        20.09757
519.74        20.07018
520.18        20.02745
520.62        19.99084
521.06        19.96858
521.50        19.95791
521.93        19.95181
522.37        19.93069
522.81        19.89439
523.25        19.84584
523.69        19.80307
524.13        19.79338
524.57        19.81771
525.01        19.86443
525.45        19.89932
525.89        19.86929
526.32        19.76243
526.76        19.60519
527.20        19.43487
527.64        19.31397
528.08        19.25973
528.52        19.25277
528.96        19.27025
529.40        19.27526
529.83        19.25435
530.27        19.22019
530.71        19.17543
531.15        19.12361
531.59        19.06871
532.03        19.00874
532.46        18.94809
532.90        18.90776
533.34        18.88873
533.78        18.88873
534.22        18.90161
534.66        18.91628
535.09        18.92723
535.53         18.9394
535.97        18.95216
536.41        18.96788
536.85        18.98666
537.28        19.00723
537.72        19.02784
538.16        19.04334
538.60        19.05545
539.04        19.07294
539.47         19.0945
539.91        19.12922
540.35        19.17466
540.79         19.2323
541.22        19.30361
541.66        19.39129
542.10        19.49287
542.54        19.60724
542.97        19.72237
543.41        19.83146
543.85        19.93048
544.29        20.02398
544.72        20.11847
545.16        20.24061
545.60        20.38807
546.04        20.55168
546.47        20.72392
546.91        20.88772
547.35        21.03467
547.79        21.17846
548.22        21.30911
548.66        21.40728
549.10         21.4881
549.53        21.63261
549.97        21.83503
550.41        22.01184
550.84        22.15475
551.28        22.31376
551.72        22.48104
552.15        22.61652
552.59         22.7229
553.03        22.80569
553.46        22.87486
553.90         22.9635
554.34        23.07538
554.77        23.21125
555.21        23.35553
555.65        23.48415
556.08        23.56612
556.52        23.65907
556.96         23.7606
557.39        23.90244
557.83        24.06749
558.27        24.14841
558.70        24.14981
559.14        24.17074
559.57        24.21222
560.01        24.24916
560.45        24.27997
560.88        24.28943
561.32        24.32783
561.75        24.45197
562.19        24.63694
562.63         24.8298
563.06        24.95786
563.50        24.85257
563.93        24.59435
564.37        24.52754
564.80        24.67509
565.24        24.87666
565.68         25.0812
566.11        25.26407
566.55        25.41011
566.98        25.54445
567.42        25.67604
567.85        25.74739
568.29        25.81091
568.72        25.92846
569.16        26.08769
569.60         26.2889
570.03        26.55247
570.47        26.55386
570.90        26.59841
571.34        27.18455
571.77        27.12333
572.21        27.12427
572.64        27.42858
573.08        27.37546
573.51        27.72569
573.95        27.88624
574.38        27.98919
574.82        27.88143
575.25        27.80742
575.69        27.84242
576.12         27.8347
576.56        28.29449
576.99        28.36877
577.42        28.30095
577.86        28.35342
578.29        28.32906
578.73        28.13017
579.16        28.09299
579.60        28.06207
580.03          28.032
580.47        28.01636
580.90         27.8318
581.33        27.76246
581.77        28.11774
582.20        27.46309
582.64        27.17844
583.07        27.18929
583.51        27.21719
583.94        27.39903
584.37        27.32243
584.81         26.9841
585.24        26.79019
585.68         26.8468
586.11        26.47441
586.54        26.45364
586.98        26.51048
587.41        26.70514
587.85        26.37024
588.28        26.20127
588.71        26.08093
589.15        26.29546
589.58        26.03923
590.01        26.27851
590.45        26.31978
590.88        25.80958
591.31        25.75569
591.75        25.96749
592.18        26.11989
592.61         26.1551
593.05        26.34729
593.48         26.3343
593.91        26.04039
594.35        26.16497
594.78        26.46556
595.21        26.66141
595.65        26.76589
596.08        26.66191
596.51         26.9686
596.94        27.11638
597.38        27.44117
597.81        27.80134
598.24        27.71125
598.68           28.31
599.11        28.45431
599.54        28.56406
599.97        28.59949
600.41        29.32889
600.84        29.65614
601.27         29.7796
601.70        30.05372
602.14        30.20975
602.57        30.72756
603.00        31.14108
603.43        31.55612
603.87        31.97421
604.30        32.16372
604.73        32.59081
605.16        33.20708
605.60        33.50337
606.03        33.98552
606.46        34.47854
606.89        34.53788
607.32        35.15158
607.76        35.71278
608.19        35.76653
608.62        35.99798
609.05        36.27528
609.48        36.64478
609.92        37.01584
610.35        37.61129
610.78        37.66343
611.21        37.80963
611.64        38.38403
612.07        38.62118
612.50        38.69984
612.94        38.93926
613.37        39.40826
613.80        39.57273
614.23        40.08747
614.66        40.36639
615.09        40.57494
615.52        40.80119
615.96        41.11242
616.39        41.04356
616.82         41.3112
617.25        41.79889
617.68        41.98846
618.11        42.14012
618.54        42.15398
618.97        42.52409
619.40        43.11916
619.84        43.64264
620.27        43.57164
620.70        43.45696
621.13        43.23227
621.56        43.68884
621.99        43.75371
622.42        44.01774
622.85        43.92743
623.28        44.20574
623.71        44.37264
624.14        43.90342
624.57        44.07322
625.00        44.38866
625.43        44.19273
625.86         44.2373
626.29        44.21074
626.72         44.0871
627.15        43.95818
627.58        43.75796
628.01        43.59848
628.44        43.21555
628.87        43.05995
629.30        43.01404
629.73        42.74926
630.16        42.12571
630.59        42.14543
631.02        41.93101
631.45        41.76124
631.88        41.53876
632.31        41.26825
632.74        40.76629
633.17        40.46087
633.60        40.07167
634.03         39.7279
634.46        39.41076
634.89          39.087
635.32        38.68632
635.75        38.19627
636.18        37.67052
636.61        37.14844
637.04        36.64508
637.47         36.1996
637.89        35.89568
638.32        35.68094
638.75        35.41407
639.18        35.07688
639.61        34.74273
640.04         34.4251
640.47        34.12569
640.90        33.85284
641.33        33.58931
641.76        33.33511
642.18        33.17207
642.61        32.97031
643.04        32.84187
643.47         32.7471
643.90        32.64829
644.33         32.5979
644.76        32.55724
645.18        32.54798
645.61        32.57329
646.04         32.6326
646.47         32.7151
646.90        32.82703
647.33        32.97609
647.75        33.17062
648.18        33.42899
648.61        33.70792
649.04        33.96459
649.47        34.19995
649.89        34.32345
650.32        34.43952
650.75         34.9577
651.18        35.77151
651.61        36.27232
652.03        36.37832
652.46        36.51372
652.89        36.84303
653.32        37.04628
653.74        37.33966
654.17        38.58926
654.60        38.80195
655.03        39.37492
655.46        39.42236
655.88         40.1233
656.31        41.18822
656.74        42.10096
657.16         41.8553
657.59         41.9963
658.02         41.7312
658.45        42.40079
658.87        43.13269
659.30        43.53973
659.73        43.13501
660.15        43.50837
660.58         43.8391
661.01        44.41361
661.44        44.90852
661.86        45.15135
662.29        45.17995
662.72        45.28602
663.14        45.54409
663.57        45.86135
664.00        46.20464
664.42        46.46198
664.85        46.62558
665.27        46.90992
665.70        47.09995
666.13        47.33909
666.55          47.564
666.98        47.78947
667.41        48.01967
667.83        48.25564
668.26         48.4924
668.69        48.73777
669.11        48.96875
669.54        49.15863
669.96        49.31327
670.39        49.38109
670.82        49.42387
671.24        49.66558
671.67         50.0538
672.09        50.26542
672.52        50.31688
672.94        50.41357
673.37         50.5957
673.80        50.83344
674.22        51.09345
674.65        51.24353
675.07        51.28373
675.50        51.28214
675.92        51.30085
676.35        51.39323
676.77        51.58126
677.20        51.84976
677.62        52.14475
678.05        52.36141
678.47         52.4725
678.90        52.51454
679.32        52.53351
679.75        52.61396
680.17        52.77751
680.60        53.00355
681.02        53.23542
681.45        53.39322
681.87         53.4733
682.30        53.41594
682.72        53.31166
683.15        53.51154
683.57        53.96292
684.00        54.10335
684.42        53.95055
684.85        54.12875
685.27        54.36949
685.70         54.6218
686.12        54.76878
686.54        54.86734
686.97        54.91658
687.39        54.99512
687.82        55.09927
688.24        55.03466
688.66        55.07365
689.09        55.01345
689.51        54.99565
689.94        55.12165
690.36         55.3774
690.78         55.5914
691.21        55.72585
691.63        55.85113
692.06        55.95462
692.48        55.96394
692.90        55.93069
693.33        55.95549
693.75        56.05872
694.17         56.2641
694.60         56.5038
695.02        56.57656
695.44         56.5092
695.87        56.57372
696.29        56.78547
696.71         56.9988
697.14        57.18353
697.56        57.34501
697.98        57.44504
698.41        57.71178
698.83        57.74203
699.25        57.93119
699.68        58.13402
700.10        58.31118
700.52        58.44521
700.94        58.57796
701.37        58.68784
701.79        58.75476
702.21        58.77065
702.64        58.68476
703.06        58.67084
703.48        58.66671
703.90        58.73786
704.33        58.85852
704.75        59.02953
705.17        59.22715
705.59        59.43401
706.01        59.63456
706.44        59.81788
706.86        60.03908
707.28        60.11536
707.70        60.24738
708.12        60.41764
708.55        60.30324
708.97        60.49943
709.39        60.51945
709.81        60.54524
710.23        60.57943
710.66        60.62774
711.08        60.69581
711.50        60.75238
711.92        60.78636
712.34        60.79829
712.76        60.79391
713.19        60.79839
713.61        60.89464
714.03        61.07319
714.45        61.30471
714.87        61.54395
715.29        61.72378
715.71        61.82497
716.13        61.86842
716.56        61.85706
716.98        61.84993
717.40         61.8443
717.82        61.86312
718.24        61.92698
718.66        61.92498
719.08        62.08615
719.50        62.22081
719.92        62.38187
720.34         62.5358
720.76        62.67115
721.19        62.78135
721.61        62.86706
722.03        62.91066
722.45        62.91298
722.87        62.87912
723.29        62.83997
723.71        62.84326
724.13        62.90027
724.55        63.01754
724.97        63.20024
725.39        63.29984
725.81        63.27478
726.23        63.42537
726.65        63.84817
727.07        63.23401
727.49        63.91908
727.91        64.00264
728.33        64.14201
728.75        64.20794
729.17        64.19806
729.59        64.15028
730.01        64.05569
730.43        63.88959
730.85        63.70587
731.27        63.66995
731.69        63.78279
732.10        63.89184
732.52        63.96902
732.94        64.15436
733.36        64.41166
733.78        64.50762
734.20        64.40113
734.62        64.64059
735.04        64.24702
735.46        64.42065
735.88        64.77197
736.30         64.7247
736.72        64.35453
737.13        64.37156
737.55        64.74606
737.97        65.00397
738.39        65.07172
738.81        64.97826
739.23        64.80476
739.65         64.9183
740.06        65.22389
740.48        65.29961
740.90        65.10419
741.32        64.97239
741.74        64.88783
742.16        64.93921
742.57          65.126
742.99        65.43109
743.41        65.76838
743.83        65.98669
744.25        66.04897
744.67        65.98286
745.08        65.87833
745.50        65.85157
745.92        65.95139
746.34        66.14104
746.75        66.33159
747.17        66.39271
747.59        66.29635
748.01        66.04241
748.42        65.75639
748.84        65.70452
749.26        65.86953
749.68        66.06085
750.09        66.20385
750.51        66.10349
750.93        65.83022
751.35        65.95878
751.76        66.49644
752.18        66.24144
752.60        66.45795
753.01         66.4052
753.43        66.49016
753.85         66.5192
754.27        66.48441
754.68        66.78031
755.10        66.81174
755.52        66.79909
755.93        66.64456
756.35        66.70004
756.77        66.93117
757.18        67.09676
757.60        67.22436
758.02        67.25841
758.43         67.1206
758.85         67.5748
759.26        67.36419
759.68        66.83129
760.10        66.94191
760.51         66.1979
760.93        67.12215
761.34        66.53438
761.76        67.23329
762.18         67.2454
762.59        67.28687
763.01        67.50838
763.42        67.89716
763.84        68.03112
764.26        67.89536
764.67         67.7777
765.09        67.74955
765.50        67.66559
765.92         67.5809
766.33        67.59283
766.75        67.64236
767.16        67.68304
767.58        67.67354
768.00        67.72929
768.41        67.88506
768.83        68.01802
769.24        68.25567
769.66        68.28787
770.07        68.17508
770.49        68.14211
770.90        68.22136
771.32        68.27832
771.73         68.2869
772.15        68.30582
772.56        68.35736
772.97         68.3005
773.39        68.13406
773.80        68.52755
774.22        68.58324
774.63         68.8607
775.05        69.00556
775.46        69.06461
775.88        68.98736
776.29        68.78147
776.70        68.54121
777.12        68.44874
777.53        68.56435
777.95        68.80109
778.36        69.10304
778.77         69.3485
779.19        69.48998
779.60        69.60634
780.02        69.66055
780.43        69.55202
780.84         69.3169
781.26        69.09164
781.67        68.99198
782.09        69.02525
782.50        69.09555
782.91        69.53746
783.33        69.24956
783.74        69.36546
784.15        69.53757
784.57        69.57614
784.98        69.51279
785.39        69.59508
785.81        69.79814
786.22        69.86935
786.63        69.80556
787.04        69.79571
787.46        69.85703
787.87        69.89657
788.28        69.90849
788.70        69.88066
789.11        69.79246
789.52        69.72044
789.93        69.68595
790.35        69.58484
790.76        69.49908
791.17         69.6684
791.58        70.02433
792.00        70.21379
792.41        70.21894
792.82        70.23051
793.23        70.32207
793.65        70.41649
794.06        70.58105
794.47        71.06455
794.88        71.68572
795.29        71.73524
795.71        71.60962
796.12        71.18121
796.53        70.72556
796.94        70.41835
797.35        70.36251
797.76        70.56141
798.18        70.90781
798.59        71.15695
799.00        71.25282
799.41        71.27773
799.82        71.26147
800.23        71.24239
800.64        71.23209
801.06        71.19906
801.47        71.18379
801.88        71.12416
802.29        71.01036
802.70        71.11704
803.11        70.99167
803.52        70.96721
803.93        70.91221
804.34        70.84159
804.75        70.80061
805.17        70.86804
805.58        71.08505
805.99        71.37814
806.40        71.66325
806.81        71.83997
807.22         71.8454
807.63        71.63081
808.04        71.31113
808.45        71.17535
808.86        71.28642
809.27        71.52483
809.68         71.8063
810.09        72.01207
810.50        72.08913
810.91        72.06934
811.32        71.99438
811.73        71.93516
812.14        71.91721
812.55        71.91048
812.96        71.89073
813.37        71.84592
813.78        71.76439
814.19        71.62128
814.60        71.47507
815.01        71.44883
815.42        71.56012
815.83        71.75721
816.24        71.99023
816.65        72.17947
817.05        72.28861
817.46        72.29706
817.87        72.26125
818.28        72.22292
818.69        72.19946
819.10         72.1813
819.51         72.1701
819.92        72.16784
820.33        72.18037
820.74         72.2174
821.14        72.27524
821.55        72.38102
821.96        72.51311
822.37        72.65224
822.78        72.79141
823.19        72.91792
823.60        73.01875
824.00         73.1214
824.41        73.13479
824.82        73.00317
825.23         72.7308
825.64         72.3502
826.04        72.01247
826.45        71.92799
826.86        72.14948
827.27         72.6065
827.68        73.13638
828.08        73.49149
828.49         73.5239
828.90        73.34466
829.31        73.05023
829.72        72.81387
830.12        72.72198
830.53        72.67222
830.94        72.67157
831.35        72.70022
831.75         72.7633
832.16        72.84154
832.57        72.91688
832.97        72.90629
833.38        72.79674
833.79        72.62677
834.20        72.46957
834.60        72.43592
835.01        72.56085
835.42        72.79404
835.82        73.11784
836.23        73.41994
836.64         73.6746
837.04        73.91327
837.45        74.05454
837.86        74.06897
838.26        73.97306
838.67        73.77461
839.08        73.54707
839.48        73.39895
839.89        73.36829
840.29        73.42603
840.70        73.57548
841.11         73.8161
841.51        74.14085
841.92        74.50533
842.33        74.82551
842.73        74.95674
843.14        74.82111
843.54        74.48862
843.95        74.07899
844.35         73.8155
844.76        73.75301
845.17        73.84158
845.57        74.00816
845.98        74.08282
846.38        74.04194
846.79        73.91752
847.19        73.77544
847.60        73.66686
848.00         73.6363
848.41        73.62169
848.81        73.63844
849.22        73.64524
849.62        73.66323
850.03        73.67992
850.43        73.70004
850.84        73.64274
851.24        73.54794
851.65        73.37891
852.05        73.25121
852.46        73.26093
852.86        73.42294
853.27        73.70668
853.67        73.95174
854.07        74.11702
854.48        74.14353
854.88        74.09099
855.29        73.89668
855.69        73.66137
856.10        73.33179
856.50        72.97443
856.90        72.61034
857.31        72.30014
857.71        72.11411
858.12        72.01125
858.52        71.99242
858.92        71.91792
859.33        71.74445
859.73        71.53151
860.13        71.34609
860.54        71.33427
860.94        71.55412
861.34        71.90914
861.75        72.23615
862.15         72.3512
862.55         72.1852
862.96        71.82684
863.36        71.37585
863.76        70.98797
864.17        70.72728
864.57        70.56663
864.97        70.53465
865.38        70.65643
865.78        70.95451
866.18        71.39129
866.58         71.8272
866.99        72.01691
867.39        71.92314
867.79        71.58812
868.19        71.14136
868.60        70.74722
869.00        70.45506
869.40         70.2555
869.80        70.16473
870.21        70.21289
870.61        70.45624
871.01        70.81306
871.41        71.20119
871.81        71.50501
872.22        71.66682
872.62        71.72968
873.02        71.70283
873.42        71.61247
873.82        71.48801
874.22        71.34476
874.63        71.23048
875.03        71.18162
875.43        71.21447
875.83         71.3134
876.23        71.47291
876.63         71.6787
877.03        71.89592
877.44        72.09049
877.84        72.20507
878.24        72.12233
878.64        71.83471
879.04        71.41492
879.44         70.9369
879.84        70.49043
880.24        70.11938
880.64        69.81741
881.04        69.65124
881.44        69.72738
881.84        70.04786
882.24        70.55528
882.65        71.09996
883.05        71.52912
883.45         71.7291
883.85        71.74199
884.25        71.59322
884.65        71.33693
885.05        71.01517
885.45        70.62031
885.85        70.24762
886.25        70.06573
886.65        70.11788
887.05        70.37337
887.45        70.70377
887.85        70.89762
888.25        70.89547
888.65        70.73903
889.04         70.5199
889.44        70.44129
889.84        70.53344
890.24        70.73832
890.64        70.94199
891.04        70.97063
891.44        70.79988
891.84        70.51019
892.24        70.23537
892.64        70.17411
893.04        70.37695
893.44        70.77759
893.83        71.29766
894.23        71.74815
894.63        72.08101
895.03        72.30886
895.43        72.45596
895.83        72.56746
896.23        72.65215
896.63        72.69556
897.02        72.63329
897.42        72.41389
897.82        72.03528
898.22        71.54712
898.62        71.08324
899.01        70.86679
899.41        70.93688
899.81        71.24879
900.21        71.66679
900.61        71.95815
901.00        72.03913
901.40        71.97832
901.80        71.86109
902.20        71.84509
902.59        71.97665
902.99        72.18172
903.39        72.38721
903.79        72.46607
904.18        72.39735
904.58        72.26272
904.98         72.1331
905.38        72.11295
905.77        72.21387
906.17        72.38293
906.57        72.60982
906.96        72.90006
907.36        73.19971
907.76        73.53136
908.15        73.76231
908.55        73.60255
908.95        73.05367
909.34        72.18272
909.74        71.32476
910.14        70.94413
910.53        71.14574
910.93         71.7855
911.33        72.56026
911.72        72.94125
912.12        72.77311
912.52        72.25114
912.91        71.61685
913.31         71.2383
913.70        71.19597
914.10        71.35466
914.49         71.6241
914.89        71.79337
915.29        71.80338
915.68        71.72343
916.08        71.60024
916.47        71.48954
916.87         71.4296
917.26        71.37312
917.66        71.33048
918.05         71.2881
918.45        71.24267
918.84        71.24781
919.24        71.27395
919.64        71.34794
920.03        71.48979
920.42        71.66693
920.82        71.90907
921.21        72.26298
921.61        72.69791
922.00        73.18449
922.40         73.6188
922.79        73.90133
923.19        73.95712
923.58        73.86922
923.98        73.61385
924.37        73.21344
924.77        72.69588
925.16        72.05868
925.55        71.48573
925.95        71.28153
926.34        71.50421
926.74        72.05563
927.13        72.70057
927.52        72.95378
927.92        72.72826
928.31        72.14954
928.70        71.48047
929.10        71.12164
929.49        71.17844
929.89        71.50639
930.28        71.97954
930.67        72.26139
931.07        72.23289
931.46        72.01823
931.85        71.73251
932.24        71.58372
932.64        71.61944
933.03        71.76157
933.42        71.91073
933.82        71.91113
934.21        71.74126
934.60        71.49091
934.99        71.25092
935.39        71.13969
935.78         71.2314
936.17        71.45753
936.56        71.82698
936.96        72.33462
937.35        72.96792
937.74        73.66179
938.13        74.23831
938.53        74.45953
938.92         74.2924
939.31        73.77349
939.70         73.1091
940.09        72.67797
940.49        72.57515
940.88        72.76302
941.27        73.00483
941.66        72.92096
942.05        72.45157
942.44        71.74439
942.84        71.08686
943.23        70.88165
943.62        71.25215
944.01        72.04048
944.40        72.99428
944.79        73.66724
945.18        73.88445
945.57        73.76127
945.97        73.38837
946.36         72.9837
946.75        72.60182
947.14        72.19326
947.53          71.802
947.92        71.51942
948.31        71.37852
948.70        71.39111
949.09        71.51122
949.48        71.63753
949.87        71.73148
950.26        71.79858
950.65         71.8469
951.04        71.90187
951.43        71.96114
951.82        71.99891
952.21        71.98067
952.60        71.86337
952.99        71.64703
953.38        71.36356
953.77         71.0611
954.16        70.80325
954.55        70.60566
954.94        70.44968
955.33        70.32551
955.72        70.21218
956.11        70.10111
956.50        70.01099
956.89        69.91707
957.28        69.77017
957.66         69.5975
958.05         69.3989
958.44        69.25489
958.83        69.29127
959.22        69.51198
959.61        69.83222
960.00        70.17503
960.39        70.42628
960.78        70.52919
961.16         70.5407
961.55        70.33615
961.94        69.82879
962.33        69.06268
962.72        68.14478
963.11        67.29543
963.49        66.81654
963.88        66.78194
964.27        67.12283
964.66        67.74384
965.04         68.4649
965.43        69.08896
965.82        69.65369
966.21        70.12855
966.60        70.51191
966.98         70.8144
967.37        70.97156
967.76        70.97896
968.15        70.83387
968.53        70.58245
968.92        70.28216
969.31        70.00754
969.69        69.82629
970.08        69.77106
970.47        69.85963
970.86        70.17135
971.24        70.83755
971.63        71.73824
972.02        72.74075
972.40        73.70356
972.79        74.32093
973.17        74.62007
973.56        74.62846
973.95         74.3531
974.33        73.78229
974.72        72.97707
975.11         71.9618
975.49        70.99043
975.88        70.51674
976.26        70.65309
976.65         71.2917
977.04        72.10651
977.42        72.48893
977.81        72.20009
978.19           71.37
978.58        70.38222
978.96        69.86842
979.35        70.00984
979.74         70.6721
980.12        71.55036
980.51        71.93118
980.89         71.7575
981.28        71.13383
981.66        70.49915
982.05        70.65614
982.43        71.74441
982.82        73.39334
983.20        75.02917
983.59        75.64143
983.97        75.09465
984.35         73.6431
984.74        71.74037
985.12        70.20767
985.51        69.38969
985.89        69.14369
986.28        69.29423
986.66        69.63702
987.04        70.03948
987.43        70.54168
987.81        71.17947
988.20        71.88081
988.58        72.61999
988.96        73.32324
989.35        73.75166
989.73         73.6997
990.12        73.08018
990.50        71.85953
990.88        70.39951
991.27        69.58457
991.65        69.74261
992.03        70.69936
992.42        71.64732
992.80        71.76853
993.18        70.79076
993.56        68.85198
993.95        66.61518
994.33        65.64287
994.71        66.61237
995.10        68.66866
995.48        70.78806
995.86        71.84633
996.24        71.75943
996.63         70.8539
997.01        69.54435
997.39        68.68034
997.77        68.68892
998.15        69.25613
998.54        70.07217
998.92        70.77399
999.30        71.23325
999.68         71.6357
1000.06        71.94713
1000.45        71.99854
1000.83        71.82987
1001.21        71.36545
1001.59        70.86736
1001.97        70.72833
1002.35        71.06975
1002.73        71.97705
1003.12        73.01227
1003.50        73.10809
1003.88        72.08479
1004.26        70.22828
1004.64        68.67937
1005.02        68.91536
1005.40        71.04009
1005.78        74.65298
1006.16        78.32017
1006.54        79.42427
1006.92        77.29292
1007.30        72.74747
1007.69        67.66457
1008.07        65.15289
1008.45        66.09972
1008.83        69.39508
1009.21        73.47094
1009.59        76.10136
1009.97        76.62556
1010.35        75.63953
1010.73        73.42365
1011.11        70.88464
1011.49        68.80291
1011.86        67.05943
1012.24        65.82172
1012.62        65.51081
1013.00        66.09874
1013.38        67.68006
1013.76        69.74328
1014.14        71.29507
1014.52        72.03657
1014.90        72.03422
1015.28        71.84007
1015.66        72.59711
1016.04         74.5127
1016.41        77.17976
1016.79        79.40482
1017.17        79.88395
1017.55         78.4518
1017.93        75.69056
1018.31        72.61472
1018.69        70.74574
1019.06        70.59498
1019.44        71.84189
1019.82        73.96906
1020.20        75.77171
1020.58        76.60526
1020.95         76.6506
1021.33        76.31098
1021.71        76.09164
1022.09        76.08652
1022.46        76.07146
1022.84        75.70777
1023.22        74.28474
1023.60        71.61992
1023.97        67.72009
1024.35        63.60555
1024.73        61.18974
