SpectraSmart Spectrum 2.9.0.0
--------- Device Information -----------
Spectrum Name :  反射率_0
Saving Time :  2024/04/27 22:49:04
Spectro-Module Model Name : SE2030-DUVN
Spectro-Module Serial Number : OS361AC55029948
Wavelength Start : 200
Wavelength End : 1025
Wavelength Unit : Wavelength(nm)
Spectrum Unit : Reflectance(%)
-----------Spectrum Setting ------------
Integration Time : 20ms
Average : 10
Boxcar : 0
Background removal :  enabled
linearity correction :  enabled
SC :  disabled
Intensity correction :  disabled
DWT denoise :  enabled
savitzky-golay :  disabled
FFT :  disabled
Running average :  disabled
Kalman :  disabled
High pass :  disabled
---------------BEGIN--------------------
Wavelength(nm)             Reflectance(%)
200.29               0
200.75       -84.20718
201.21       -22.67135
201.67          25.074
202.13        43.75484
202.58        43.96539
203.04        35.31839
203.50        25.01579
203.96        22.42282
204.42        28.13848
204.88        37.12294
205.34        45.78257
205.80        51.84678
206.26        55.44602
206.72        57.64627
207.18        58.48635
207.64         57.2552
208.10        54.49383
208.55        52.19667
209.01        48.62839
209.47        41.66159
209.93        27.65316
210.39       -6.255727
210.85       -108.1335
211.31       -240.0672
211.77       -99.41143
212.23       -1.403052
212.69        34.76044
213.14        47.73665
213.60        51.09283
214.06        49.78008
214.52        43.57414
214.98        37.34733
215.44        37.31374
215.90        39.09839
216.36        40.91204
216.81        42.40513
217.27        43.26744
217.73        44.40642
218.19        44.39264
218.65        40.32092
219.11        31.60561
219.57         18.5782
220.02         4.25617
220.48       -1.735332
220.94        3.324917
221.40        15.08774
221.86        28.36129
222.32        38.11221
222.77        43.88373
223.23        47.32165
223.69        48.86865
224.15        48.82914
224.61        47.62025
225.06        44.85165
225.52        42.11965
225.98        42.01924
226.44        44.41757
226.90        47.73864
227.36        50.13125
227.81        50.02707
228.27        47.58537
228.73        43.33841
229.19        38.20612
229.65        34.33418
230.10        32.67987
230.56        32.97269
231.02        34.16683
231.48        34.87949
231.93        34.73642
232.39        34.21948
232.85        33.98335
233.31        34.92378
233.77         37.0304
234.22        39.91531
234.68        42.49633
235.14        43.53337
235.60        42.82596
236.05        40.49561
236.51         37.7795
236.97        37.35075
237.43        40.13964
237.88        45.50645
238.34        50.86036
238.80        53.43029
239.26         52.4339
239.71        47.26726
240.17        38.10502
240.63        32.71587
241.08        38.21372
241.54        49.09174
242.00        58.04501
242.46        62.14315
242.91        62.30596
243.37        58.45544
243.83        48.61102
244.28        36.67458
244.74        38.30677
245.20         51.4266
245.66        61.35912
246.11        62.49569
246.57        55.80251
247.03        40.96185
247.48        16.69238
247.94       -3.868082
248.40       -3.624984
248.85        10.61063
249.31        29.02314
249.77        43.55659
250.22        52.65392
250.68        58.52232
251.14        61.76054
251.59        62.66579
252.05        61.85376
252.51        58.85229
252.96         53.5555
253.42        49.70027
253.88        49.69807
254.33        52.41807
254.79        55.82538
255.25        58.12997
255.70        59.30228
256.16        60.28561
256.62        61.26742
257.07        62.44296
257.53        63.89466
257.99        64.98864
258.44        65.30666
258.90        64.87395
259.35        63.59332
259.81        62.21262
260.27        60.75741
260.72        59.32458
261.18        58.32167
261.63        57.37727
262.09        56.81278
262.55        56.60701
263.00        56.57338
263.46        56.76341
263.91        56.77311
264.37        56.41843
264.83         55.6229
265.28        54.50826
265.74        53.35119
266.19        52.26905
266.65        51.37875
267.11        50.57771
267.56        49.81534
268.02        49.12601
268.47        48.45629
268.93        47.83013
269.38        47.22777
269.84        46.63875
270.30        46.04177
270.75        45.42596
271.21        44.74306
271.66        43.88124
272.12        42.85958
272.57        41.67842
273.03        40.51112
273.48        39.53204
273.94         38.8419
274.39        38.36206
274.85        37.98514
275.31        37.46194
275.76        36.73497
276.22        35.90873
276.67        35.11879
277.13        34.66437
277.58        34.51311
278.04        34.60535
278.49        34.64553
278.95        34.33646
279.40        33.58782
279.86        32.58946
280.31         31.5648
280.77        30.96753
281.22        30.81208
281.68        30.97731
282.13        31.18201
282.59        31.09723
283.04        30.64621
283.50        29.98546
283.95        29.28031
284.41        28.82316
284.86        28.66503
285.32        28.72229
285.77        28.86311
286.22        28.94547
286.68         28.9429
287.13        28.87129
287.59        28.80074
288.04        28.75192
288.50        28.76195
288.95        28.77181
289.41        28.78027
289.86        28.74147
290.32        28.67519
290.77        28.60104
291.22        28.54229
291.68        28.51991
292.13        28.54075
292.59        28.62009
293.04         28.7908
293.50        29.13036
293.95         29.6304
294.40        30.27198
294.86        30.98019
295.31        31.62669
295.77        32.19123
296.22        32.69612
296.68        33.20982
297.13        33.81856
297.58        34.54571
298.04        35.35041
298.49        36.18177
298.95        36.99453
299.40        37.76435
299.85        38.50458
300.31        39.24062
300.76        39.96558
301.21        40.67851
301.67        41.37414
302.12        41.99128
302.58        42.50134
303.03        42.88399
303.48        43.17659
303.94        43.46584
304.39        43.81991
304.84         44.2744
305.30        44.81118
305.75        45.33896
306.20        45.77097
306.66        46.09777
307.11        46.31209
307.57        46.49215
308.02         46.6813
308.47         46.9075
308.93        47.14989
309.38        47.33566
309.83        47.39791
310.29        47.34153
310.74        47.18815
311.19        47.00742
311.65         46.8988
312.10        46.87024
312.55        46.89658
313.00        46.95303
313.46        47.00273
313.91        47.01746
314.36        47.00997
314.82        46.95146
315.27        46.79172
315.72        46.53289
316.18        46.20482
316.63        45.85245
317.08        45.57421
317.53        45.39558
317.99        45.28458
318.44        45.22299
318.89        45.15949
319.35        45.07049
319.80        44.97123
320.25        44.84158
320.70        44.65525
321.16        44.40413
321.61        44.10132
322.06        43.77993
322.51        43.50299
322.97        43.28334
323.42        43.12606
323.87        42.99017
324.32        42.81514
324.78        42.57798
325.23        42.30062
325.68        42.02071
326.13        41.81059
326.59        41.66944
327.04        41.59971
327.49        41.51623
327.94        41.29462
328.39        40.90829
328.85        40.38457
329.30        39.84491
329.75        39.46643
330.20        39.30785
330.66        39.31202
331.11        39.39851
331.56        39.36977
332.01        39.17231
332.46        38.85796
332.92        38.50713
333.37        38.30664
333.82        38.29174
334.27        38.40087
334.72        38.54969
335.17        38.60701
335.63        38.51777
336.08        38.33953
336.53        38.10117
336.98        37.86702
337.43        37.66603
337.88        37.48376
338.34        37.30813
338.79         37.1315
339.24        36.95278
339.69        36.78722
340.14        36.65714
340.59        36.59051
341.05        36.59053
341.50        36.64939
341.95        36.72272
342.40         36.7531
342.85        36.72125
343.30        36.62909
343.75        36.51287
344.20         36.4355
344.66        36.41297
345.11        36.42632
345.56        36.41575
346.01        36.28537
346.46        36.02419
346.91         35.6686
347.36        35.32158
347.81        35.13425
348.26        35.13732
348.72         35.2914
349.17        35.47994
349.62        35.51711
350.07        35.35963
350.52        35.05615
350.97        34.73964
351.42        34.62418
351.87        34.74714
352.32        35.02839
352.77        35.30588
353.22        35.33741
353.67        35.07129
354.13        34.60071
354.58        34.04811
355.03        33.66026
355.48        33.50707
355.93        33.52435
356.38        33.59525
356.83        33.53653
357.28        33.30549
357.73        32.96498
358.18        32.62086
358.63        32.43223
359.08         32.4251
359.53        32.53048
359.98        32.63895
360.43        32.58637
360.88        32.33548
361.33        31.94506
361.78        31.48991
362.23        31.12158
362.68        30.89112
363.13        30.69621
363.58         30.4983
364.03        30.55597
364.48        30.33124
364.93        30.25139
365.38        30.14888
365.83        30.01173
366.28        29.83011
366.73        29.60782
367.18        29.36193
367.63        29.11195
368.08        28.87116
368.53        28.64352
368.98        28.42728
369.43        28.21558
369.88        28.01028
370.33        27.81525
370.78        27.64677
371.23        27.53097
371.68        27.46206
372.13        27.41682
372.58        27.36093
373.03        27.24008
373.48        27.04426
373.93        26.80552
374.38        26.53139
374.83        26.23252
375.28        25.92956
375.72        25.61339
376.17        25.37478
376.62        25.31112
377.07        25.42162
377.52        25.65396
377.97         25.8906
378.42        25.94736
378.87        25.78325
379.32        25.46295
379.77        25.06081
380.22        24.69298
380.67        24.39922
381.11        24.14376
381.56        23.93951
382.01          23.807
382.46        23.74406
382.91        23.75987
383.36        23.78569
383.81         23.7064
384.26        23.50208
384.71        23.19679
385.15        22.88274
385.60        22.74302
386.05        22.79851
386.50        22.99825
386.95        23.21857
387.40        23.26685
387.85        23.11121
388.29        22.80946
388.74        22.51358
389.19        22.38472
389.64        22.44532
390.09         22.6192
390.54        22.81069
390.98        22.86558
391.43        22.75849
391.88        22.55409
392.33        22.29013
392.78        22.05313
393.23        21.88168
393.67        21.65428
394.12        21.42767
394.57        21.53738
395.02        21.59706
395.47        21.55499
395.91        21.33966
396.36        21.25896
396.81        21.32812
397.26        21.37716
397.71        21.36815
398.15        21.32936
398.60        21.28026
399.05         21.1333
399.50        20.96038
399.95        20.99814
400.39        21.18979
400.84        21.20076
401.29        21.01434
401.74         20.8131
402.18        20.65531
402.63        20.59002
403.08        20.60256
403.53        20.55058
403.97        20.43449
404.42        20.37538
404.87        20.37304
405.32        20.38614
405.76        20.40486
406.21        20.38251
406.66        20.33949
407.11         20.4059
407.55        20.52873
408.00        20.49114
408.45        20.28217
408.90        19.96077
409.34        19.63709
409.79        19.56643
410.24        19.72439
410.68        19.81558
411.13        19.81626
411.58        19.92416
412.03        20.10125
412.47        20.17115
412.92        20.10133
413.37        19.95346
413.81        19.77267
414.26        19.64145
414.71        19.57616
415.15        19.55264
415.60        19.55508
416.05        19.56736
416.49        19.57977
416.94        19.59692
417.39        19.60183
417.83          19.567
418.28        19.48315
418.73        19.34744
419.17        19.19818
419.62        19.10382
420.07        19.08841
420.51        19.14573
420.96        19.21712
421.41        19.23137
421.85        19.17087
422.30        18.97218
422.74        18.75069
423.19        18.91367
423.64        19.38859
424.08        19.63835
424.53        19.54989
424.98        19.50236
425.42        19.50233
425.87        19.19157
426.31        18.70881
426.76        18.66625
427.21        18.98162
427.65        18.95951
428.10        18.63801
428.54        18.54796
428.99        18.69039
429.44        18.94989
429.88        19.17424
430.33        18.89308
430.77        18.31266
431.22        18.25664
431.66        18.69634
432.11         19.0306
432.56        19.15852
433.00        19.16449
433.45        18.93136
433.89        18.65288
434.34        18.60912
434.78        17.72058
435.23        18.25987
435.67         18.7883
436.12        19.07521
436.57        19.10461
437.01        18.76892
437.46        18.59782
437.90        18.70483
438.35        18.93321
438.79        18.65751
439.24        18.58974
439.68        18.56633
440.13        18.55001
440.57        18.51583
441.02        18.59043
441.46        18.72198
441.91        18.49118
442.35        18.07025
442.80        18.28039
443.24        18.96131
443.69        19.03833
444.13        18.52445
444.58        18.32392
445.02        18.44187
445.47        18.39501
445.91        18.20078
446.36        18.14177
446.80         18.2247
447.24        18.35841
447.69         18.5011
448.13        18.63552
448.58        18.71694
449.02         18.6634
449.47        18.52408
449.91        18.45982
450.36         18.4927
450.80        18.53599
451.25        18.56277
451.69        18.56067
452.13        18.51527
452.58        18.42146
453.02        18.29849
453.47         18.1845
453.91        18.09039
454.36        18.03518
454.80        17.99251
455.24        17.89998
455.69        17.79577
456.13        17.71632
456.58        17.69348
457.02        17.83904
457.46        18.04609
457.91        17.99098
458.35        17.78309
458.79        17.70418
459.24        17.78757
459.68        17.85276
460.13        17.88323
460.57        17.82721
461.01        17.75952
461.46        17.71038
461.90        17.60571
462.34        17.52418
462.79         17.7429
463.23        17.77327
463.68        17.70522
464.12         17.6402
464.56        17.60065
465.01        17.63384
465.45        17.66312
465.89        17.56595
466.34        17.40107
466.78        17.26002
467.22        17.15034
467.67        17.44627
468.11         17.3687
468.55         17.3539
468.99         17.2049
469.44        17.14953
469.88        17.19312
470.32        17.20201
470.77        17.18446
471.21        17.20872
471.65        17.27752
472.10        17.37028
472.54        17.45432
472.98        17.50595
473.42        17.52346
473.87        17.46835
474.31        17.37496
474.75        17.45854
475.20        17.66548
475.64        17.65467
476.08        17.45128
476.52        17.42682
476.97        17.60593
477.41        17.62827
477.85         17.6346
478.29        17.81826
478.74        17.71852
479.18        17.55646
479.62        17.79865
480.06        17.82393
480.50        17.82777
480.95        17.79809
481.39        17.72229
481.83        17.96105
482.27        17.97495
482.72        17.91602
483.16        18.17321
483.60        18.21508
484.04        18.17022
484.48        18.17497
484.93        18.40528
485.37        18.24357
485.81        18.51795
486.25        19.18095
486.69        19.05786
487.14        18.50999
487.58        19.45888
488.02        18.91633
488.46        18.79099
488.90        19.06672
489.34        18.83992
489.79        18.73134
490.23        19.12491
490.67        19.45434
491.11        19.83357
491.55        19.91775
491.99        19.77593
492.43        19.81055
492.88        20.04159
493.32        20.21464
493.76        20.31192
494.20        20.46113
494.64        20.67324
495.08        20.88824
495.52        21.08628
495.96        21.32524
496.41        21.60175
496.85        21.59013
497.29         21.4072
497.73        21.59066
498.17        22.06728
498.61         22.3565
499.05        22.36618
499.49         22.3168
499.93        22.27868
500.37        22.27709
500.82         22.3213
501.26        22.43829
501.70         22.6439
502.14        22.47045
502.58        22.72775
503.02        22.83109
503.46        22.92074
503.90        23.01808
504.34        23.10183
504.78        23.21246
505.22        23.33571
505.66        23.41869
506.10        23.46544
506.54        23.54844
506.98        23.67614
507.42        23.71511
507.86        23.84089
508.30        23.88878
508.74        23.91357
509.18        23.91767
509.62        23.92177
510.06        23.95458
510.50        24.02083
510.94         24.1113
511.38        24.21078
511.82        24.29519
512.26        24.35517
512.70        24.39769
513.14        24.42411
513.58        24.42797
514.02        24.41052
514.46        24.38931
514.90        24.37798
515.34        24.31298
515.78        24.33918
516.22        24.34185
516.66         24.3551
517.10        24.36055
517.54        24.35532
517.98        24.34256
518.42        24.32603
518.86        24.31619
519.30        24.31411
519.74        24.31377
520.18        24.31254
520.62        24.30607
521.06        24.29425
521.50        24.28319
521.93        24.26954
522.37        24.23879
522.81         24.1937
523.25        24.13256
523.69        24.07773
524.13        24.06538
524.57        24.09602
525.01        24.15512
525.45        24.19824
525.89        24.15463
526.32        24.01057
526.76         23.8024
527.20        23.57649
527.64        23.41078
528.08         23.3273
528.52         23.2988
528.96        23.30742
529.40        23.32373
529.83        23.33028
530.27        23.33836
530.71        23.32354
531.15        23.24762
531.59        23.10924
532.03        22.91934
532.46        22.72176
532.90        22.60281
533.34         22.5781
533.78        22.62566
534.22        22.70109
534.66        22.73384
535.09        22.70391
535.53        22.63662
535.97        22.55849
536.41        22.51561
536.85        22.51947
537.28        22.55335
537.72        22.59632
538.16        22.61322
538.60        22.59884
539.04        22.57603
539.47        22.55552
539.91        22.56485
540.35        22.60555
540.79        22.67153
541.22        22.75987
541.66        22.86793
542.10        22.98905
542.54         23.1235
542.97        23.25374
543.41        23.36606
543.85        23.45561
544.29        23.52975
544.72        23.60236
545.16        23.71377
545.60        23.86453
546.04        24.04181
546.47        24.23408
546.91        24.41751
547.35        24.58024
547.79        24.73969
548.22        24.88459
548.66        24.99114
549.10        25.07762
549.53         25.2392
549.97        25.47108
550.41        25.67379
550.84        25.83144
551.28        26.02619
551.72        26.25718
552.15        26.41284
552.59        26.47975
553.03        26.77176
553.46        26.76311
553.90        26.91373
554.34        27.06836
554.77        27.24137
555.21        27.41015
555.65        27.54991
556.08        27.63143
556.52        27.71966
556.96        27.81608
557.39        27.96356
557.83        28.14286
558.27        28.22555
558.70        28.22181
559.14        28.25361
559.57        28.32255
560.01        28.40061
560.45        28.46889
560.88        28.48316
561.32        28.50086
561.75         28.5955
562.19        28.77022
562.63        29.01274
563.06        29.24462
563.50        29.24851
563.93        29.07253
564.37         29.0523
564.80        29.20037
565.24        29.34906
565.68        29.47642
566.11        29.61318
566.55        29.75845
566.98        29.92424
567.42        30.09686
567.85        30.17883
568.29        30.22473
568.72        30.31236
569.16        30.45545
569.60        30.71121
570.03         30.9537
570.47        31.02802
570.90        31.28122
571.34        31.68257
571.77        31.74145
572.21         31.9256
572.64        32.28312
573.08        32.08957
573.51        32.21173
573.95        32.45546
574.38        32.88674
574.82        32.99283
575.25        32.91346
575.69        32.74247
576.12        32.57522
576.56        33.05539
576.99        32.99556
577.42        33.03746
577.86        32.98114
578.29         33.1469
578.73        33.22922
579.16        33.13188
579.60        32.76816
580.03        32.50373
580.47        32.37628
580.90        32.55339
581.33        32.56505
581.77        32.44524
582.20        32.22503
582.64        32.19814
583.07        31.85234
583.51        31.64087
583.94        31.53296
584.37        31.44329
584.81        31.34872
585.24        31.27891
585.68        31.32408
586.11        30.89439
586.54        30.92614
586.98         30.9241
587.41        31.06435
587.85        30.47324
588.28        30.46198
588.71         30.5781
589.15        30.62831
589.58        30.01287
590.01        30.37943
590.45        30.37671
590.88        29.78604
591.31        29.74158
591.75        30.01624
592.18        30.15086
592.61        30.12028
593.05        30.43554
593.48        30.62756
593.91        30.33666
594.35        30.39783
594.78        30.59074
595.21         30.6609
595.65        30.78603
596.08        30.76953
596.51        31.22767
596.94        31.11518
597.38        31.42356
597.81        31.87662
598.24         31.7958
598.68        32.53337
599.11        32.54414
599.54        32.92877
599.97        33.12302
600.41        33.70051
600.84        34.06514
601.27        34.29775
601.70        34.66907
602.14        34.85313
602.57        35.46325
603.00          35.981
603.43        36.49094
603.87        37.04158
604.30        37.24159
604.73        37.67382
605.16        38.11609
605.60        38.48516
606.03        39.00304
606.46         39.5499
606.89         39.7971
607.32         40.3303
607.76        40.86221
608.19        41.09309
608.62        41.41706
609.05        41.76052
609.48        42.10559
609.92        42.40897
610.35        42.81438
610.78        43.35497
611.21        43.10624
611.64        43.94185
612.07         44.1806
612.50        44.38548
612.94        44.60057
613.37        44.85414
613.80        45.18686
614.23        45.35101
614.66        45.59453
615.09        45.94439
615.52         46.2524
615.96        46.56041
616.39        46.57132
616.82        46.94436
617.25        47.11578
617.68        47.24844
618.11        47.44682
618.54        47.71379
618.97        47.94977
619.40        48.10223
619.84        48.48565
620.27        48.56203
620.70        48.68619
621.13        48.67593
621.56        48.96613
621.99        48.96114
622.42        48.94757
622.85        48.88245
623.28        49.05303
623.71        49.24881
624.14        49.08041
624.57        49.08798
625.00        49.38341
625.43        48.98328
625.86        48.99323
626.29        49.08316
626.72        48.67749
627.15        48.48311
627.58        48.27733
628.01        48.33213
628.44        47.85095
628.87        47.54737
629.30        47.71662
629.73        47.26147
630.16        46.87927
630.59        46.65308
631.02        46.36547
631.45        46.10346
631.88        45.78276
632.31        45.42149
632.74        44.82327
633.17          44.458
633.60        43.99041
634.03        43.56108
634.46        43.15677
634.89        42.75872
635.32        42.31822
635.75        41.82596
636.18        41.32954
636.61        40.84783
637.04        40.35816
637.47        39.88835
637.89        39.55099
638.32        39.31339
638.75        39.01607
639.18        38.63711
639.61        38.43106
640.04        38.07027
640.47        37.77445
640.90        37.45194
641.33        37.10722
641.76        36.76511
642.18        36.56536
642.61        36.38012
643.04        36.30664
643.47        36.28052
643.90         36.2636
644.33        36.24269
644.76        36.23376
645.18        36.24604
645.61         36.2885
646.04         36.3659
646.47        36.46599
646.90        36.60565
647.33        36.81026
647.75        37.08727
648.18         37.4484
648.61        37.84167
649.04        38.19373
649.47         38.5091
649.89        38.75205
650.32        39.01009
650.75        39.62049
651.18        40.50634
651.61        41.11954
652.03        41.42403
652.46        41.91452
652.89        42.66066
653.32        43.09983
653.74        43.48964
654.17        44.46235
654.60        44.64986
655.03         45.1037
655.46        45.66991
655.88        46.67228
656.31        48.48654
656.74        50.87652
657.16        50.48556
657.59        50.16038
658.02        49.30882
658.45        49.73427
658.87        50.24736
659.30        50.63157
659.73        50.53724
660.15        51.23801
660.58        51.20996
661.01        51.56964
661.44        51.86673
661.86         52.0886
662.29        52.24913
662.72        52.49572
663.14          52.849
663.57        53.14692
664.00         53.3807
664.42         53.6261
664.85        53.88927
665.27        54.09957
665.70        54.25988
666.13        54.47286
666.55        54.71165
666.98        54.79905
667.41        54.78785
667.83        54.91251
668.26        55.18397
668.69        55.48896
669.11        55.77654
669.54         56.0079
669.96        56.16895
670.39        56.24804
670.82        56.28434
671.24         56.3816
671.67        56.53764
672.09        56.62734
672.52         56.6691
672.94        56.74819
673.37        56.87153
673.80        56.97384
674.22        57.06388
674.65        57.15292
675.07        57.25629
675.50        57.35088
675.92        57.45047
676.35        57.56998
676.77         57.7109
677.20        57.88032
677.62        58.07392
678.05        58.21878
678.47        58.29582
678.90        58.52125
679.32        58.55265
679.75        58.68646
680.17        58.82172
680.60        58.96717
681.02        59.09603
681.45        59.16568
681.87         59.1854
682.30         59.1244
682.72        59.04764
683.15        59.13406
683.57        59.37223
684.00        59.50985
684.42        59.53804
684.85        59.64115
685.27        59.80587
685.70        59.91515
686.12        59.96888
686.54        60.05009
686.97        60.14682
687.39        60.24136
687.82        60.32949
688.24        60.28689
688.66        60.40287
689.09        60.42435
689.51        60.46544
689.94        60.53005
690.36        60.62916
690.78        60.75182
691.21        60.86622
691.63        60.91661
692.06        60.89766
692.48        60.82868
692.90        60.75248
693.33        60.72383
693.75        60.76328
694.17        60.86425
694.60        60.98935
695.02        61.09928
695.44        61.17323
695.87        61.21823
696.29          61.264
696.71        61.40837
697.14        61.65301
697.56        61.87716
697.98        61.98361
698.41         62.3752
698.83        62.25439
699.25        62.25574
699.68        62.18705
700.10        62.18435
700.52        62.25724
700.94        62.38627
701.37        62.51745
701.79        62.57253
702.21        62.51893
702.64        62.40234
703.06        62.27279
703.48        62.22282
703.90        62.28241
704.33        62.42006
704.75        62.60029
705.17        62.74537
705.59        62.82842
706.01         62.8437
706.44        62.83723
706.86        62.97995
707.28        63.10266
707.70        63.36773
708.12        63.64473
708.55         63.6748
708.97        63.49409
709.39        63.45346
709.81        63.57708
710.23        63.62346
710.66        63.59357
711.08        63.66598
711.50        63.80119
711.92        63.87072
712.34        63.86475
712.76        63.82374
713.19        63.77467
713.61        63.80574
714.03        63.91354
714.45         64.0631
714.87        64.22607
715.29        64.36408
715.71        64.46418
716.13        64.54231
716.56        64.57053
716.98        64.58276
717.40        64.56926
717.82        64.49853
718.24          64.424
718.66        64.51702
719.08        64.75025
719.50        64.90529
719.92        64.96262
720.34        65.05722
720.76        65.17876
721.19        65.22014
721.61        65.18914
722.03        65.13548
722.45        65.06409
722.87        64.94152
723.29        64.81432
723.71        64.77475
724.13        64.82671
724.55         64.9851
724.97        65.22437
725.39        65.34699
725.81         65.2937
726.23        65.70715
726.65        65.51207
727.07        65.60817
727.49        65.68015
727.91        65.74426
728.33        65.78204
728.75        65.79028
729.17        65.78267
729.59        65.75134
730.01        65.69756
730.43         65.7076
730.85         65.8027
731.27        65.80119
731.69        65.65602
732.10        66.15004
732.52        65.89197
732.94        66.02995
733.36        66.14747
733.78        66.14793
734.20        66.00202
734.62        66.24691
735.04        65.85314
735.46        66.06342
735.88        66.29636
736.30         66.1696
736.72        66.15194
737.13        66.06507
737.55        66.08716
737.97        66.16554
738.39        66.27285
738.81        66.28155
739.23        66.19995
739.65        66.22924
740.06        66.33764
740.48        66.41049
740.90        66.41486
741.32         66.4923
741.74        66.54375
742.16        66.62817
742.57        66.71759
742.99        66.80548
743.41        66.87616
743.83        66.89111
744.25         66.8465
744.67        66.74438
745.08        66.65191
745.50        66.64223
745.92        66.74654
746.34        66.94281
746.75         67.1413
747.17        67.20866
747.59        67.11876
748.01        66.86156
748.42        66.56125
748.84        66.51717
749.26         66.7142
749.68        66.87809
750.09        66.93922
750.51        66.92324
750.93        66.86721
751.35        66.93525
751.76        67.12501
752.18        67.23321
752.60        67.25647
753.01        67.34051
753.43        67.45213
753.85        67.50063
754.27        67.47756
754.68        67.40751
755.10        67.33676
755.52        67.34194
755.93        67.45069
756.35        67.62013
756.77        67.75556
757.18        67.90771
757.60        68.11775
758.02        67.82502
758.43        67.41433
758.85        68.05486
759.26        68.42094
759.68        67.90558
760.10        67.55771
760.51        66.71889
760.93        67.63737
761.34        68.11587
761.76        68.15466
762.18        68.22085
762.59        68.21968
763.01        68.05201
763.42        67.84538
763.84        67.90221
764.26        68.23137
764.67        68.34164
765.09        68.25008
765.50        68.60535
765.92        68.77622
766.33        68.80327
766.75        68.49017
767.16        68.21252
767.58        68.01054
768.00        67.98122
768.41        68.14877
768.83        68.16827
769.24         68.0822
769.66        68.43959
770.07        69.05624
770.49         69.1356
770.90         68.6953
771.32        68.59039
771.73        68.49744
772.15        68.49157
772.56        68.52543
772.97        68.54099
773.39        68.39281
773.80        69.25088
774.22        68.79548
774.63        68.88737
775.05        68.87173
775.46        68.94189
775.88        69.07124
776.29        69.25655
776.70        69.44821
777.12          69.525
777.53        69.48889
777.95        69.35944
778.36        69.21398
778.77        69.15704
779.19        69.21721
779.60        69.37071
780.02        69.55797
780.43        69.70998
780.84        69.78887
781.26        69.79609
781.67        69.80614
782.09        69.84859
782.50        69.85553
782.91         70.1634
783.33        69.80206
783.74        69.79145
784.15        69.83976
784.57        69.81567
784.98        69.76182
785.39           69.84
785.81         70.0066
786.22        70.14089
786.63          70.255
787.04        70.00527
787.46        70.30877
787.87        70.30973
788.28        70.29739
788.70        70.34254
789.11        70.43802
789.52        70.52193
789.93        70.57005
790.35        70.63955
790.76        70.70092
791.17        70.55318
791.58        70.26394
792.00        70.09998
792.41        70.11366
792.82        70.19368
793.23        70.29255
793.65        70.37511
794.06        70.51193
794.47        70.75569
794.88        70.92989
795.29        71.55928
795.71         71.0099
796.12        70.75952
796.53        70.44318
796.94        70.31962
797.35        70.42155
797.76        70.53398
798.18        70.63068
798.59        70.84705
799.00        71.18894
799.41        71.12174
799.82        71.41284
800.23        71.40518
800.64        71.33734
801.06        71.16027
801.47        70.98305
801.88        70.90542
802.29        70.94667
802.70        71.08304
803.11        71.25038
803.52        71.33522
803.93        71.31421
804.34        71.22897
804.75        71.10782
805.17        71.04726
805.58         71.1146
805.99         71.0761
806.40        70.97321
806.81        71.33154
807.22        71.91458
807.63        71.70603
808.04        70.87244
808.45         70.6096
808.86        71.03181
809.27        71.46855
809.68        71.76479
810.09        71.95534
810.50        71.97511
810.91        71.81033
811.32        71.56826
811.73        71.42286
812.14        71.42296
812.55        71.55045
812.96        71.71568
813.37        71.70213
813.78        71.50167
814.19        71.31071
814.60        71.19511
815.01         71.1338
815.42        71.15042
815.83        71.27734
816.24        71.49431
816.65        71.72591
817.05        71.93674
817.46        72.10062
817.87        72.21553
818.28        72.23351
818.69        72.15324
819.10        71.98638
819.51         71.7789
819.92        71.62315
820.33        71.55806
820.74         71.5669
821.14         71.6282
821.55        71.73592
821.96          71.859
822.37         72.0055
822.78        72.15413
823.19        72.26109
823.60        72.31524
824.00        72.34441
824.41        72.32644
824.82         72.3231
825.23        72.35011
825.64        72.39335
826.04        72.48567
826.45        72.64129
826.86        72.86067
827.27         73.1321
827.68         73.3842
828.08        73.52745
828.49        73.47205
828.90        73.28517
829.31        73.04225
829.72        72.87965
830.12        72.85763
830.53         72.8858
830.94        72.94279
831.35        72.95251
831.75        72.91013
832.16        72.81209
832.57        72.66319
832.97        72.43441
833.38        72.14181
833.79        71.81196
834.20        71.55315
834.60        71.52048
835.01        71.74655
835.42        72.17893
835.82        72.71127
836.23        73.07227
836.64        73.20521
837.04        73.18671
837.45        73.06908
837.86        73.04836
838.26        73.18717
838.67        73.40762
839.08        73.65128
839.48        73.81236
839.89        73.85364
840.29        73.80679
840.70        73.72346
841.11        73.67923
841.51        73.71513
841.92        73.78355
842.33        73.83062
842.73        73.76457
843.14        73.52758
843.54        73.18375
843.95        72.86351
844.35        72.79106
844.76        72.99818
845.17        73.41776
845.57        73.88206
845.98        74.07385
846.38        73.93735
846.79        73.53899
847.19        73.05765
847.60        72.74273
848.00        72.69704
848.41         72.8114
848.81         73.0193
849.22        73.13558
849.62        73.14124
850.03        73.07632
850.43        72.99963
850.84        72.91257
851.24        72.87907
851.65        72.82661
852.05        72.84313
852.46        72.97929
852.86        73.22008
853.27        73.54499
853.67        73.79308
854.07        73.91976
854.48        73.87321
854.88        73.71928
855.29        73.41228
855.69        73.08742
856.10        72.71649
856.50        72.36875
856.90        72.07185
857.31        71.89241
857.71         71.8862
858.12        71.98494
858.52        72.16816
858.92         72.2666
859.33        72.21698
859.73        72.08786
860.13        71.89048
860.54        71.68211
860.94        71.53121
861.34        71.39248
861.75        71.25327
862.15        71.15955
862.55        71.08446
862.96        71.03706
863.36        70.99053
863.76        70.88208
864.17        70.69411
864.57        70.46054
864.97        70.22922
865.38         70.0555
865.78        70.00491
866.18        70.04743
866.58        70.12887
866.99        70.16798
867.39        70.16462
867.79        70.09562
868.19        70.03329
868.60         70.0538
869.00        70.15744
869.40        70.35852
869.80        70.53745
870.21        70.48888
870.61        70.25275
871.01        69.84663
871.41        69.47372
871.81        69.41858
872.22        69.70557
872.62        70.28674
873.02        70.97224
873.42        71.38326
873.82         71.3972
874.22        71.13703
874.63        70.80605
875.03        70.67836
875.43        70.82572
875.83        71.13932
876.23         71.5163
876.63        71.79536
877.03        71.90391
877.44         71.8795
877.84        71.74146
878.24        71.48783
878.64        71.15096
879.04         70.7578
879.44        70.35475
879.84        69.99776
880.24        69.70727
880.64        69.48264
881.04        69.35784
881.44        69.38019
881.84         69.5443
882.24        69.81614
882.65        70.09138
883.05        70.29903
883.45        70.36296
883.85        70.31364
884.25        70.18171
884.65        70.02104
885.05        69.86111
885.45        69.69036
885.85        69.55754
886.25        69.54778
886.65        69.67532
887.05        69.91945
887.45        70.19244
887.85        70.35466
888.25        70.36693
888.65        70.25428
889.04        70.07703
889.44        69.98705
889.84        70.00288
890.24        70.08372
890.64        70.15598
891.04        70.10811
891.44        69.92294
891.84        69.65418
892.24        69.38518
892.64        69.23424
893.04        69.24183
893.44        69.38727
893.83        69.63644
894.23        69.86619
894.63        70.06286
895.03        70.22656
895.43        70.40716
895.83        70.68808
896.23        71.05704
896.63        71.45822
897.02        71.75375
897.42        71.78598
897.82        71.52902
898.22        71.06685
898.62        70.53977
899.01        70.19329
899.41        70.08861
899.81        70.16692
900.21        70.38202
900.61         70.6431
901.00        70.89028
901.40        71.17263
901.80        71.40522
902.20        71.46698
902.59        71.35361
902.99        71.06347
903.39        70.74902
903.79        70.66408
904.18        70.84904
904.58        71.22777
904.98         71.6186
905.38        71.75208
905.77        71.56602
906.17        71.15591
906.57        70.65714
906.96        70.32587
907.36        70.21996
907.76        70.28024
908.15        70.41974
908.55        70.41924
908.95        70.25546
909.34        69.98956
909.74        69.74059
910.14        69.62189
910.53        69.67491
910.93        69.83983
911.33        70.07353
911.72        70.30766
912.12        70.48589
912.52        70.63097
912.91        70.73471
913.31         70.8213
913.70        70.89268
914.10        70.91933
914.49        70.92445
914.89        70.89672
915.29        70.85288
915.68        70.80048
916.08        70.72458
916.47        70.58601
916.87        70.41264
917.26         70.2243
917.66         70.0874
918.05          70.065
918.45        70.16011
918.84        70.35802
919.24        70.61668
919.64        70.94748
920.03        71.33636
920.42        71.76159
920.82        72.12113
921.21        72.25665
921.61         72.1284
922.00        71.77355
922.40        71.36582
922.79        71.29194
923.19        71.59938
923.58        72.22408
923.98         72.8334
924.37        72.97007
924.77        72.53983
925.16        71.67767
925.55        70.74189
925.95        70.34927
926.34         70.6572
926.74        71.44211
927.13         72.3832
927.52        72.87502
927.92        72.78288
928.31        72.29366
928.70        71.65401
929.10        71.22215
929.49        71.11322
929.89        71.18724
930.28        71.40958
930.67        71.61457
931.07        71.72367
931.46        71.81234
931.85        71.87898
932.24        71.94379
932.64        72.00454
933.03        72.03365
933.42        72.00478
933.82        71.88392
934.21        71.68557
934.60        71.45754
934.99        71.24693
935.39        71.10505
935.78        71.08406
936.17        71.14065
936.56        71.31638
936.96        71.65771
937.35        72.17156
937.74        72.78339
938.13        73.29096
938.53        73.41105
938.92        73.11374
939.31        72.47301
939.70        71.72558
940.09        71.30497
940.49        71.31107
940.88        71.64487
941.27        72.09173
941.66        72.31541
942.05        72.23236
942.44          71.979
942.84        71.65428
943.23        71.35227
943.62        71.15425
944.01        70.99788
944.40        70.95051
944.79        71.14288
945.18        71.55636
945.57        72.12122
945.97        72.60823
946.36        72.74827
946.75        72.45116
947.14        71.80096
947.53        70.95675
947.92        70.21519
948.31        69.71904
948.70        69.44188
949.09        69.33709
949.48        69.30901
949.87        69.32405
950.26        69.40475
950.65        69.61185
951.04        70.03276
951.43         70.6487
951.82        71.38665
952.21        72.03615
952.60        72.26372
952.99        71.98246
953.38        71.28637
953.77        70.41232
954.16        69.72748
954.55        69.33102
954.94        69.14202
955.33        69.01986
955.72        68.71394
956.11        68.16996
956.50        67.50402
956.89        66.86472
957.28        66.48596
957.66        66.47935
958.05        66.75491
958.44        67.22859
958.83         67.7695
959.22         68.2928
959.61        68.76536
960.00        69.19109
960.39        69.59499
960.78         69.9549
961.16        70.27219
961.55         70.3378
961.94         69.9295
962.33        69.05951
962.72        67.89367
963.11        66.75571
963.49        66.08765
963.88        65.99654
964.27        66.37585
964.66          67.058
965.04         67.7365
965.43        68.17641
965.82        68.45443
966.21        68.60714
966.60        68.72582
966.98        68.83703
967.37        68.84932
967.76        68.70222
968.15        68.30139
968.53        67.69192
968.92         67.0004
969.31         66.3858
969.69        66.02784
970.08        65.98515
970.47        66.23174
970.86         66.8354
971.24        67.88557
971.63        69.22008
972.02        70.71283
972.40        72.12051
972.79        73.01688
973.17        73.41624
973.56        73.32384
973.95         72.9277
974.33        72.54343
974.72        72.28187
975.11         72.0856
975.49        71.81469
975.88        71.25517
976.26        70.39077
976.65        69.33023
977.04        68.30584
977.42        67.65514
977.81        67.44167
978.19        67.56125
978.58        67.96788
978.96        68.47893
979.35        68.96231
979.74        69.47359
980.12          69.947
980.51        70.07051
980.89        69.91016
981.28         69.4224
981.66        68.87916
982.05        68.83582
982.43         69.3969
982.82        70.36324
983.20        71.39847
983.59         71.7959
983.97        71.50135
984.35         70.6801
984.74        69.63689
985.12        68.91357
985.51        68.70007
985.89        68.85386
986.28        69.25008
986.66        69.79004
987.04        70.36784
987.43         70.9999
987.81         71.5951
988.20        71.88624
988.58        71.85367
988.96        71.53374
989.35        70.99108
989.73        70.45132
990.12        69.94073
990.50        69.36382
990.88        68.83224
991.27         68.5919
991.65        68.70315
992.03        69.17886
992.42         69.5408
992.80        69.40032
993.18        68.55652
993.56        67.00918
993.95        65.28841
994.33        64.58866
994.71        65.43345
995.10        67.17172
995.48         68.8993
995.86        69.55695
996.24        69.06373
996.63        67.66897
997.01        65.91917
997.39        65.01192
997.77        65.46699
998.15        66.86066
998.54        68.48083
998.92        69.40824
999.30        69.40925
999.68        68.78313
1000.06        67.87162
1000.45        67.23745
1000.83        67.17834
1001.21        67.45936
1001.59        67.88757
1001.97        68.18982
1002.35        68.31334
1002.73        68.43342
1003.12        68.61787
1003.50         68.7819
1003.88        68.96165
1004.26        69.03947
1004.64        69.19395
1005.02        69.72044
1005.40        70.63016
1005.78        71.88649
1006.16        72.99736
1006.54        73.07479
1006.92        71.91829
1007.30        69.77568
1007.69        67.51243
1008.07        66.46235
1008.45        67.03442
1008.83        68.82512
1009.21        70.88839
1009.59        71.83514
1009.97        71.28294
1010.35        69.44646
1010.73          67.004
1011.11        65.72354
1011.49         66.4286
1011.86        68.66389
1012.24        71.10419
1012.62        72.19938
1013.00        71.68291
1013.38        70.12653
1013.76        68.36469
1014.14        67.73855
1014.52        68.70004
1014.90        70.88429
1015.28        73.74299
1015.66        76.14291
1016.04        77.50825
1016.41        78.11943
1016.79         78.1176
1017.17        78.16891
1017.55        78.40481
1017.93        78.57801
1018.31         78.4443
1018.69        77.60435
1019.06        76.04185
1019.44        74.02605
1019.82        71.83675
1020.20        70.14854
1020.58        69.30978
1020.95        68.94778
1021.33        69.24781
1021.71        70.40181
1022.09        72.23333
1022.46        74.72975
1022.84        76.74936
1023.22        76.02625
1023.60        71.85915
1023.97        64.14513
1024.35         55.0805
1024.73        49.91523
