SpectraSmart Spectrum 2.9.0.0
--------- Device Information -----------
Spectrum Name :  反射率_0
Saving Time :  2024/04/27 22:20:27
Spectro-Module Model Name : SE2030-DUVN
Spectro-Module Serial Number : OS361AC55029948
Wavelength Start : 200
Wavelength End : 1025
Wavelength Unit : Wavelength(nm)
Spectrum Unit : Reflectance(%)
-----------Spectrum Setting ------------
Integration Time : 20ms
Average : 10
Boxcar : 0
Background removal :  enabled
linearity correction :  enabled
SC :  disabled
Intensity correction :  disabled
DWT denoise :  enabled
savitzky-golay :  disabled
FFT :  disabled
Running average :  disabled
Kalman :  disabled
High pass :  disabled
---------------BEGIN--------------------
Wavelength(nm)             Reflectance(%)
200.29               0
200.75       -17.03444
201.21        37.06328
201.67        76.33699
202.13        91.07261
202.58        90.14626
203.04        81.52188
203.50        70.42447
203.96        63.95039
204.42        63.51905
204.88        66.20289
205.34        69.05579
205.80        69.46878
206.26        66.68951
206.72        59.83712
207.18        49.98246
207.64        47.31151
208.10        56.30142
208.55        68.96737
209.01        75.87798
209.47        74.32778
209.93        62.87154
210.39        29.32454
210.85       -76.92413
211.31       -219.1768
211.77       -74.63873
212.23        28.08853
212.69        65.58978
213.14         77.3172
213.60        77.24458
214.06        69.11533
214.52          51.702
214.98        37.64286
215.44        41.58912
215.90        52.07034
216.36        60.44025
216.81        63.85427
217.27        63.51645
217.73        61.81171
218.19        59.07944
218.65        55.36787
219.11        51.10354
219.57        45.91357
220.02        41.45317
220.48        42.84763
220.94        50.29531
221.40        60.83089
221.86        70.58633
222.32        76.13997
222.77        77.69695
223.23        76.81572
223.69         74.8535
224.15        73.10665
224.61         71.8344
225.06        70.49412
225.52        69.33077
225.98        68.50822
226.44        68.09247
226.90        67.98828
227.36        67.94096
227.81        67.58817
228.27        66.93224
228.73        65.96198
229.19        64.56446
229.65        62.71067
230.10        60.53851
230.56        58.46386
231.02        56.77102
231.48        55.89415
231.93        55.75813
232.39        56.25915
232.85        57.12497
233.31        58.04013
233.77        58.86314
234.22        59.70753
234.68        60.30389
235.14         60.3808
235.60        59.90841
236.05        58.78894
236.51        57.55725
236.97        57.41119
237.43        58.74647
237.88        61.43713
238.34        63.97255
238.80        64.87263
239.26        63.60543
239.71        59.50498
240.17        52.55192
240.63        48.39931
241.08         52.2596
241.54        60.29406
242.00        66.59159
242.46        68.24027
242.91        65.37151
243.37        56.17239
243.83        36.22148
244.28        11.94125
244.74         13.5755
245.20        39.69787
245.66         61.4204
246.11        67.83026
246.57         62.0719
247.03        44.54491
247.48        15.36394
247.94       -4.504138
248.40        6.248924
248.85        34.79601
249.31        62.80286
249.77        76.00668
250.22        76.39828
250.68        71.38266
251.14        65.41404
251.59        61.55859
252.05        59.96269
252.51        58.78776
252.96        57.32915
253.42        56.11184
253.88        55.23065
254.33        55.65539
254.79        56.16618
255.25        55.01423
255.70        52.61988
256.16         50.1046
256.62        48.90667
257.07        50.59291
257.53        54.36156
257.99        58.33368
258.44        60.98145
258.90        61.39902
259.35        59.72682
259.81        57.27453
260.27         54.5989
260.72        52.36307
261.18        51.03314
261.63        50.10204
262.09        49.62807
262.55        49.36034
263.00        49.13727
263.46         49.0932
263.91        49.09826
264.37        49.27526
264.83        49.49614
265.28        49.66399
265.74         49.6923
266.19          49.284
266.65        48.51646
267.11        47.45166
267.56        46.28724
268.02         45.4366
268.47        44.94371
268.93        44.70925
269.38         44.5544
269.84        44.22001
270.30        43.62518
270.75        42.85939
271.21        41.99305
271.66         41.0805
272.12        40.18963
272.57        39.27341
273.03        38.41884
273.48        37.67756
273.94        37.11656
274.39        36.68897
274.85        36.37619
275.31        36.05869
275.76        35.67912
276.22         35.2743
276.67        34.84341
277.13        34.49849
277.58        34.18842
278.04         33.9294
278.49        33.57254
278.95         33.0256
279.40        32.24459
279.86        31.36341
280.31        30.49424
280.77        29.92072
281.22        29.64003
281.68        29.59996
282.13        29.63299
282.59        29.56337
283.04        29.32115
283.50        28.97234
283.95        28.57745
284.41        28.27286
284.86         28.0718
285.32        27.95777
285.77        27.83268
286.22        27.59782
286.68        27.26149
287.13        26.83589
287.59        26.46157
288.04        26.27019
288.50        26.30603
288.95        26.47701
289.41        26.67685
289.86        26.69837
290.32        26.52607
290.77         26.2297
291.22        25.91241
291.68        25.72052
292.13        25.69045
292.59        25.79021
293.04        26.00083
293.50        26.31917
293.95        26.71671
294.40        27.20551
294.86        27.73805
295.31         28.2273
295.77        28.66181
296.22        29.04055
296.68        29.42497
297.13         29.8958
297.58        30.47327
298.04        31.12771
298.49        31.79033
298.95        32.37712
299.40        32.86898
299.85        33.29601
300.31          33.744
300.76        34.30293
301.21        34.99357
301.67        35.78204
302.12         36.5459
302.58        37.15324
303.03        37.56276
303.48        37.83176
303.94        38.09382
304.39        38.49782
304.84        39.08377
305.30        39.79344
305.75        40.47782
306.20        40.96134
306.66        41.21815
307.11        41.27847
307.57         41.2704
308.02        41.31878
308.47        41.47498
308.93        41.69558
309.38         41.8853
309.83        41.93506
310.29        41.83801
310.74        41.63227
311.19        41.40168
311.65        41.26744
312.10          41.242
312.55        41.28792
313.00        41.36505
313.46        41.41437
313.91        41.40673
314.36        41.36767
314.82        41.27919
315.27        41.10796
315.72        40.86164
316.18        40.55901
316.63        40.25582
317.08        40.06575
317.53         40.0113
317.99        40.05803
318.44        40.14359
318.89        40.14621
319.35        40.03106
319.80        39.83106
320.25        39.59285
320.70         39.4007
321.16        39.26796
321.61        39.16995
322.06        39.06586
322.51        38.89648
322.97        38.64441
323.42        38.35599
323.87         38.0476
324.32        37.75131
324.78        37.48195
325.23        37.23805
325.68         37.0445
326.13        36.94962
326.59        36.93976
327.04        37.02139
327.49        37.10777
327.94        37.06758
328.39        36.86692
328.85        36.52628
329.30        36.14144
329.75        35.85985
330.20          35.733
330.66        35.71186
331.11        35.74844
331.56        35.70345
332.01         35.5414
332.46        35.30549
332.92        35.05193
333.37        34.91412
333.82        34.91505
334.27        35.01155
334.72        35.14594
335.17        35.22884
335.63        35.21952
336.08        35.16138
336.53        35.06414
336.98        34.96108
337.43        34.86797
337.88        34.77333
338.34        34.68008
338.79        34.60359
339.24        34.54716
339.69        34.51814
340.14        34.50492
340.59         34.4854
341.05        34.45219
341.50        34.40755
341.95        34.36566
342.40        34.35886
342.85        34.38945
343.30        34.44727
343.75        34.48619
344.20        34.43378
344.66        34.28476
345.11        34.06163
345.56         33.8357
346.01        33.71766
346.46        33.72913
346.91         33.8301
347.36        33.95976
347.81        34.02065
348.26        33.98865
348.72        33.90131
349.17        33.78036
349.62        33.66235
350.07        33.56204
350.52        33.45627
350.97        33.37664
351.42        33.37584
351.87        33.45292
352.32        33.59583
352.77        33.71381
353.22        33.66701
353.67        33.43346
354.13        33.06412
354.58        32.65611
355.03         32.4205
355.48        32.40497
355.93        32.55424
356.38        32.73126
356.83        32.71985
357.28         32.4753
357.73        32.06882
358.18        31.63801
358.63        31.39533
359.08        31.38196
359.53        31.51773
359.98        31.67493
360.43        31.65734
360.88        31.41758
361.33        31.02365
361.78        30.56033
362.23        30.19437
362.68        29.98012
363.13        29.80769
363.58        29.62548
364.03         29.6781
364.48        29.41812
364.93        29.28407
365.38        29.12496
365.83        28.95695
366.28        28.77609
366.73        28.57894
367.18        28.36036
367.63        28.10416
368.08        27.81542
368.53        27.50768
368.98        27.20556
369.43        26.94435
369.88        26.73599
370.33        26.57353
370.78        26.44245
371.23        26.31897
371.68        26.18634
372.13         26.0363
372.58        25.87259
373.03        25.70255
373.48        25.52958
373.93        25.36506
374.38        25.17429
374.83        24.90185
375.28        24.55363
375.72        24.14318
376.17        23.79727
376.62        23.67046
377.07        23.77562
377.52        24.03927
377.97        24.32119
378.42        24.40171
378.87        24.23169
379.32        23.89467
379.77        23.47178
380.22        23.08697
380.67        22.78648
381.11        22.52894
381.56         22.3439
382.01        22.28076
382.46        22.33402
382.91        22.49566
383.36        22.65986
383.81         22.6543
384.26        22.44811
384.71        22.08736
385.15        21.68575
385.60        21.46264
386.05        21.45408
386.50        21.59568
386.95        21.78186
387.40        21.84636
387.85        21.75363
388.29         21.5555
388.74        21.35067
389.19        21.22529
389.64        21.19505
390.09        21.20838
390.54        21.23635
390.98        21.23488
391.43        21.19865
391.88        21.15185
392.33        21.06569
392.78        20.92952
393.23        20.76248
393.67        20.48182
394.12        20.18737
394.57        20.25898
395.02        20.34928
395.47        20.39021
395.91        20.28164
396.36        20.26349
396.81        20.33644
397.26        20.35586
397.71        20.31724
398.15        20.29138
398.60        20.30416
399.05        20.25598
399.50        20.18328
399.95        20.27084
400.39         20.4564
400.84         20.4277
401.29        20.20374
401.74        20.01873
402.18        19.94028
402.63        19.99718
403.08        20.12782
403.53        20.11613
403.97        19.94687
404.42        19.76724
404.87        19.62989
405.32        19.57528
405.76        19.61563
406.21        19.68306
406.66        19.75813
407.11        19.90802
407.55        20.06331
408.00        20.02452
408.45        19.81029
408.90         19.5269
409.34        19.28981
409.79        19.33228
410.24        19.58916
410.68        19.70304
411.13         19.6425
411.58        19.63069
412.03        19.68918
412.47         19.7448
412.92        19.78846
413.37        19.84086
413.81        19.88945
414.26        19.93515
414.71        19.97156
415.15        19.99854
415.60        20.01364
416.05        20.02406
416.49        20.03378
416.94        20.04094
417.39        20.04036
417.83        20.02493
418.28        19.99163
418.73         19.9387
419.17         19.8951
419.62        19.90882
420.07        19.99397
420.51        20.14261
420.96        20.29826
421.41        20.39581
421.85        20.41672
422.30        20.28919
422.74        20.11953
423.19        20.32302
423.64        20.82313
424.08        21.05153
424.53        20.92285
424.98        20.89861
425.42        20.99859
425.87         20.8204
426.31        20.46792
426.76        20.54144
427.21        20.93772
427.65        20.90788
428.10        20.52547
428.54        20.42695
428.99        20.62646
429.44        20.97944
429.88        21.30155
430.33        21.03993
430.77        20.41442
431.22        20.36638
431.66        20.87188
432.11        21.23962
432.56        21.37112
433.00        21.43609
433.45         21.2886
433.89        21.01434
434.34        20.93801
434.78        19.97894
435.23        20.69592
435.67        21.37817
436.12        21.75673
436.57        21.86467
437.01        21.56794
437.46         21.4312
437.90        21.58635
438.35        21.87473
438.79        21.57828
439.24         21.5257
439.68        21.52451
440.13        21.51602
440.57        21.49824
441.02        21.62111
441.46        21.81591
441.91        21.70944
442.35        21.39979
442.80        21.47637
443.24        21.85494
443.69        21.90543
444.13        21.63265
444.58        21.54068
445.02        21.62835
445.47        21.64683
445.91        21.58762
446.36        21.57976
446.80        21.62013
447.24        21.65835
447.69        21.69476
448.13        21.78319
448.58        21.89103
449.02        21.89457
449.47        21.81606
449.91        21.79093
450.36        21.83206
450.80        21.85699
451.25         21.8574
451.69        21.85354
452.13        21.83778
452.58        21.78799
453.02        21.71721
453.47        21.65742
453.91        21.61496
454.36        21.61764
454.80        21.62682
455.24        21.55413
455.69        21.44478
456.13        21.34616
456.58         21.3133
457.02        21.50803
457.46        21.80667
457.91        21.81041
458.35        21.63017
458.79        21.57909
459.24        21.69193
459.68        21.75896
460.13        21.77358
460.57        21.69363
461.01        21.61729
461.46        21.57916
461.90        21.47984
462.34        21.40135
462.79        21.67962
463.23        21.71894
463.68        21.64792
464.12        21.61584
464.56         21.6517
465.01        21.80289
465.45        21.94166
465.89        21.86683
466.34        21.64546
466.78        21.40627
467.22        21.20117
467.67        21.56426
468.11        21.54939
468.55        21.67309
468.99        21.63442
469.44        21.63225
469.88        21.65422
470.32        21.55712
470.77        21.40279
471.21        21.36099
471.65        21.45953
472.10        21.65044
472.54        21.85041
472.98        21.96555
473.42        21.97902
473.87        21.86266
474.31        21.69915
474.75        21.81464
475.20          22.151
475.64        22.25552
476.08        22.11283
476.52        22.12029
476.97        22.29514
477.41        22.22413
477.85        22.12848
478.29        22.21906
478.74        22.09866
479.18        21.90125
479.62        22.23894
480.06        22.30589
480.50        22.33754
480.95        22.32716
481.39        22.26066
481.83        22.59382
482.27        22.64843
482.72        22.61079
483.16        22.96875
483.60        23.04835
484.04        23.01299
484.48        23.03791
484.93          23.323
485.37        23.10894
485.81        23.46059
486.25        24.22804
486.69        24.00811
487.14        23.53769
487.58        24.36683
488.02         23.9994
488.46        24.05017
488.90         24.6191
489.34        23.95715
489.79        23.73855
490.23        24.34129
490.67        24.67071
491.11        24.91717
491.55        24.97348
491.99        24.91507
492.43        24.99557
492.88        25.22449
493.32        25.40253
493.76        25.50291
494.20        25.64608
494.64        25.85135
495.08        26.01134
495.52        26.12328
495.96         26.4165
496.41        26.83883
496.85        26.72551
497.29        26.27315
497.73        26.49289
498.17        27.27306
498.61        27.69969
499.05        27.64388
499.49        27.59163
499.93         27.6276
500.37        27.66231
500.82        27.70958
501.26        27.86318
501.70        28.14192
502.14        27.94644
502.58        28.26615
503.02        28.34543
503.46        28.35744
503.90        28.34798
504.34        28.31401
504.78        28.34052
505.22        28.42443
505.66        28.49257
506.10        28.55039
506.54        28.68362
506.98        28.89471
507.42        29.01929
507.86        29.24517
508.30        29.32845
508.74        29.32671
509.18        29.25083
509.62         29.1586
510.06        29.14062
510.50        29.21924
510.94        29.37321
511.38        29.55344
511.82        29.68028
512.26        29.73039
512.70        29.72458
513.14        29.70398
513.58        29.72321
514.02        29.79408
514.46         29.9175
514.90         30.0511
515.34        30.02244
515.78        29.99302
516.22        29.85379
516.66        29.71743
517.10        29.67318
517.54        29.74335
517.98        29.89424
518.42        30.07124
518.86        30.19125
519.30         30.2265
519.74        30.19969
520.18        30.13984
520.62        30.09173
521.06         30.0721
521.50        30.07091
521.93        30.07387
522.37        30.05105
522.81        30.00095
523.25        29.93042
523.69        29.87105
524.13        29.86929
524.57        29.92748
525.01        30.02686
525.45        30.11016
525.89        30.08772
526.32         29.9422
526.76        29.71615
527.20        29.47215
527.64        29.31503
528.08        29.27089
528.52         29.3017
528.96        29.37136
529.40        29.42171
529.83        29.42874
530.27        29.41771
530.71        29.37482
531.15        29.27929
531.59        29.13684
532.03        28.95202
532.46        28.77249
532.90        28.69227
533.34        28.72283
533.78        28.83675
534.22        28.97171
534.66        29.03005
535.09        28.98608
535.53        28.87626
535.97        28.74129
536.41         28.6518
536.85        28.62978
537.28        28.65637
537.72        28.70792
538.16        28.74266
538.60        28.75226
539.04        28.76013
539.47        28.77907
539.91        28.84319
540.35         28.9492
540.79        29.08634
541.22         29.2312
541.66        29.35103
542.10        29.43533
542.54        29.49655
542.97         29.5431
543.41        29.60555
543.85        29.68818
544.29        29.78535
544.72        29.89334
545.16        30.02608
545.60        30.17449
546.04         30.3357
546.47         30.5019
546.91        30.65499
547.35        30.78748
547.79        30.91885
548.22        31.04362
548.66        31.14394
549.10        31.24298
549.53        31.45234
549.97        31.75472
550.41        32.01105
550.84        32.20433
551.28         32.4132
551.72        32.62739
552.15         32.7917
552.59        32.91278
553.03         32.9975
553.46        33.07193
553.90        33.19508
554.34        33.36892
554.77        33.60127
555.21        33.85582
555.65         33.9907
556.08        34.08851
556.52        34.14483
556.96        34.20361
557.39        34.31848
557.83        34.47332
558.27          34.509
558.70        34.45602
559.14        34.49624
559.57        34.62808
560.01        34.79828
560.45        34.95459
560.88        34.98425
561.32        34.94607
561.75        34.99197
562.19        35.12797
562.63        35.25224
563.06         35.3288
563.50        35.29177
563.93        35.18293
564.37        35.23672
564.80        35.43467
565.24        35.59853
565.68        35.72104
566.11        35.89289
566.55        36.11503
566.98         36.3572
567.42         36.5796
567.85        36.64286
568.29        36.60921
568.72        36.60369
569.16        36.68608
569.60         36.8742
570.03         37.1866
570.47        37.31258
570.90        37.67292
571.34        38.06863
571.77        38.22169
572.21         38.1172
572.64        38.50025
573.08        38.20039
573.51        38.37814
573.95        38.60649
574.38        39.02807
574.82        38.95595
575.25        39.10389
575.69        38.88844
576.12        38.86614
576.56        39.22961
576.99        39.02983
577.42         39.1764
577.86        39.43237
578.29        39.36535
578.73         39.5239
579.16         39.3869
579.60        39.05823
580.03        38.87934
580.47        38.91713
580.90        38.70861
581.33        38.76565
581.77        39.00644
582.20        38.79151
582.64        38.80295
583.07         38.5051
583.51        38.26892
583.94        38.14857
584.37        37.99444
584.81        37.85149
585.24        37.84195
585.68        37.99144
586.11        37.68262
586.54        37.70736
586.98        37.54373
587.41        37.64451
587.85        37.27769
588.28        37.33142
588.71        37.34753
589.15        37.46309
589.58        37.00793
590.01        37.15997
590.45        37.38783
590.88        37.02714
591.31        36.99102
591.75        36.98533
592.18         36.9921
592.61        37.11117
593.05        37.14525
593.48        37.63894
593.91        37.41254
594.35        37.46272
594.78         37.7189
595.21        37.77565
595.65        37.81845
596.08        37.64747
596.51        38.20033
596.94        38.15105
597.38        38.48439
597.81        38.85065
598.24        38.77957
598.68        39.09429
599.11        39.58344
599.54         40.0463
599.97        40.15318
600.41        40.76232
600.84        41.07544
601.27        41.38202
601.70        41.40067
602.14        41.47353
602.57        42.05837
603.00        42.72026
603.43        43.17174
603.87        43.49179
604.30        43.80185
604.73        44.25793
605.16        44.80502
605.60        45.09985
606.03        45.68475
606.46        46.35578
606.89        46.45335
607.32        46.78649
607.76        47.14828
608.19         47.3182
608.62        47.56792
609.05        47.83605
609.48        48.09802
609.92         48.2702
610.35        48.77716
610.78        49.19099
611.21        48.69063
611.64        49.68841
612.07        49.84265
612.50        49.90373
612.94         50.1185
613.37          50.568
613.80        50.55861
614.23        50.96584
614.66         51.2229
615.09        51.53868
615.52        51.84559
615.96        52.15749
616.39        52.07349
616.82          52.234
617.25        52.57944
617.68        52.56749
618.11        52.76334
618.54        52.95303
618.97        53.18066
619.40          53.366
619.84        53.59264
620.27         53.7275
620.70        53.79233
621.13        53.70997
621.56           54.05
621.99        53.94486
622.42        53.92751
622.85        54.06775
623.28        54.33496
623.71        54.74796
624.14        54.10389
624.57         54.3219
625.00        54.45524
625.43         54.1106
625.86        54.06623
626.29         54.0079
626.72        53.95244
627.15        53.84965
627.58         53.6591
628.01        53.41716
628.44        53.52903
628.87        53.07399
629.30        53.03563
629.73        52.73835
630.16        52.29283
630.59        52.08265
631.02        51.83024
631.45        51.64995
631.88        51.43343
632.31        51.18862
632.74        50.70168
633.17        50.49303
633.60        50.16206
634.03        49.85894
634.46        49.58369
634.89        49.30449
635.32        48.91747
635.75        48.42642
636.18        47.96514
636.61        47.55835
637.04        47.10848
637.47        46.66934
637.89        46.39349
638.32        46.23565
638.75        45.99398
639.18        45.64514
639.61        45.36904
640.04         45.0287
640.47        44.74137
640.90        44.47252
641.33        44.20709
641.76        43.94296
642.18        43.79165
642.61        43.58344
643.04        43.45272
643.47        43.35032
643.90        43.27783
644.33         43.2326
644.76        43.21799
645.18        43.22776
645.61        43.24456
646.04         43.2672
646.47        43.29375
646.90        43.34988
647.33        43.48054
647.75        43.69983
648.18        43.99506
648.61        44.31573
649.04        44.63491
649.47        44.93909
649.89        45.09031
650.32        45.18338
650.75        45.69118
651.18        46.52369
651.61        46.95704
652.03        46.98984
652.46        47.32932
652.89        48.01982
653.32         48.2974
653.74        48.46484
654.17        49.10265
654.60        49.55837
655.03        49.83353
655.46        49.88734
655.88        51.28365
656.31        52.39858
656.74        54.31434
657.16        54.22558
657.59        53.72968
658.02        52.48286
658.45        53.09206
658.87         53.1875
659.30        53.59873
659.73        53.93124
660.15        53.60204
660.58        53.82175
661.01        54.03779
661.44        54.54496
661.86        54.95813
662.29         55.2104
662.72        55.36283
663.14        55.46359
663.57        55.67302
664.00        55.98414
664.42        56.18024
664.85        56.26879
665.27        56.40762
665.70        56.59361
666.13        56.74112
666.55        56.85134
666.98        56.94891
667.41        57.06107
667.83        57.22316
668.26        57.43516
668.69        57.69331
669.11        57.95541
669.54        58.16973
669.96        58.33425
670.39        58.39143
670.82        58.41039
671.24         58.6607
671.67        59.08429
672.09        59.26942
672.52        59.24868
672.94        59.35832
673.37        59.61318
673.80        59.80569
674.22        59.93104
674.65        60.04087
675.07        60.15007
675.50        60.22935
675.92        60.30266
676.35        60.39872
676.77        60.53073
677.20        60.69627
677.62        60.88319
678.05        61.04997
678.47        61.18503
678.90        61.30779
679.32        61.43464
679.75        61.58994
680.17        61.77368
680.60        62.02026
681.02        62.27929
681.45        62.36988
681.87        62.33722
682.30         62.3722
682.72        62.50913
683.15        62.71646
683.57        62.95473
684.00        63.02803
684.42        62.98039
684.85        63.08919
685.27        63.35615
685.70        63.60974
686.12        63.80684
686.54         63.9884
686.97        64.12513
687.39        64.21137
687.82        64.26424
688.24         64.1907
688.66        64.31324
689.09        64.35022
689.51        64.41502
689.94        64.50924
690.36        64.63786
690.78        64.77604
691.21        64.90581
691.63        65.00907
692.06        65.08109
692.48        65.11819
692.90        65.14294
693.33        65.18074
693.75        65.24244
694.17        65.34348
694.60         65.4567
695.02        65.52525
695.44         65.5575
695.87        65.64139
696.29        65.76675
696.71         65.9353
697.14        66.12219
697.56        66.16737
697.98        66.04308
698.41        66.45694
698.83        66.37411
699.25          66.564
699.68        66.69934
700.10        66.86172
700.52        67.02988
700.94        67.18376
701.37        67.28993
701.79        67.39283
702.21        67.33145
702.64        67.25239
703.06        67.15324
703.48        67.11979
703.90        67.17957
704.33        67.30893
704.75        67.48692
705.17        67.65038
705.59        67.77551
706.01        67.84837
706.44        67.89428
706.86         68.0671
707.28        68.17941
707.70        68.39645
708.12         68.6084
708.55        68.63852
708.97        68.50985
709.39        68.45877
709.81        68.52299
710.23        68.58078
710.66        68.63881
711.08        68.80923
711.50        69.02449
711.92        69.14481
712.34        69.15144
712.76        69.08398
713.19        68.99189
713.61        69.00684
714.03        69.13451
714.45        69.33053
714.87        69.53982
715.29        69.68045
715.71        69.73106
716.13        69.72423
716.56        69.66315
716.98        69.62897
717.40        69.62132
717.82        69.62373
718.24        69.65843
718.66        69.76378
719.08        69.93706
719.50        70.16276
719.92        70.38386
720.34        70.51244
720.76        70.53031
721.19        70.43647
721.61        70.29495
722.03        70.23874
722.45         70.2707
722.87        70.24038
723.29        70.17877
723.71        70.24449
724.13        70.44144
724.55        70.69627
724.97        70.94343
725.39        71.06864
725.81        71.10902
726.23        71.03336
726.65        70.93085
727.07        70.92122
727.49        71.03174
727.91         71.2192
728.33         71.4228
728.75         71.5459
729.17        71.55608
729.59        71.48208
730.01        71.35847
730.43        71.24934
730.85        71.18085
731.27        71.12984
731.69        71.11769
732.10        71.18522
732.52        71.30944
732.94        71.52213
733.36        71.78611
733.78        71.88674
734.20        71.78344
734.62          72.116
735.04        71.73587
735.46        71.85073
735.88        72.07037
736.30        71.76872
736.72        71.40205
737.13        71.46904
737.55        71.97293
737.97        72.32791
738.39         72.3994
738.81        72.06525
739.23        71.53883
739.65        71.67905
740.06        72.34338
740.48        72.68793
740.90        72.67751
741.32        72.41006
741.74        72.78749
742.16        72.78947
742.57        72.68565
742.99        72.54106
743.41        72.40828
743.83        72.32127
744.25        72.28805
744.67        72.28942
745.08        72.35227
745.50        72.48318
745.92        72.68166
746.34        72.93549
746.75        73.15755
747.17        73.20545
747.59        73.06104
748.01        72.76762
748.42         72.4539
748.84        72.32558
749.26        72.43436
749.68        72.71785
750.09        73.05784
750.51        73.27904
750.93        73.32828
751.35        73.28316
751.76         73.1995
752.18        73.12159
752.60        73.07794
753.01        73.08953
753.43        73.13007
753.85        73.12344
754.27        73.05201
754.68        73.21853
755.10        73.15572
755.52        73.29585
755.93         73.4938
756.35        73.73785
756.77        73.95822
757.18        74.13676
757.60         74.3093
758.02        74.24939
758.43         73.9383
758.85        74.28283
759.26        74.52096
759.68        73.78941
760.10        74.28155
760.51        73.86174
760.93         74.2722
761.34        73.72464
761.76         74.3447
762.18        74.26812
762.59        74.10519
763.01        74.16236
763.42        74.47086
763.84        74.60133
764.26        74.53934
764.67        74.48605
765.09        74.50128
765.50        74.52661
765.92        74.56761
766.33        74.54939
766.75        74.44415
767.16        74.37814
767.58        74.37143
768.00        74.61569
768.41        75.04247
768.83        75.25744
769.24        75.22755
769.66        75.14209
770.07         75.0442
770.49        75.07999
770.90        75.23291
771.32        75.22078
771.73        75.03956
772.15        74.96327
772.56        75.02997
772.97        74.93424
773.39        74.62749
773.80        75.02798
774.22        74.84788
774.63        74.95603
775.05        74.96115
775.46         75.0667
775.88         75.2338
776.29        75.42478
776.70        75.60204
777.12        75.71656
777.53        75.77582
777.95        75.76231
778.36        75.73598
778.77         75.7767
779.19        75.90837
779.60        76.12306
780.02        76.34229
780.43        76.50146
780.84        76.56278
781.26        76.43967
781.67        76.29465
782.09        76.47958
782.50        76.74718
782.91        77.28171
783.33        76.15677
783.74        75.99082
784.15        76.23763
784.57        76.39863
784.98        76.41724
785.39        76.44127
785.81        76.49341
786.22        76.61333
786.63         76.7812
787.04        76.91135
787.46        77.00294
787.87        77.08176
788.28         77.1719
788.70        77.26701
789.11        77.35396
789.52        77.48474
789.93        77.61159
790.35        77.60239
790.76        77.48369
791.17        77.31779
791.58        77.21252
792.00        77.25238
792.41        77.42496
792.82        77.76497
793.23        78.11915
793.65         77.8869
794.06        77.30495
794.47         77.4876
794.88        78.25236
795.29        78.67141
795.71        78.19417
796.12        77.95479
796.53        77.88732
796.94        77.76044
797.35        77.63064
797.76        77.69216
798.18        77.88383
798.59        78.04057
799.00        78.16518
799.41        77.97686
799.82        77.91599
800.23        78.24796
800.64         78.0911
801.06        78.21913
801.47        78.33363
801.88        78.38786
802.29        78.35677
802.70        78.27194
803.11        78.18227
803.52        78.13917
803.93        78.17213
804.34        78.26656
804.75        78.39063
805.17         78.5288
805.58        78.70609
805.99        78.75137
806.40         78.6997
806.81        78.98797
807.22        79.42478
807.63        79.15261
808.04        78.34093
808.45        78.05457
808.86        78.40308
809.27        78.80939
809.68        79.10687
810.09        79.25372
810.50        79.18692
810.91        78.93404
811.32        78.61264
811.73        78.43471
812.14        78.46432
812.55        78.58746
812.96        78.76981
813.37        79.06269
813.78        79.36881
814.19         79.4519
814.60        79.31711
815.01        79.19756
815.42        79.11825
815.83        78.93001
816.24        78.70924
816.65        78.68947
817.05        78.91436
817.46        79.26924
817.87        79.67369
818.28         79.9489
818.69        80.04649
819.10        80.02167
819.51        79.90487
819.92        79.75655
820.33        79.61715
820.74        79.46533
821.14        79.34503
821.55         79.3616
821.96        79.50622
822.37        79.76672
822.78        80.04955
823.19        80.17324
823.60        80.08848
824.00        79.86817
824.41        79.56554
824.82        79.37299
825.23        79.34615
825.64        79.43782
826.04        79.62774
826.45        79.83512
826.86         80.0336
827.27        80.23734
827.68        80.41988
828.08        80.56609
828.49        80.59743
828.90        80.55213
829.31        80.45237
829.72        80.34975
830.12        80.28899
830.53        80.21249
830.94        80.15019
831.35        80.10542
831.75        80.10566
832.16        80.11599
832.57        80.13861
832.97        80.13132
833.38        80.08054
833.79        80.00317
834.20        79.95564
834.60        80.02155
835.01        80.22327
835.42         80.5201
835.82        80.85439
836.23        81.03848
836.64        81.05035
837.04        80.95312
837.45        80.76804
837.86        80.63881
838.26        80.62009
838.67        80.66391
839.08          80.747
839.48        80.80896
839.89        80.83155
840.29        80.83971
840.70        80.86893
841.11        80.97388
841.51        81.17947
841.92        81.41904
842.33        81.65075
842.73        81.80505
843.14        81.80827
843.54        81.71268
843.95        81.56104
844.35        81.44965
844.76        81.39553
845.17        81.37946
845.57        81.38155
845.98        81.32236
846.38        81.21331
846.79        81.05795
847.19        80.90319
847.60        80.76128
848.00        80.66876
848.41         80.5811
848.81        80.53184
849.22        80.49554
849.62         80.5032
850.03        80.53839
850.43         80.5955
850.84        80.57264
851.24        80.51347
851.65        80.38078
852.05        80.31969
852.46        80.45611
852.86        80.79479
853.27        81.26821
853.67        81.67609
854.07         81.9566
854.48        82.04532
854.88        82.02981
855.29        81.81696
855.69        81.47981
856.10        80.96413
856.50        80.35739
856.90        79.78252
857.31        79.46574
857.71        79.50259
858.12        79.79763
858.52        80.20419
858.92        80.33152
859.33         80.0647
859.73         79.5358
860.13        78.92548
860.54        78.59921
860.94        78.70105
861.34        79.06606
861.75        79.47311
862.15        79.63993
862.55         79.4633
862.96        79.07573
863.36        78.57292
863.76        78.09237
864.17        77.69857
864.57        77.34736
864.97        77.11987
865.38        77.13261
865.78        77.42522
866.18        77.94828
866.58        78.45818
866.99        78.52345
867.39        78.08401
867.79         77.2535
868.19        76.33321
868.60        75.73084
869.00        75.54825
869.40        75.71183
869.80        76.09423
870.21         76.4543
870.61        76.74721
871.01        76.94582
871.41        77.10172
871.81        77.29346
872.22        77.51126
872.62        77.76736
873.02        77.93828
873.42        77.81631
873.82        77.39279
874.22        76.77451
874.63        76.26483
875.03        76.25436
875.43        76.80337
875.83        77.76776
876.23        78.84036
876.63         79.5029
877.03        79.58375
877.44         79.1999
877.84         78.5572
878.24        77.98534
878.64        77.61683
879.04         77.3774
879.44        77.19627
879.84        76.95936
880.24         76.6487
880.64        76.33652
881.04        76.11218
881.44          76.105
881.84        76.33426
882.24        76.71653
882.65        77.12215
883.05        77.45453
883.45        77.61094
883.85        77.63005
884.25        77.50947
884.65         77.2503
885.05        76.88604
885.45        76.42901
885.85        75.99682
886.25        75.79821
886.65        75.88448
887.05        76.19965
887.45        76.60943
887.85        76.89523
888.25        76.99105
888.65        76.94849
889.04        76.81721
889.44        76.72938
889.84        76.70618
890.24        76.69839
890.64        76.68509
891.04        76.64487
891.44        76.57306
891.84        76.49988
892.24        76.42004
892.64        76.31073
893.04        76.18266
893.44        76.05211
893.83         75.9896
894.23        76.04153
894.63        76.23431
895.03        76.52352
895.43        76.85303
895.83        77.12714
896.23        77.31144
896.63        77.44066
897.02        77.48888
897.42        77.46642
897.82        77.37912
898.22        77.23155
898.62        77.12196
899.01         77.2314
899.41        77.55809
899.81        78.04413
900.21        78.53879
900.61         78.7897
901.00        78.71922
901.40        78.42862
901.80        78.00199
902.20        77.58614
902.59         77.2646
902.99        76.99799
903.39        76.84366
903.79         76.8786
904.18        77.08932
904.58        77.44697
904.98        77.85572
905.38        78.17841
905.77        78.36265
906.17         78.4398
906.57        78.40607
906.96        78.29243
907.36        78.09941
907.76        77.85313
908.15        77.61423
908.55        77.40709
908.95        77.28732
909.34         77.2319
909.74        77.29363
910.14        77.48363
910.53        77.78506
910.93        78.15636
911.33        78.49123
911.72        78.61117
912.12        78.46854
912.52        78.14991
912.91         77.7501
913.31        77.44292
913.70        77.26997
914.10        77.17503
914.49        77.19653
914.89        77.32545
915.29        77.55648
915.68        77.87281
916.08        78.17876
916.47        78.31683
916.87        78.27277
917.26        78.07377
917.66         77.8073
918.05        77.58418
918.45        77.43859
918.84        77.36278
919.24        77.33988
919.64        77.42463
920.03         77.6254
920.42         77.9237
920.82        78.23166
921.21        78.39736
921.61        78.37063
922.00        78.18998
922.40        77.97045
922.79        78.00629
923.19        78.32189
923.58        78.87832
923.98         79.4135
924.37        79.58737
924.77        79.32586
925.16        78.71308
925.55        78.05785
925.95        77.88421
926.34        78.31713
926.74        79.17532
927.13        80.10548
927.52        80.45103
927.92        80.09518
928.31        79.23273
928.70        78.26194
929.10        77.77829
929.49        77.92905
929.89        78.50375
930.28          79.255
930.67        79.61668
931.07        79.41606
931.46        78.88196
931.85        78.23729
932.24        77.85592
932.64        77.83704
933.03        78.02778
933.42        78.33985
933.82        78.64135
934.21        78.87301
934.60        79.10138
934.99        79.25314
935.39         79.1701
935.78        78.87511
936.17        78.37627
936.56        77.87891
936.96        77.73744
937.35        78.07307
937.74        78.74549
938.13        79.47565
938.53        79.85326
938.92        79.78947
939.31        79.38033
939.70        78.84712
940.09        78.58458
940.49        78.67713
940.88        79.03066
941.27        79.40013
941.66        79.42111
942.05        79.03054
942.44        78.38566
942.84        77.72638
943.23        77.37408
943.62        77.45937
944.01        77.87571
944.40        78.49496
944.79        79.08463
945.18        79.51758
945.57        79.81219
945.97        79.95015
946.36        79.99325
946.75        79.92131
947.14        79.70026
947.53        79.30715
947.92         78.7296
948.31        78.02303
948.70        77.28703
949.09        76.61752
949.48        76.12265
949.87        75.85339
950.26         75.7922
950.65        75.97939
951.04        76.47316
951.43        77.22849
951.82        78.16623
952.21        79.09084
952.60        79.67103
952.99        79.79832
953.38        79.56677
953.77        79.07745
954.16        78.50598
954.55        77.95038
954.94        77.38433
955.33        76.94381
955.72        76.84743
956.11        77.12328
956.50        77.72335
956.89        78.42667
957.28        78.80647
957.66        78.76339
958.05        78.40008
958.44        77.87626
958.83        77.46447
959.22         77.2579
959.61        77.13228
960.00        77.14816
960.39        77.41058
960.78        77.88396
961.16        78.58113
961.55         79.1307
961.94        79.00034
962.33        78.10604
962.72        76.67506
963.11        75.16656
963.49        74.24866
963.88        74.09138
964.27        74.52568
964.66         75.3277
965.04        76.08965
965.43        76.54446
965.82        76.82877
966.21        77.02282
966.60        77.27653
966.98        77.63146
967.37        77.94096
967.76           78.12
968.15        78.02931
968.53        77.65827
968.92          77.108
969.31        76.47738
969.69         75.8559
970.08        75.30654
970.47        74.86369
970.86        74.69446
971.24        75.08125
971.63        75.95596
972.02        77.15327
972.40        78.44576
972.79         79.4202
973.17        80.05848
973.56        80.38126
973.95        80.41799
974.33        80.19581
974.72        79.75718
975.11        79.11112
975.49        78.39117
975.88        77.85764
976.26        77.60796
976.65        77.58433
977.04        77.71426
977.42        77.81496
977.81        77.75403
978.19        77.56666
978.58        77.34308
978.96        77.19933
979.35        77.13557
979.74        77.14725
980.12        77.18207
980.51        76.92756
980.89        76.46109
981.28        75.80618
981.66        75.23167
982.05        75.22401
982.43        75.87482
982.82        76.95473
983.20        78.19165
983.59        79.00393
983.97          79.333
984.35        79.28381
984.74        78.94009
985.12        78.48302
985.51        78.01494
985.89        77.50893
986.28        77.12068
986.66        77.14204
987.04         77.5588
987.43        78.28072
987.81        79.04689
988.20        79.27383
988.58        78.87828
988.96         78.0416
989.35        76.98318
989.73        76.14739
990.12        75.62899
990.50         75.2737
990.88        75.19662
991.27        75.60265
991.65        76.43291
992.03        77.60598
992.42        78.53414
992.80        78.72004
993.18        78.01909
993.56        76.50267
993.95        74.68725
994.33        73.86177
994.71        74.59625
995.10        76.22359
995.48         78.0174
995.86        79.20908
996.24         79.7206
996.63        79.74556
997.01        79.43002
997.39        78.91169
997.77        78.35046
998.15        77.76879
998.54        77.15618
998.92        76.50146
999.30        75.79836
999.68        75.06778
1000.06        74.63015
1000.45        74.95084
1000.83         76.1201
1001.21        77.86082
1001.59        79.48599
1001.97        80.00763
1002.35         79.2234
1002.73        77.35845
1003.12         74.9539
1003.50        73.19135
1003.88        72.64734
1004.26        72.91111
1004.64        73.63403
1005.02        74.33598
1005.40        74.86594
1005.78        75.49008
1006.16        75.89817
1006.54        75.50508
1006.92        74.25993
1007.30        72.24825
1007.69        70.40475
1008.07        70.21867
1008.45        72.01122
1008.83        75.25329
1009.21        78.68436
1009.59        80.49846
1009.97         80.2461
1010.35        78.23856
1010.73        75.25762
1011.11        73.41562
1011.49        73.76755
1011.86        75.78342
1012.24        78.22648
1012.62         79.6405
1013.00        79.69607
1013.38        78.92526
1013.76        77.87089
1014.14        77.35249
1014.52        77.67169
1014.90        78.56775
1015.28        79.70143
1015.66        80.48027
1016.04        80.61689
1016.41        80.30085
1016.79        79.72765
1017.17        79.53612
1017.55        79.82817
1017.93        80.50707
1018.31        81.00362
1018.69         80.3711
1019.06        78.49481
1019.44         75.6194
1019.82        72.80579
1020.20         72.2547
1020.58        74.49762
1020.95        78.42691
1021.33        82.62247
1021.71        85.33631
1022.09        86.18722
1022.46        85.65512
1022.84        83.94716
1023.22        81.26137
1023.60        77.77261
1023.97        73.12716
1024.35        68.03307
1024.73        64.04998
