SpectraSmart Spectrum 2.9.0.0
--------- Device Information -----------
Spectrum Name :  反射率_0
Saving Time :  2024/04/27 22:41:00
Spectro-Module Model Name : SE2030-DUVN
Spectro-Module Serial Number : OS361AC55029948
Wavelength Start : 200
Wavelength End : 1025
Wavelength Unit : Wavelength(nm)
Spectrum Unit : Reflectance(%)
-----------Spectrum Setting ------------
Integration Time : 20ms
Average : 10
Boxcar : 0
Background removal :  enabled
linearity correction :  enabled
SC :  disabled
Intensity correction :  disabled
DWT denoise :  enabled
savitzky-golay :  disabled
FFT :  disabled
Running average :  disabled
Kalman :  disabled
High pass :  disabled
---------------BEGIN--------------------
Wavelength(nm)             Reflectance(%)
200.29               0
200.75        9.222813
201.21        44.55581
201.67        73.45282
202.13        84.80142
202.58        84.38272
203.04        79.10635
203.50        72.82651
203.96        70.44915
204.42         72.4155
204.88        75.89997
205.34        79.04042
205.80        80.53165
206.26        80.02122
206.72         77.3438
207.18        71.84521
207.64        65.66412
208.10        63.04203
208.55        64.34917
209.01        64.67157
209.47        61.09585
209.93        51.34313
210.39        25.82081
210.85       -49.56208
211.31       -131.2496
211.77       -14.72081
212.23        56.01799
212.69        79.81303
213.14        86.46863
213.60        84.93212
214.06        77.02958
214.52        61.00887
214.98         47.0406
215.44        48.84866
215.90        57.43324
216.36        65.73485
216.81        71.60361
217.27         75.7897
217.73        79.94032
218.19        83.20312
218.65         83.4734
219.11        80.27451
219.57        73.70474
220.02        65.68982
220.48        62.55127
220.94        66.00841
221.40        73.36848
221.86         81.0669
222.32        85.73079
222.77        87.08682
223.23        86.36079
223.69        84.63203
224.15        82.83021
224.61        81.13283
225.06        79.26377
225.52        76.91654
225.98        73.71098
226.44        70.45193
226.90        67.67128
227.36        66.11692
227.81        66.24523
228.27        67.79199
228.73         70.4258
229.19        72.95715
229.65        72.98862
230.10        69.88613
230.56        64.94465
231.02        59.86966
231.48        57.05882
231.93        56.81001
232.39        58.26382
232.85        60.59774
233.31        62.76894
233.77        64.37302
234.22        65.79182
234.68        66.70996
235.14        66.70277
235.60         65.7702
236.05        63.80106
236.51        61.52411
236.97         60.7691
237.43        62.21926
237.88        65.59785
238.34        69.16464
238.80        71.17994
239.26        71.17303
239.71        68.97557
240.17        64.61771
240.63        62.26546
241.08        65.53551
241.54        71.38478
242.00        75.91939
242.46        77.45963
242.91        76.38441
243.37         71.8505
243.83        62.38092
244.28        54.16653
244.74        62.64925
245.20        81.49064
245.66        93.94774
246.11        96.38856
246.57        91.10737
247.03        77.12914
247.48        52.95011
247.94        30.80704
248.40        28.08878
248.85        39.65224
249.31        55.99978
249.77         68.4226
250.22        75.44865
250.68        79.74299
251.14         81.9947
251.59        82.63863
252.05        82.06944
252.51        79.37836
252.96        73.92381
253.42        68.17131
253.88        64.75653
254.33         64.1499
254.79        64.68549
255.25        63.98074
255.70        62.11021
256.16         60.3623
256.62        59.76418
257.07        61.38853
257.53        64.67458
257.99        68.00536
258.44        70.11234
258.90        70.40054
259.35        68.89564
259.81        66.78384
260.27        64.45656
260.72        62.41524
261.18        61.13421
261.63        60.09407
262.09        59.46436
262.55        59.03342
263.00        58.63584
263.46        58.44367
263.91        58.21758
264.37        57.99416
264.83        57.68066
265.28         57.2527
265.74          56.827
266.19        56.32428
266.65        55.83089
267.11         55.2976
267.56        54.72765
268.02        54.23814
268.47        53.79844
268.93        53.41298
269.38        53.02189
269.84        52.56916
270.30        52.02259
270.75        51.37797
271.21        50.67168
271.66        49.90578
272.12        49.11927
272.57        48.29042
273.03        47.43692
273.48        46.48638
273.94        45.52127
274.39         44.5382
274.85        43.68613
275.31        43.06575
275.76        42.63967
276.22        42.37185
276.67        42.10437
277.13        41.74255
277.58        41.19505
278.04        40.57603
278.49        39.82993
278.95         39.0206
279.40        38.12392
279.86        37.20673
280.31        36.34345
280.77        35.78227
281.22        35.49367
281.68        35.46696
282.13        35.47055
282.59        35.25125
283.04        34.74001
283.50        34.03345
283.95        33.32297
284.41        32.96224
284.86        32.97496
285.32        33.25539
285.77        33.52035
286.22         33.4148
286.68        32.90602
287.13        32.09969
287.59        31.27046
288.04        30.74396
288.50        30.62655
288.95         30.7618
289.41        30.99818
289.86        31.05402
290.32        30.88898
290.77        30.59421
291.22         30.2759
291.68        30.07758
292.13        30.02922
292.59        30.08728
293.04        30.22478
293.50        30.43927
293.95        30.70216
294.40        31.03081
294.86        31.38477
295.31        31.68389
295.77        31.92427
296.22         32.1094
296.68        32.30729
297.13        32.60724
297.58         33.0307
298.04        33.54285
298.49        34.07102
298.95        34.52559
299.40        34.87938
299.85         35.1636
300.31         35.4443
300.76        35.78452
301.21        36.20626
301.67        36.68468
302.12        37.13782
302.58        37.49495
303.03        37.72023
303.48        37.85018
303.94         37.9675
304.39        38.14437
304.84        38.40936
305.30        38.73466
305.75        39.02261
306.20        39.17067
306.66        39.17496
307.11         39.0522
307.57         38.9006
308.02        38.80105
308.47        38.79521
308.93        38.85172
309.38        38.91012
309.83        38.90813
310.29        38.83883
310.74        38.71654
311.19         38.5685
311.65        38.42995
312.10        38.29766
312.55        38.16486
313.00        38.04609
313.46        37.96824
313.91        37.92272
314.36        37.90268
314.82        37.86067
315.27        37.71493
315.72        37.45593
316.18        37.12315
316.63        36.76576
317.08        36.48475
317.53        36.30733
317.99        36.19875
318.44        36.13984
318.89        36.08151
319.35        36.00232
319.80         35.9187
320.25        35.81528
320.70        35.67178
321.16        35.48103
321.61        35.25156
322.06        35.01146
322.51        34.81453
322.97        34.67204
323.42        34.58937
323.87        34.52537
324.32        34.41824
324.78        34.24739
325.23        34.03027
325.68        33.81588
326.13        33.69316
326.59        33.66505
327.04        33.72676
327.49        33.77676
327.94        33.66073
328.39        33.34581
328.85        32.87072
329.30        32.36988
329.75        32.05716
330.20        31.99873
330.66        32.12398
331.11        32.33161
331.56        32.39911
332.01        32.26305
332.46        31.98363
332.92        31.64511
333.37        31.43032
333.82        31.38359
334.27        31.44666
334.72        31.55238
335.17        31.59574
335.63         31.5349
336.08         31.4281
336.53        31.29502
336.98        31.17642
337.43        31.09447
337.88        31.03591
338.34        31.00683
338.79        31.02844
339.24        31.09645
339.69        31.20085
340.14        31.31883
340.59        31.41076
341.05        31.46248
341.50        31.48951
341.95        31.47753
342.40        31.41779
342.85        31.31511
343.30        31.16618
343.75         31.0206
344.20        30.95881
344.66        30.99709
345.11        31.11493
345.56        31.23078
346.01         31.2075
346.46         31.0248
346.91        30.73217
347.36        30.44183
347.81        30.32408
348.26        30.41502
348.72        30.65939
349.17        30.95433
349.62        31.13706
350.07        31.15808
350.52        31.05573
350.97        30.90998
351.42         30.8498
351.87        30.90347
352.32        31.02706
352.77        31.12883
353.22        31.07491
353.67        30.84424
354.13        30.50098
354.58        30.13171
355.03          29.921
355.48        29.91277
355.93        30.05592
356.38        30.23665
356.83        30.27717
357.28        30.13577
357.73        29.86711
358.18        29.57295
358.63        29.41108
359.08        29.41234
359.53        29.51602
359.98        29.62549
360.43        29.59502
360.88        29.38965
361.33        29.05729
361.78        28.66723
362.23        28.36225
362.68        28.18653
363.13        28.03991
363.58        27.86164
364.03        27.88867
364.48        27.56449
364.93        27.34566
365.38        27.11143
365.83        26.93131
366.28        26.81418
366.73        26.74645
367.18        26.68662
367.63        26.55814
368.08        26.34753
368.53        26.07629
368.98        25.80567
369.43        25.63239
369.88        25.57789
370.33        25.61505
370.78        25.66879
371.23        25.61879
371.68        25.43341
372.13        25.14156
372.58        24.82763
373.03         24.6293
373.48        24.58043
373.93        24.64498
374.38        24.72155
374.83         24.6504
375.28        24.40166
375.72        24.01822
376.17        23.64416
376.62        23.46132
377.07        23.50094
377.52        23.68604
377.97        23.88999
378.42        23.91763
378.87        23.72655
379.32        23.39644
379.77        23.00909
380.22        22.68405
380.67        22.46075
381.11         22.2975
381.56        22.19624
382.01        22.16223
382.46        22.18305
382.91        22.26218
383.36        22.33536
383.81        22.29817
384.26        22.13194
384.71        21.85967
385.15        21.55675
385.60        21.37951
386.05        21.35152
386.50        21.43805
386.95         21.5551
387.40        21.56913
387.85        21.45784
388.29        21.25712
388.74          21.078
389.19        21.02851
389.64        21.11728
390.09        21.28138
390.54        21.44262
390.98        21.47635
391.43        21.36439
391.88        21.16187
392.33        20.89335
392.78        20.62569
393.23        20.39618
393.67        20.10073
394.12        19.81301
394.57        19.86871
395.02        19.91497
395.47        19.89801
395.91        19.73115
396.36        19.66313
396.81        19.70128
397.26         19.7017
397.71        19.65234
398.15        19.61261
398.60         19.6044
399.05        19.53047
399.50        19.43966
399.95        19.52942
400.39         19.7405
400.84          19.767
401.29        19.59402
401.74        19.39367
402.18        19.22351
402.63        19.13012
403.08        19.10417
403.53         19.0223
403.97        18.88913
404.42        18.81628
404.87        18.80806
405.32         18.8301
405.76        18.87368
406.21        18.89693
406.66        18.90361
407.11        18.99272
407.55        19.10847
408.00        19.04529
408.45        18.82044
408.90        18.53635
409.34        18.30061
409.79        18.33952
410.24        18.57581
410.68        18.64329
411.13        18.50853
411.58        18.38708
412.03        18.32664
412.47        18.31067
412.92        18.34283
413.37        18.42689
413.81        18.51248
414.26        18.54041
414.71        18.49391
415.15        18.39405
415.60        18.27371
416.05        18.20125
416.49        18.19918
416.94        18.24167
417.39        18.30178
417.83        18.33995
418.28        18.33648
418.73        18.29626
419.17        18.23493
419.62        18.17991
420.07        18.14692
420.51        18.13748
420.96        18.12285
421.41        18.08092
421.85        18.00592
422.30        17.82705
422.74        17.63317
423.19        17.77635
423.64        18.18242
424.08        18.36121
424.53         18.2254
424.98        18.15703
425.42        18.16943
425.87        17.91661
426.31        17.51908
426.76        17.54053
427.21        17.89765
427.65        17.93616
428.10        17.67375
428.54        17.58943
428.99        17.68681
429.44        17.87029
429.88        18.01565
430.33        17.71356
430.77        17.16233
431.22        17.11927
431.66        17.56142
432.11        17.90694
432.56        18.05026
433.00        18.15011
433.45        18.05366
433.89        17.67828
434.34        17.37569
434.78        16.55677
435.23        17.30119
435.67        17.89257
436.12        18.08589
436.57        18.09326
437.01        17.82102
437.46        17.67503
437.90        17.76617
438.35        17.97573
438.79        17.71374
439.24        17.66304
439.68        17.66821
440.13        17.68158
440.57        17.68662
441.02        17.81201
441.46        18.00265
441.91        17.86671
442.35        17.52825
442.80        17.69606
443.24        18.22738
443.69        18.18591
444.13        17.63124
444.58        17.41197
445.02         17.5422
445.47         17.5923
445.91        17.53021
446.36        17.52757
446.80        17.57314
447.24        17.60888
447.69        17.64033
448.13        17.72065
448.58        17.82391
449.02        17.85027
449.47        17.80771
449.91        17.79152
450.36        17.81034
450.80         17.8017
451.25        17.77599
451.69        17.77695
452.13        17.80056
452.58        17.81793
453.02        17.81387
453.47        17.77372
453.91        17.69502
454.36        17.61718
454.80        17.53003
455.24        17.39812
455.69        17.26971
456.13        17.16899
456.58        17.13764
457.02        17.30177
457.46         17.5556
457.91         17.5789
458.35        17.44288
458.79        17.37049
459.24        17.39089
459.68        17.34963
460.13        17.27007
460.57        17.16276
461.01        17.11515
461.46        17.13628
461.90         17.1361
462.34        17.15984
462.79        17.46429
463.23        17.57556
463.68        17.57012
464.12        17.53283
464.56         17.4861
465.01        17.48161
465.45        17.45939
465.89        17.32397
466.34        17.14143
466.78        16.99817
467.22        16.89877
467.67        17.20527
468.11        17.14644
468.55        17.15427
468.99        17.03139
469.44        16.99904
469.88        17.05959
470.32        17.07673
470.77        17.05825
471.21        17.07298
471.65        17.12582
472.10        17.20148
472.54        17.26362
472.98        17.28211
473.42        17.25746
473.87        17.15374
474.31         17.0273
474.75        17.12311
475.20        17.39038
475.64        17.47962
476.08        17.37344
476.52        17.38111
476.97        17.51831
477.41        17.44697
477.85         17.3438
478.29        17.45934
478.74        17.35948
479.18        17.23866
479.62        17.53866
480.06        17.62394
480.50        17.67368
480.95        17.68261
481.39        17.62709
481.83        17.85097
482.27        17.81765
482.72        17.67851
483.16        17.84272
483.60        17.84097
484.04        17.81659
484.48        17.86152
484.93        18.11697
485.37        18.03312
485.81         18.3419
486.25        18.82522
486.69        18.40277
487.14        17.87563
487.58        18.86766
488.02        18.71731
488.46        18.86453
488.90        19.16993
489.34        18.45847
489.79        18.19341
490.23        18.71161
490.67        19.07322
491.11        19.36299
491.55        19.38722
491.99         19.2258
492.43        19.26521
492.88        19.52093
493.32        19.70043
493.76        19.76828
494.20         19.8737
494.64        20.03042
495.08        20.13207
495.52        20.19197
495.96        20.41374
496.41        20.77249
496.85        20.72485
497.29        20.40317
497.73        20.56667
498.17        21.12207
498.61        21.36425
499.05        21.22758
499.49        21.14095
499.93        21.18037
500.37        21.26262
500.82        21.36844
501.26        21.51807
501.70         21.7151
502.14        21.51513
502.58        21.70925
503.02        21.75995
503.46        21.81113
503.90        21.88127
504.34         21.9469
504.78        22.03973
505.22        22.14525
505.66        22.21656
506.10        22.26544
506.54        22.37135
506.98        22.54101
507.42        22.63996
507.86        22.81626
508.30        22.88327
508.74        22.88692
509.18        22.83882
509.62        22.77688
510.06        22.75884
510.50        22.79954
510.94        22.88287
511.38        22.98658
511.82        23.07479
512.26        23.13267
512.70        23.16969
513.14        23.18976
513.58          23.189
514.02         23.1708
514.46        23.15487
514.90        23.14655
515.34        23.07435
515.78        23.07668
516.22        23.04699
516.66        23.04403
517.10        23.09218
517.54        23.19111
517.98        23.32613
518.42        23.45457
518.86        23.51217
519.30        23.48344
519.74         23.3871
520.18        23.26176
520.62        23.16906
521.06        23.12863
521.50        23.12726
521.93        23.14556
522.37        23.14183
522.81        23.10872
523.25        23.05702
523.69        23.00794
524.13        22.99285
524.57        23.01426
525.01         23.0568
525.45        23.08782
525.89        23.05785
526.32        22.95589
526.76        22.81011
527.20        22.65213
527.64        22.53595
528.08        22.47592
528.52        22.45068
528.96        22.44918
529.40        22.45319
529.83        22.45075
530.27        22.45204
530.71        22.43265
531.15        22.35401
531.59        22.21636
532.03        22.03354
532.46        21.85487
532.90         21.7732
533.34        21.80326
533.78        21.91775
534.22         22.0624
534.66        22.15336
535.09        22.16604
535.53        22.12661
535.97        22.06611
536.41        22.03849
536.85        22.05797
537.28        22.10737
537.72        22.16035
538.16        22.17334
538.60        22.14124
539.04        22.09074
539.47        22.04662
539.91        22.05634
540.35        22.12404
540.79        22.23704
541.22        22.37303
541.66        22.49817
542.10        22.59893
542.54        22.68458
542.97        22.75699
543.41        22.83354
543.85        22.91501
544.29        22.99624
544.72        23.07515
545.16        23.16673
545.60        23.26647
546.04         23.3748
546.47         23.4881
546.91        23.59391
547.35        23.68893
547.79        23.78793
548.22          23.891
548.66        23.99253
549.10          24.108
549.53        24.31917
549.97        24.59941
550.41        24.82044
550.84        24.96477
551.28        25.10103
551.72        25.23213
552.15        25.33385
552.59        25.41792
553.03        25.48255
553.46        25.54736
553.90        25.66256
554.34         25.8291
554.77         26.0427
555.21        26.25859
555.65        26.40408
556.08        26.43761
556.52        26.44168
556.96        26.44439
557.39        26.52727
557.83        26.68359
558.27        26.78142
558.70        26.81313
559.14        26.86591
559.57        26.93135
560.01        26.99019
560.45        27.03973
560.88        27.05192
561.32        27.08213
561.75        27.21761
562.19        27.43654
562.63        27.63207
563.06        27.75258
563.50        27.73729
563.93        27.62646
564.37        27.61403
564.80        27.71079
565.24        27.83252
565.68        27.95979
566.11        28.08882
566.55        28.21838
566.98        28.36941
567.42         28.5333
567.85        28.61772
568.29        28.67295
568.72        28.77387
569.16        28.91353
569.60        29.12262
570.03        29.42769
570.47        29.42201
570.90        29.42598
571.34        30.14128
571.77        29.97432
572.21        29.94146
572.64        30.22659
573.08        30.15783
573.51        30.57835
573.95        30.69315
574.38        30.68436
574.82        30.73897
575.25        30.83582
575.69        30.81477
576.12        30.75148
576.56        31.08092
576.99        31.10062
577.42        30.95241
577.86        30.94854
578.29        31.10143
578.73        30.99716
579.16        30.97548
579.60        30.81443
580.03        30.71653
580.47        30.71338
580.90        30.51918
581.33        30.43768
581.77        30.64381
582.20        30.32653
582.64        30.00485
583.07        30.05593
583.51        29.97129
583.94        30.01274
584.37         29.9192
584.81        29.70108
585.24        29.57801
585.68        29.62458
586.11        29.24011
586.54        29.32281
586.98        29.26734
587.41        29.16054
587.85        29.06209
588.28         28.9638
588.71        29.02953
589.15        28.91808
589.58        29.00773
590.01        28.96575
590.45        29.04379
590.88        28.45487
591.31        28.39407
591.75         28.6289
592.18        28.65382
592.61        28.51337
593.05        28.83886
593.48        29.13141
593.91        29.00893
594.35        28.99546
594.78        29.22998
595.21        29.35521
595.65        29.39246
596.08        29.25986
596.51        29.43268
596.94        29.72629
597.38        30.06848
597.81        30.41437
598.24        30.31963
598.68        31.07747
599.11        31.10197
599.54        31.37628
599.97         31.6125
600.41        32.05366
600.84         32.4162
601.27        32.72462
601.70        32.75298
602.14        33.09794
602.57         33.5611
603.00        33.94777
603.43        34.39968
603.87        34.95603
604.30        35.22827
604.73        35.55021
605.16        36.04721
605.60        36.50962
606.03        37.05616
606.46        37.50617
606.89         37.9595
607.32        38.09688
607.76        38.80376
608.19        38.87823
608.62        39.21564
609.05        39.54242
609.48        39.83813
609.92         40.0501
610.35        40.57908
610.78        40.89238
611.21        40.74156
611.64        41.26984
612.07        41.46837
612.50        41.70652
612.94        41.99489
613.37        42.38541
613.80        42.52105
614.23         42.9718
614.66        43.31087
615.09        43.66343
615.52        43.97256
615.96        44.26487
616.39        44.22706
616.82        44.59336
617.25        44.75059
617.68        45.00744
618.11        45.09513
618.54        45.13916
618.97        45.47165
619.40        45.98761
619.84        46.50634
620.27        46.48462
620.70        46.56494
621.13         46.5747
621.56        47.02678
621.99        46.78099
622.42          46.949
622.85        46.96823
623.28        47.21433
623.71        47.09356
624.14         46.9466
624.57        47.02066
625.00        47.34472
625.43        46.91914
625.86        46.93795
626.29        47.12199
626.72        46.74051
627.15        46.75836
627.58        46.58942
628.01        46.59443
628.44        46.07905
628.87        45.73098
629.30        45.84853
629.73        45.42946
630.16        44.79751
630.59        44.80536
631.02        44.60756
631.45        44.47504
631.88        44.24204
632.31        43.91209
632.74        43.30626
633.17        42.90062
633.60         42.4299
634.03        42.04248
634.46        41.70742
634.89        41.38507
635.32        40.99427
635.75        40.51648
636.18         40.0111
636.61        39.51001
637.04        39.01333
637.47        38.55894
637.89        38.23581
638.32        38.00266
638.75        37.73482
639.18        37.41762
639.61        37.12215
640.04        36.84213
640.47        36.54538
640.90          36.236
641.33        35.90952
641.76         35.5896
642.18        35.40569
642.61        35.22929
643.04        35.15648
643.47        35.12793
643.90         35.1128
644.33        35.09756
644.76        35.09457
645.18        35.10203
645.61        35.11098
646.04        35.12515
646.47        35.14349
646.90        35.19656
647.33        35.33069
647.75        35.56166
648.18        35.89515
648.61        36.27946
649.04        36.63762
649.47        36.96128
649.89        37.21946
650.32        37.48458
650.75        38.01776
651.18        38.75196
651.61        39.28786
652.03        39.54907
652.46        39.82305
652.89        40.25788
653.32        40.51075
653.74        40.74945
654.17        42.00723
654.60         42.0184
655.03         42.2155
655.46        42.99099
655.88        44.06845
656.31        44.66281
656.74        46.18314
657.16        46.13529
657.59        46.57219
658.02        46.19843
658.45        46.61534
658.87         47.0151
659.30        47.57699
659.73        47.28362
660.15        47.36483
660.58        47.92397
661.01        48.32441
661.44        48.64799
661.86        48.97598
662.29        49.29887
662.72        49.52203
663.14        49.68658
663.57        49.91932
664.00        50.22269
664.42        50.46565
664.85        50.65778
665.27        50.90068
665.70        51.16829
666.13        51.36459
666.55        51.48525
666.98        51.56047
667.41        51.64029
667.83        51.79747
668.26        52.04235
668.69        52.35919
669.11        52.68902
669.54         52.9499
669.96         53.1283
670.39        53.18317
670.82        53.18758
671.24        53.39277
671.67        53.75201
672.09        53.91902
672.52        53.92007
672.94        53.99006
673.37        54.17379
673.80         54.4311
674.22         54.7303
674.65         54.9347
675.07        55.03621
675.50        55.10256
675.92         55.1642
676.35        55.22028
676.77        55.28918
677.20        55.38541
677.62        55.50666
678.05        55.61525
678.47        55.70467
678.90        55.85092
679.32        55.96767
679.75        56.18764
680.17        56.47915
680.60        56.83065
681.02        57.16562
681.45        57.37646
681.87        57.45634
682.30        57.34227
682.72        57.15728
683.15        57.30678
683.57        57.74375
684.00        57.89448
684.42         57.7767
684.85        57.87754
685.27        58.19192
685.70        58.43351
686.12        58.56428
686.54        58.68477
686.97        58.77674
687.39        58.81169
687.82        58.82056
688.24        58.76156
688.66        58.93904
689.09         59.0151
689.51        59.20104
689.94        59.34185
690.36         59.4757
690.78        59.58707
691.21        59.67831
691.63        59.78988
692.06        59.90412
692.48        59.92079
692.90        59.87636
693.33         59.9077
693.75        60.03196
694.17        60.19128
694.60        60.35473
695.02        60.50605
695.44        60.63278
695.87        60.76643
696.29        60.91562
696.71        61.08015
697.14        61.24077
697.56        61.38327
697.98        61.49748
698.41        61.64558
698.83         61.8126
699.25        61.98375
699.68        62.12322
700.10        62.23786
700.52        62.31455
700.94        62.35379
701.37        62.35809
701.79        62.38314
702.21        62.42904
702.64        62.43669
703.06        62.51988
703.48        62.60492
703.90        62.73247
704.33        62.88898
704.75        63.06617
705.17        63.22726
705.59        63.35624
706.01        63.43218
706.44        63.47455
706.86        63.62464
707.28        63.71062
707.70        63.89137
708.12        64.07198
708.55         64.1096
708.97         64.0211
709.39        63.99012
709.81        64.06286
710.23        64.17233
710.66        64.32416
711.08         64.5974
711.50        64.89467
711.92         65.0434
712.34        65.01818
712.76        64.86732
713.19         64.6816
713.61        64.66011
714.03        64.82785
714.45         65.1228
714.87        65.44798
715.29        65.65588
715.71        65.70952
716.13        65.65954
716.56        65.54749
716.98        65.51387
717.40        65.57559
717.82        65.69672
718.24        65.85515
718.66        66.01986
719.08        66.17131
719.50        66.31499
719.92        66.44212
720.34        66.53432
720.76        66.58868
721.19        66.60347
721.61        66.59228
722.03        66.55083
722.45        66.48981
722.87        66.41722
723.29        66.37562
723.71        66.42223
724.13        66.55632
724.55        66.79838
724.97        67.10513
725.39        67.27415
725.81        67.25082
726.23        67.57072
726.65        67.38651
727.07        67.47611
727.49        67.59738
727.91        67.73907
728.33         67.8657
728.75        67.95037
729.17        67.99416
729.59        67.98277
730.01        67.90904
730.43        67.93632
730.85        67.85921
731.27        67.78341
731.69        67.67027
732.10        67.93539
732.52        67.98064
732.94        68.30431
733.36        68.66786
733.78        68.81769
734.20        68.68611
734.62        68.92838
735.04        68.51572
735.46         68.5764
735.88        68.75843
736.30        68.82366
736.72        68.77436
737.13        68.79216
737.55        68.87807
737.97        69.11517
738.39         69.4045
738.81        69.29232
739.23        68.86933
739.65        68.86095
740.06        69.20804
740.48        69.32369
740.90        69.16611
741.32        69.15655
741.74        69.22273
742.16        69.33437
742.57        69.46393
742.99        69.62599
743.41        69.78822
743.83        69.88625
744.25        69.90734
744.67        69.85238
745.08        69.78497
745.50        69.77838
745.92        69.86536
746.34         70.0204
746.75        70.17091
747.17        70.21178
747.59        70.12888
748.01        69.91319
748.42        69.66472
748.84        69.65926
749.26        69.87252
749.68        69.98109
750.09        69.97135
750.51          70.057
750.93        70.23937
751.35        70.45751
751.76        70.66271
752.18        70.74557
752.60        70.69047
753.01        70.56042
753.43        70.41714
753.85        70.34559
754.27        70.36883
754.68        70.57373
755.10        70.87354
755.52        70.86154
755.93        70.64081
756.35        70.83978
756.77        71.34128
757.18        71.59699
757.60        71.62902
758.02        71.38239
758.43        70.87791
758.85         71.6101
759.26        71.68036
759.68        71.18266
760.10        71.09174
760.51        70.54631
760.93        71.37172
761.34        71.04899
761.76        71.58384
762.18        71.63527
762.59        71.70541
763.01        71.72021
763.42        71.74538
763.84        71.71646
764.26         71.6702
764.67        71.68169
765.09        71.78532
765.50        71.86653
765.92        71.92522
766.33         72.0182
766.75         72.0641
767.16         71.9268
767.58        71.65483
768.00        71.69353
768.41         72.0616
768.83        72.33057
769.24        72.40241
769.66        72.48444
770.07        72.52884
770.49        72.27216
770.90        71.88409
771.32        72.01439
771.73        72.56734
772.15        72.81067
772.56        72.72266
772.97        72.61205
773.39        72.55159
773.80        72.78544
774.22        73.18874
774.63        73.22971
775.05        72.89722
775.46        72.78523
775.88        72.89854
776.29         72.9258
776.70        72.85971
777.12        72.86937
777.53        72.98062
777.95        73.12479
778.36        73.28104
778.77        73.39418
779.19        73.44798
779.60        73.47264
780.02        73.48112
780.43        73.51099
780.84        73.54981
781.26        73.60514
781.67        73.73938
782.09        73.82076
782.50        73.73399
782.91        74.38703
783.33         73.8654
783.74        73.95455
784.15        74.07064
784.57         74.1452
784.98        74.20833
785.39         74.2117
785.81        74.56905
786.22        74.65334
786.63        74.60201
787.04         74.6273
787.46        74.75401
787.87        74.84776
788.28        74.87815
788.70        74.89399
789.11        74.88664
789.52        74.74977
789.93        74.58171
790.35        74.79346
790.76        75.29195
791.17        75.38258
791.58        75.08881
792.00        74.95285
792.41        74.99905
792.82        75.05594
793.23        75.09647
793.65        74.76476
794.06        74.30064
794.47        74.77641
794.88        75.90814
795.29        76.16044
795.71        75.92984
796.12        75.41724
796.53        74.97909
796.94        74.95608
797.35        75.33855
797.76         75.5062
798.18        75.40353
798.59        75.46365
799.00        75.67466
799.41        75.73853
799.82        75.64742
800.23        75.56842
800.64        75.51915
801.06        75.42274
801.47        75.34868
801.88        75.33807
802.29        75.40166
802.70        75.53962
803.11        75.70874
803.52         75.8168
803.93        75.84136
804.34        75.82205
804.75         75.8062
805.17        75.82355
805.58        75.94544
805.99        76.19919
806.40        76.50269
806.81        76.69112
807.22        76.68153
807.63        76.41705
808.04        76.01465
808.45        75.80165
808.86        75.84846
809.27        76.00502
809.68        76.19182
810.09         76.3238
810.50        76.35472
810.91        76.30608
811.32        76.22991
811.73        76.20298
812.14        76.24512
812.55        76.35444
812.96        76.47197
813.37         76.4405
813.78        76.27255
814.19        76.14994
814.60        76.11709
815.01        76.11325
815.42         76.1544
815.83        76.29678
816.24        76.51449
816.65        76.71715
817.05        76.86996
817.46        76.94206
817.87        76.97226
818.28        76.97406
818.69        76.96336
819.10        76.94551
819.51        76.89709
819.92        76.83132
820.33        76.77009
820.74        76.57686
821.14        76.35254
821.55        76.63512
821.96        77.26991
822.37        77.40723
822.78        77.06177
823.19        77.02814
823.60        77.35206
824.00        77.56546
824.41        77.57523
824.82        77.57783
825.23        77.57487
825.64        77.51467
826.04        77.47189
826.45        77.53024
826.86        77.70994
827.27        77.98502
827.68        78.25885
828.08        78.39251
828.49        78.28034
828.90        78.01585
829.31        77.68447
829.72        77.43173
830.12        77.33575
830.53         77.3126
830.94        77.36275
831.35        77.44427
831.75        77.55916
832.16        77.67904
832.57        77.80319
832.97        77.88332
833.38        77.90279
833.79        77.87699
834.20        77.84553
834.60        77.87452
835.01        77.98876
835.42        78.14996
835.82        78.35722
836.23        78.52138
836.64        78.63832
837.04        78.74773
837.45        78.77078
837.86        78.68327
838.26         78.5042
838.67        78.23577
839.08        77.97691
839.48        77.86977
839.89         77.9505
840.29        78.18459
840.70        78.49701
841.11        78.76522
841.51        78.96499
841.92        79.08086
842.33        79.15379
842.73         79.2522
843.14        79.33678
843.54        79.40401
843.95         79.4196
844.35        79.35999
844.76        79.21408
845.17         79.0123
845.57         78.7883
845.98        78.54939
846.38        78.33721
846.79        78.12522
847.19        77.95958
847.60        77.85291
848.00        77.83031
848.41        77.85912
848.81        77.91692
849.22         77.8839
849.62        77.77755
850.03        77.60443
850.43        77.45403
850.84        77.38617
851.24        77.47494
851.65        77.63683
852.05        77.90771
852.46        78.20977
852.86         78.4864
853.27        78.75223
853.67        78.89368
854.07        78.94872
854.48        78.88019
854.88        78.73095
855.29        78.43472
855.69        78.10924
856.10        77.70818
856.50        77.31808
856.90        76.96951
857.31        76.72735
857.71        76.66024
858.12        76.71822
858.52        76.88135
858.92        76.97806
859.33        76.94702
859.73        76.84579
860.13         76.7429
860.54        76.79509
860.94        77.06371
861.34        77.44388
861.75        77.75338
862.15        77.77999
862.55        77.45626
862.96        76.88564
863.36        76.21451
863.76        75.66962
864.17        75.33433
864.57        75.16626
864.97         75.1516
865.38        75.23946
865.78        75.43858
866.18        75.74086
866.58        76.03832
866.99        76.14673
867.39        76.04765
867.79        75.74157
868.19        75.35977
868.60        75.07188
869.00        74.91816
869.40        74.90368
869.80        74.95339
870.21         74.9341
870.61         74.8877
871.01        74.78806
871.41        74.74821
871.81        74.92875
872.22        75.31829
872.62        75.89785
873.02        76.48288
873.42        76.72166
873.82        76.52921
874.22        76.04208
874.63        75.52606
875.03        75.33118
875.43        75.54559
875.83        76.04632
876.23        76.68575
876.63        77.21711
877.03         77.5286
877.44        77.65951
877.84         77.6332
878.24        77.45797
878.64        77.16489
879.04        76.76974
879.44        76.30908
879.84        75.82886
880.24        75.35672
880.64        74.90958
881.04        74.56097
881.44        74.42017
881.84        74.50931
882.24        74.79114
882.65        75.13516
883.05        75.42345
883.45        75.55434
883.85        75.55267
884.25        75.46941
884.65        75.39633
885.05        75.35987
885.45        75.33046
885.85        75.28764
886.25        75.20283
886.65        75.08412
887.05        74.97268
887.45        74.88775
887.85        74.84935
888.25        74.85246
888.65        74.85889
889.04        74.88647
889.44        75.00854
889.84        75.19688
890.24         75.4348
890.64         75.5785
891.04        75.40115
891.44        74.89968
891.84         74.1886
892.24        73.50214
892.64        73.20618
893.04        73.38522
893.44        73.90913
893.83        74.65437
894.23        75.34645
894.63        75.89316
895.03        76.34254
895.43        76.62448
895.83        76.63657
896.23        76.39137
896.63        75.92316
897.02        75.39104
897.42        75.08562
897.82        75.05759
898.22        75.25892
898.62         75.5715
899.01        75.78902
899.41        75.82558
899.81        75.74801
900.21          75.647
900.61        75.67372
901.00        75.84945
901.40        76.12365
901.80        76.38805
902.20         76.4938
902.59        76.42611
902.99        76.24158
903.39         76.0351
903.79        75.94556
904.18        76.00639
904.58        76.16222
904.98        76.39512
905.38        76.69177
905.77         77.0166
906.17        77.38549
906.57        77.68393
906.96        77.73885
907.36        77.49315
907.76        77.01338
908.15        76.48351
908.55        76.14579
908.95        76.10635
909.34        76.27309
909.74        76.55877
910.14        76.75238
910.53        76.79824
910.93        76.74992
911.33        76.63751
911.72        76.51224
912.12        76.38596
912.52        76.24085
912.91        76.10364
913.31        76.05811
913.70        76.10552
914.10        76.22882
914.49        76.38179
914.89        76.40189
915.29        76.27675
915.68        76.04625
916.08        75.81738
916.47        75.75603
916.87        75.91197
917.26         76.2086
917.66        76.55595
918.05        76.77619
918.45        76.81389
918.84        76.74547
919.24        76.61128
919.64        76.56474
920.03        76.66302
920.42        76.85175
920.82        77.07611
921.21        77.24397
921.61        77.31516
922.00        77.33036
922.40        77.34753
922.79        77.54381
923.19        77.90249
923.58        78.39503
923.98        78.81818
924.37        78.93324
924.77        78.68048
925.16        78.10885
925.55        77.44507
925.95         77.0769
926.34        77.11658
926.74        77.46215
927.13         77.8771
927.52        77.87607
927.92        77.39394
928.31         76.5751
928.70        75.77264
929.10        75.51228
929.49        75.89779
929.89        76.72223
930.28        77.69095
930.67        78.16093
931.07        77.93355
931.46         77.2467
931.85        76.36418
932.24         75.7318
932.64        75.49101
933.03        75.50411
933.42        75.69665
933.82        75.95041
934.21        76.20916
934.60         76.5288
934.99        76.86662
935.39        77.10531
935.78        77.25497
936.17        77.30805
936.56        77.32193
936.96        77.40901
937.35        77.64201
937.74        77.94188
938.13          78.253
938.53        78.50676
938.92        78.67136
939.31        78.73739
939.70        78.70576
940.09        78.57516
940.49         78.3336
940.88        78.05164
941.27        77.68247
941.66        77.15052
942.05        76.48648
942.44        75.75689
942.84        75.17623
943.23        75.02535
943.62        75.38918
944.01         76.1703
944.40        77.14308
944.79        77.89223
945.18         78.2421
945.57        78.25474
945.97        78.01683
946.36         77.7585
946.75        77.52545
947.14        77.27073
947.53        76.95795
947.92        76.54245
948.31        76.04976
948.70        75.55083
949.09        75.16423
949.48        75.04033
949.87        75.19148
950.26        75.54959
950.65        75.97945
951.04        76.26595
951.43        76.34583
951.82        76.27859
952.21        76.10857
952.60        75.93327
952.99        75.79985
953.38        75.66325
953.77        75.57834
954.16        75.63556
954.55        75.82316
954.94        76.11105
955.33        76.35203
955.72        76.29225
956.11        75.87512
956.50         75.1804
956.89        74.36617
957.28          73.717
957.66        73.38248
958.05        73.29912
958.44        73.41564
958.83        73.62448
959.22        73.85679
959.61        74.09013
960.00        74.34796
960.39        74.66741
960.78        75.02729
961.16        75.43925
961.55        75.63338
961.94        75.29359
962.33        74.40724
962.72        73.14194
963.11        71.93229
963.49        71.40121
963.88        71.67468
964.27        72.58886
964.66        73.78844
965.04        74.62569
965.43        74.78638
965.82        74.48808
966.21        73.99751
966.60        73.74574
966.98        73.85849
967.37        74.14569
967.76        74.47016
968.15        74.57141
968.53        74.38525
968.92        74.04877
969.31        73.66801
969.69        73.35313
970.08        73.15362
970.47        73.04275
970.86        73.13813
971.24        73.65726
971.63        74.51382
972.02        75.59508
972.40        76.68084
972.79        77.34427
973.17        77.60544
973.56        77.51866
973.95        77.23685
974.33        77.00963
974.72        76.91473
975.11        76.84262
975.49        76.80125
975.88        76.83195
976.26         76.9391
976.65        77.15444
977.04        77.26293
977.42        76.86534
977.81        75.84311
978.19        74.26335
978.58        72.74737
978.96        72.33294
979.35         73.2415
979.74        75.24259
980.12        77.49046
980.51        78.38508
980.89        77.66148
981.28        75.60727
981.66        73.22504
982.05        72.38799
982.43        73.58822
982.82        76.15874
983.20        78.98756
983.59        80.22459
983.97        79.52264
984.35         77.4088
984.74        74.70785
985.12        72.87579
985.51        72.43098
985.89        72.95499
986.28        73.96034
986.66         74.8326
987.04        75.33224
987.43        75.63268
987.81        75.89542
988.20        76.24496
988.58        76.74563
988.96        77.27168
989.35        77.53725
989.73        77.25679
990.12        76.33059
990.50        74.79877
990.88        73.12455
991.27        72.38251
991.65        72.93878
992.03        74.45795
992.42        76.03018
992.80        76.77828
993.18        76.43275
993.56        75.18169
993.95        73.45712
994.33        72.33128
994.71        72.40582
995.10        73.18031
995.48        74.11558
995.86        74.54195
996.24        74.37061
996.63        73.78087
997.01        73.06882
997.39        72.73531
997.77        73.00913
998.15        73.69221
998.54        74.44554
998.92        74.86723
999.30        74.86079
999.68        74.55855
1000.06        74.19243
1000.45        74.12275
1000.83        74.50471
1001.21        75.11362
1001.59        75.72896
1001.97        76.02766
1002.35        75.95966
1002.73        75.73221
1003.12        75.34286
1003.50        74.69339
1003.88        73.95403
1004.26        73.11983
1004.64        72.70318
1005.02        73.39766
1005.40        75.17493
1005.78         77.8102
1006.16        80.38783
1006.54         81.2132
1006.92        79.83538
1007.30        76.79913
1007.69        73.17886
1008.07        70.73408
1008.45        70.13629
1008.83        70.87045
1009.21        72.34364
1009.59        73.68299
1009.97        74.59184
1010.35        75.36963
1010.73        76.00883
1011.11         76.3595
1011.49        76.38111
1011.86        76.07607
1012.24        75.49298
1012.62        75.07083
1013.00        74.94513
1013.38        75.10497
1013.76        75.56237
1014.14        76.30439
1014.52        77.27087
1014.90        78.38314
1015.28        79.57415
1015.66        80.64979
1016.04        81.44421
1016.41        82.09012
1016.79        82.08238
1017.17        81.08688
1017.55        79.21663
1017.93        76.72284
1018.31        74.49635
1018.69        73.91391
1019.06        75.37291
1019.44        78.63139
1019.82        82.83909
1020.20        85.95779
1020.58        87.01972
1020.95        86.38931
1021.33        84.94682
1021.71        83.87186
1022.09        83.41573
1022.46        83.14771
1022.84        82.70943
1023.22        81.36364
1023.60        78.85793
1023.97        75.28697
1024.35        71.31326
1024.73        68.11684
