SpectraSmart Spectrum 2.9.0.0
--------- Device Information -----------
Spectrum Name :  反射率_0
Saving Time :  2024/04/27 23:08:50
Spectro-Module Model Name : SE2030-DUVN
Spectro-Module Serial Number : OS361AC55029948
Wavelength Start : 200
Wavelength End : 1025
Wavelength Unit : Wavelength(nm)
Spectrum Unit : Reflectance(%)
-----------Spectrum Setting ------------
Integration Time : 20ms
Average : 10
Boxcar : 0
Background removal :  enabled
linearity correction :  enabled
SC :  disabled
Intensity correction :  disabled
DWT denoise :  enabled
savitzky-golay :  disabled
FFT :  disabled
Running average :  disabled
Kalman :  disabled
High pass :  disabled
---------------BEGIN--------------------
Wavelength(nm)             Reflectance(%)
200.29               0
200.75       -15.78961
201.21         10.8195
201.67        34.55145
202.13        44.54963
202.58        45.12139
203.04        41.48822
203.50        38.51694
203.96        41.83877
204.42        50.66459
204.88        61.46832
205.34        70.23983
205.80        73.83955
206.26        72.08807
206.72        64.23992
207.18        51.17821
207.64        45.56701
208.10        54.52742
208.55        68.68764
209.01        77.48061
209.47        78.23685
209.93         70.5357
210.39        46.05855
210.85       -32.53658
211.31       -137.5912
211.77       -29.90536
212.23        46.20712
212.69        74.00546
213.14        83.05444
213.60        83.54321
214.06        78.43562
214.52         67.3055
214.98        59.22372
215.44        63.23061
215.90        70.98384
216.36        76.31779
216.81        77.07973
217.27        74.35901
217.73        69.93939
218.19        64.62514
218.65         59.5449
219.11         55.4309
219.57        51.80622
220.02        49.59122
220.48        51.87743
220.94        58.24244
221.40         66.6869
221.86        74.47929
222.32        79.28951
222.77        81.26649
223.23        81.37624
223.69        80.62085
224.15        80.06007
224.61        79.91884
225.06        79.81428
225.52        79.83591
225.98        79.63834
226.44        79.28522
226.90        79.04825
227.36        78.97565
227.81        78.99448
228.27        79.23532
228.73        79.59491
229.19        80.11905
229.65        80.84498
230.10         81.5766
230.56        82.41958
231.02        83.06525
231.48        83.28867
231.93        82.97906
232.39        82.35388
232.85        81.54865
233.31        80.87656
233.77        80.42746
234.22        80.22327
234.68          79.993
235.14        79.32668
235.60        78.14616
236.05        76.44561
236.51        74.77016
236.97        74.45499
237.43        75.92414
237.88        78.91076
238.34        81.83584
238.80        83.19696
239.26        82.51548
239.71        79.50157
240.17        73.76668
240.63        69.50377
241.08         71.1854
241.54        76.21432
242.00        80.64072
242.46        82.45544
242.91        81.96616
243.37        78.83701
243.83         71.4593
244.28        62.01461
244.74        61.38599
245.20        69.47628
245.66        76.48724
246.11        78.25718
246.57        75.54935
247.03        68.76008
247.48        57.32611
247.94        47.32843
248.40        47.08295
248.85        53.39907
249.31        62.12617
249.77        69.83734
250.22        75.37223
250.68        79.31409
251.14        81.78956
251.59        82.94215
252.05        83.08112
252.51        81.83727
252.96        78.20632
253.42        72.62632
253.88        67.22817
254.33        63.93008
254.79        62.81486
255.25        62.42932
255.70         62.2806
256.16         62.8163
256.62        64.34933
257.07        67.17728
257.53        70.83414
257.99        74.16435
258.44        76.13762
258.90          76.394
259.35        74.96748
259.81        73.00738
260.27        70.90781
260.72        69.18544
261.18        68.30775
261.63        67.68614
262.09        67.47156
262.55        67.38486
263.00        67.24523
263.46        67.26485
263.91        67.18794
264.37        67.07854
264.83        66.83768
265.28        66.43472
265.74        66.01633
266.19         65.4932
266.65        64.97586
267.11        64.41385
267.56        63.81294
268.02        63.30667
268.47        62.85253
268.93        62.43683
269.38        61.99876
269.84        61.48925
270.30        60.86926
270.75        60.14469
271.21        59.29686
271.66        58.23243
272.12        57.00193
272.57        55.62461
273.03         54.2668
273.48        53.07501
273.94         52.1627
274.39        51.42382
274.85         50.8573
275.31        50.33117
275.76        49.76187
276.22        49.21426
276.67        48.59694
277.13        47.93262
277.58         47.1569
278.04        46.34662
278.49        45.46109
278.95        44.60585
279.40        43.74109
279.86        42.93557
280.31        42.17042
280.77        41.56977
281.22        41.08482
281.68        40.75344
282.13        40.45064
282.59        40.09135
283.04        39.61659
283.50         39.0701
283.95        38.51656
284.41        38.13001
284.86        37.90172
285.32        37.80182
285.77        37.66794
286.22        37.32406
286.68        36.76955
287.13        36.04661
287.59        35.33276
288.04        34.79977
288.50        34.53038
288.95        34.42691
289.41        34.42273
289.86        34.35566
290.32        34.20786
290.77        34.00747
291.22        33.80923
291.68        33.68359
292.13        33.63259
292.59        33.64436
293.04        33.67961
293.50        33.71857
293.95         33.7442
294.40        33.78324
294.86        33.86518
295.31        34.01822
295.77        34.26093
296.22        34.57244
296.68        34.94012
297.13        35.31811
297.58        35.69373
298.04        36.06672
298.49        36.44207
298.95        36.85266
299.40        37.29241
299.85        37.75331
300.31        38.21638
300.76        38.61113
301.21        38.93887
301.67        39.23144
302.12        39.50338
302.58        39.82843
303.03        40.19384
303.48        40.58038
303.94        40.99472
304.39        41.39247
304.84        41.77454
305.30        42.15559
305.75        42.46928
306.20        42.66463
306.66        42.75372
307.11        42.72575
307.57        42.68067
308.02        42.70193
308.47        42.82381
308.93        43.01573
309.38        43.18504
309.83        43.22391
310.29        43.12156
310.74        42.90672
311.19        42.64726
311.65        42.44434
312.10        42.31111
312.55        42.22283
313.00        42.16348
313.46        42.11028
313.91         42.0415
314.36        41.96884
314.82        41.86361
315.27        41.67383
315.72        41.39751
316.18        41.05934
316.63        40.69956
317.08        40.40828
317.53        40.20698
317.99        40.06638
318.44        39.96022
318.89        39.82622
319.35        39.64475
319.80        39.43864
320.25        39.21381
320.70        38.98452
321.16        38.75111
321.61        38.51229
322.06        38.27623
322.51        38.06411
322.97        37.87375
323.42        37.71669
323.87        37.56111
324.32        37.36102
324.78         37.1048
325.23        36.81554
325.68        36.53093
326.13        36.32239
326.59        36.19277
327.04        36.14073
327.49        36.10774
327.94        36.00954
328.39        35.81971
328.85        35.55153
329.30        35.25476
329.75        34.99306
330.20        34.79356
330.66        34.62798
331.11        34.49138
331.56         34.3187
332.01        34.09705
332.46        33.84939
332.92        33.60187
333.37        33.43644
333.82        33.35673
334.27        33.32883
334.72         33.3243
335.17        33.29746
335.63        33.22254
336.08        33.14317
336.53        33.01995
336.98        32.80343
337.43        32.50283
337.88        32.13366
338.34        31.81154
338.79        31.73444
339.24        31.93149
339.69        32.33631
340.14        32.78246
340.59        32.99501
341.05        32.90279
341.50         32.5959
341.95        32.18862
342.40        31.87787
342.85        31.72623
343.30        31.66655
343.75        31.67172
344.20        31.69859
344.66        31.72609
345.11        31.77998
345.56        31.81507
346.01        31.74715
346.46        31.56926
346.91        31.29826
347.36        31.03389
347.81        30.93465
348.26        31.02924
348.72        31.27391
349.17         31.5468
349.62        31.65215
350.07        31.54181
350.52        31.26515
350.97        30.95474
351.42        30.82379
351.87         30.9153
352.32        31.15957
352.77        31.40131
353.22        31.40534
353.67        31.12918
354.13        30.67038
354.58        30.16699
355.03        29.88896
355.48        29.90047
355.93        30.11407
356.38        30.38686
356.83        30.49716
357.28         30.3879
357.73        30.13595
358.18        29.83321
358.63        29.61895
359.08        29.53158
359.53        29.51658
359.98        29.52847
360.43        29.50411
360.88        29.42031
361.33        29.29706
361.78        29.13644
362.23        28.97139
362.68        28.81467
363.13        28.59436
363.58        28.29854
364.03        28.24258
364.48        27.89791
364.93        27.69874
365.38         27.4929
365.83         27.3004
366.28        27.12012
366.73        26.95718
367.18        26.81086
367.63        26.66508
368.08         26.5168
368.53        26.36634
368.98        26.21993
369.43        26.08747
369.88        25.97156
370.33        25.87169
370.78        25.77118
371.23        25.64598
371.68        25.48811
372.13        25.29432
372.58        25.09997
373.03        24.96223
373.48        24.89225
373.93        24.88431
374.38        24.86516
374.83        24.71696
375.28        24.42722
375.72        24.02591
376.17        23.65802
376.62        23.50872
377.07        23.60419
377.52        23.86424
377.97        24.14871
378.42        24.23919
378.87        24.08548
379.32         23.7713
379.77        23.38043
380.22        23.03767
380.67          22.788
381.11         22.5909
381.56        22.45831
382.01        22.41233
382.46        22.44327
382.91        22.54802
383.36        22.65481
383.81        22.64587
384.26        22.49718
384.71        22.23671
385.15        21.93204
385.60        21.72804
386.05        21.65069
386.50        21.67015
386.95        21.72673
387.40        21.72552
387.85        21.64826
388.29        21.51505
388.74        21.41031
389.19        21.40269
389.64        21.49532
390.09        21.64286
390.54        21.77944
390.98        21.80087
391.43        21.69611
391.88        21.50732
392.33        21.26924
392.78         21.0652
393.23        20.92795
393.67        20.74513
394.12        20.55325
394.57        20.64476
395.02        20.64632
395.47        20.51709
395.91        20.22094
396.36        20.10418
396.81         20.1923
397.26        20.30566
397.71        20.37557
398.15        20.38052
398.60        20.32914
399.05        20.15603
399.50        19.94706
399.95        19.95073
400.39        20.12062
400.84        20.13129
401.29        19.96597
401.74        19.79748
402.18        19.67768
402.63        19.65222
403.08        19.70174
403.53        19.68015
403.97        19.58338
404.42        19.52897
404.87        19.51484
405.32        19.49909
405.76        19.47689
406.21        19.40936
406.66        19.32673
407.11        19.36956
407.55         19.4892
408.00        19.46932
408.45        19.29807
408.90         19.0262
409.34        18.75252
409.79        18.72716
410.24        18.89892
410.68        18.94025
411.13        18.82719
411.58         18.7594
412.03        18.76631
412.47        18.79776
412.92        18.84414
413.37        18.92192
413.81        18.98011
414.26        18.95796
414.71        18.84212
415.15         18.6514
415.60        18.44064
416.05        18.31875
416.49        18.31785
416.94        18.40377
417.39        18.51524
417.83        18.55625
418.28        18.49528
418.73        18.35389
419.17        18.18497
419.62        18.07672
420.07        18.05955
420.51        18.11473
420.96        18.17945
421.41        18.17989
421.85        18.09815
422.30        17.88048
422.74        17.64179
423.19        17.77057
423.64        18.20026
424.08        18.42737
424.53        18.34226
424.98        18.29491
425.42        18.29045
425.87        17.99395
426.31        17.54364
426.76        17.52828
427.21        17.87134
427.65        17.90991
428.10        17.65799
428.54        17.59121
428.99        17.70628
429.44        17.90099
429.88        18.04363
430.33        17.72016
430.77        17.13194
431.22        17.03169
431.66        17.39491
432.11        17.67947
432.56        17.79531
433.00        17.81798
433.45        17.63186
433.89        17.39631
434.34         17.3693
434.78        16.55881
435.23        17.09043
435.67        17.61082
436.12        17.90105
436.57        17.95305
437.01        17.65207
437.46        17.46887
437.90        17.51036
438.35        17.64279
438.79        17.30515
439.24        17.19346
439.68        17.16286
440.13        17.16665
440.57        17.17761
441.02        17.30409
441.46        17.48812
441.91        17.33678
442.35        16.98638
442.80        17.17944
443.24        17.76337
443.69        17.73731
444.13        17.15623
444.58        16.92013
445.02        17.04268
445.47        17.06119
445.91         16.9563
446.36        16.93421
446.80        16.98801
447.24        17.05312
447.69        17.11542
448.13        17.19613
448.58        17.26517
449.02        17.23572
449.47        17.14246
449.91        17.11943
450.36        17.18021
450.80        17.24694
451.25        17.29874
451.69        17.32982
452.13         17.3266
452.58        17.28171
453.02        17.19969
453.47        17.09665
453.91        16.98225
454.36        16.88301
454.80        16.79865
455.24        16.71005
455.69        16.65895
456.13        16.66336
456.58        16.72853
457.02        16.92318
457.46        17.13679
457.91         17.0747
458.35        16.85057
458.79        16.74657
459.24        16.80062
459.68        16.83628
460.13        16.84647
460.57        16.79519
461.01         16.7544
461.46        16.75245
461.90        16.70167
462.34        16.64598
462.79        16.84217
463.23        16.83264
463.68        16.72932
464.12         16.6715
464.56        16.68632
465.01        16.80337
465.45        16.91694
465.89        16.86275
466.34        16.68997
466.78        16.50278
467.22        16.33904
467.67        16.60506
468.11        16.57325
468.55        16.64265
468.99        16.59494
469.44        16.60351
469.88        16.66152
470.32        16.65238
470.77        16.60497
471.21        16.61875
471.65        16.70669
472.10        16.83943
472.54        16.96681
472.98        17.03924
473.42        17.04899
473.87        16.96557
474.31        16.84538
474.75         16.9311
475.20        17.17567
475.64        17.23666
476.08        17.10133
476.52        17.08068
476.97        17.19139
477.41        17.09848
477.85        16.98448
478.29        17.10727
478.74        17.04168
479.18        16.97615
479.62        17.32102
480.06        17.40938
480.50        17.41476
480.95        17.34859
481.39        17.22745
481.83        17.44473
482.27        17.48629
482.72        17.48178
483.16        17.79596
483.60        17.88069
484.04         17.8517
484.48        17.87592
484.93        18.11897
485.37        17.91521
485.81        18.09615
486.25         18.7476
486.69        18.64795
487.14        18.14014
487.58        19.02624
488.02        18.58836
488.46        18.63304
488.90        18.99159
489.34        18.47301
489.79        18.34256
490.23        18.86673
490.67        19.16469
491.11        19.35435
491.55        19.32283
491.99        19.16753
492.43        19.19729
492.88         19.4358
493.32        19.67254
493.76        19.85072
494.20        20.02903
494.64        20.20875
495.08        20.31415
495.52        20.36768
495.96        20.58568
496.41        20.94798
496.85        20.89976
497.29        20.57999
497.73        20.76022
498.17        21.35024
498.61        21.65239
499.05         21.5733
499.49        21.49168
499.93        21.47981
500.37        21.47594
500.82        21.49579
501.26        21.61372
501.70        21.84546
502.14        21.72255
502.58        22.01213
503.02        22.12405
503.46        22.18828
503.90        22.23905
504.34        22.25893
504.78         22.2914
505.22        22.33091
505.66        22.32737
506.10        22.30927
506.54        22.38294
506.98        22.55991
507.42        22.70123
507.86        22.93349
508.30        23.03178
508.74        23.03099
509.18        22.94954
509.62         22.8449
510.06        22.80782
510.50        22.86173
510.94        22.98271
511.38        23.12565
511.82        23.21832
512.26        23.24114
512.70        23.21771
513.14        23.18537
513.58        23.19318
514.02        23.25318
514.46        23.36238
514.90        23.48935
515.34        23.50311
515.78        23.52595
516.22        23.46602
516.66        23.39989
517.10        23.37951
517.54        23.41883
517.98        23.49983
518.42        23.58455
518.86        23.61615
519.30        23.58146
519.74        23.49979
520.18        23.40997
520.62        23.37092
521.06        23.39656
521.50        23.46878
521.93        23.55284
522.37        23.58439
522.81        23.55074
523.25        23.46849
523.69        23.37229
524.13        23.31666
524.57        23.31163
525.01         23.3361
525.45        23.35435
525.89        23.31122
526.32        23.19282
526.76        23.03074
527.20         22.8543
527.64        22.71169
528.08        22.61926
528.52        22.56146
528.96        22.53215
529.40        22.52127
529.83        22.51917
530.27        22.53023
530.71        22.53672
531.15        22.51042
531.59         22.4484
532.03        22.35955
532.46        22.26398
532.90        22.20905
533.34        22.20215
533.78        22.22975
534.22        22.27737
534.66        22.32263
535.09        22.35387
535.53         22.3805
535.97        22.39777
536.41        22.40111
536.85        22.39282
537.28        22.37782
537.72         22.3632
538.16        22.35787
538.60        22.36882
539.04        22.40038
539.47        22.45273
539.91        22.53915
540.35        22.65072
540.79        22.78316
541.22        22.91751
541.66        23.02483
542.10         23.0967
542.54        23.14379
542.97        23.17151
543.41         23.2034
543.85        23.24568
544.29        23.29657
544.72        23.36373
545.16        23.47476
545.60        23.62476
546.04        23.80693
546.47        24.00106
546.91        24.16892
547.35        24.29691
547.79        24.40271
548.22        24.49365
548.66         24.5767
549.10         24.6736
549.53        24.86847
549.97        25.12913
550.41        25.31668
550.84        25.41518
551.28        25.49923
551.72        25.59174
552.15        25.69805
552.59        25.83161
553.03         25.9771
553.46        26.12141
553.90        26.26667
554.34        26.40351
554.77        26.54238
555.21        26.66514
555.65        26.74353
556.08        26.75075
556.52        26.75975
556.96        26.78204
557.39        26.87386
557.83        27.02168
558.27        27.09976
558.70        27.11555
559.14        27.18007
559.57        27.28531
560.01        27.39886
560.45        27.49512
560.88        27.50887
561.32        27.49203
561.75        27.56072
562.19        27.71051
562.63        27.83502
563.06        27.90385
563.50        27.90289
563.93         27.8595
564.37        27.89982
564.80        28.02436
565.24        28.18126
565.68          28.341
566.11        28.47061
566.55        28.56716
566.98        28.66059
567.42        28.75795
567.85        28.78874
568.29        28.81147
568.72        28.91203
569.16        29.09838
569.60        29.30892
570.03        29.54404
570.47        29.60518
570.90        29.86626
571.34        30.10619
571.77        30.37826
572.21        30.37243
572.64        30.69645
573.08        30.69427
573.51        30.80846
573.95        30.92988
574.38        31.05838
574.82        31.23888
575.25        31.36587
575.69        31.20178
576.12        31.01563
576.56        31.44714
576.99         31.3648
577.42        31.68226
577.86        31.44501
578.29        31.70241
578.73        31.54514
579.16        31.50786
579.60        31.34189
580.03        31.22468
580.47        31.16914
580.90        31.16788
581.33        31.13296
581.77        31.27369
582.20        30.93069
582.64        30.87244
583.07        30.69075
583.51        30.50603
583.94         30.3584
584.37        30.28154
584.81        30.29059
585.24        30.21703
585.68        30.11121
586.11        30.01562
586.54        29.95583
586.98        29.94118
587.41        29.82203
587.85        29.62449
588.28        29.67602
588.71        29.44162
589.15         29.7918
589.58         29.2837
590.01        29.60191
590.45        29.63075
590.88        29.08451
591.31        29.02896
591.75        29.21896
592.18        29.32732
592.61        29.36885
593.05        29.43769
593.48        29.73421
593.91        29.53637
594.35        29.60337
594.78        29.83916
595.21        29.90805
595.65        29.91586
596.08        29.71729
596.51        30.09249
596.94        30.05213
597.38        30.36967
597.81        30.79487
598.24        30.68763
598.68        31.19321
599.11        31.68242
599.54        31.67087
599.97        32.01178
600.41        32.46218
600.84        32.77564
601.27        32.93373
601.70        33.06027
602.14        33.11776
602.57        33.59716
603.00        34.06592
603.43        34.47861
603.87        34.90471
604.30        35.03701
604.73        35.41486
605.16        36.03004
605.60          36.408
606.03        36.93796
606.46         37.3549
606.89        37.61054
607.32        37.86961
607.76        38.22628
608.19        38.39288
608.62        38.62539
609.05        38.85243
609.48         39.1387
609.92        39.45591
610.35        39.72978
610.78        39.93672
611.21        40.10028
611.64        40.58051
612.07        40.82973
612.50        40.94462
612.94        41.16203
613.37        41.53669
613.80        41.52043
614.23        41.84413
614.66        42.08172
615.09        42.43444
615.52        42.67535
615.96        42.78604
616.39        43.09674
616.82         43.2874
617.25        43.37156
617.68        43.65831
618.11        43.72297
618.54          43.754
618.97        43.95811
619.40        44.28268
619.84        44.69818
620.27        44.68565
620.70        44.87722
621.13        44.76672
621.56         45.2027
621.99        45.04098
622.42        44.96489
622.85        45.07828
623.28         45.4198
623.71        45.50228
624.14        45.25482
624.57        45.27991
625.00         45.5294
625.43        45.15282
625.86        45.17302
626.29        45.31223
626.72        44.92886
627.15        44.94859
627.58        44.82615
628.01         44.8973
628.44        44.41554
628.87        44.05774
629.30         44.2297
629.73        43.93794
630.16        43.35279
630.59        43.29288
631.02        43.01205
631.45         42.8161
631.88        42.58866
632.31         42.3477
632.74        41.90544
633.17        41.68044
633.60        41.34631
634.03        41.02633
634.46        40.71014
634.89        40.38255
635.32        40.00536
635.75        39.57335
636.18        39.12725
636.61        38.69424
637.04        38.26975
637.47        37.88729
637.89        37.64216
638.32        37.48012
638.75        37.25223
639.18        36.94101
639.61        36.62161
640.04        36.31907
640.47        36.05391
640.90        35.83808
641.33        35.64893
641.76        35.46789
642.18        35.35441
642.61        35.16327
643.04        35.01403
643.47        34.88171
643.90        34.79163
644.33        34.74899
644.76        34.74913
645.18        34.77968
645.61        34.81382
646.04        34.84636
646.47        34.88408
646.90        34.94796
647.33        35.06546
647.75        35.24816
648.18        35.50507
648.61        35.80135
649.04         36.0758
649.47          36.322
649.89         36.5434
650.32         36.7966
650.75        37.20699
651.18        37.74454
651.61        38.28046
652.03        38.70394
652.46        38.91922
652.89        39.08926
653.32        39.24445
653.74        39.61783
654.17        40.58099
654.60         40.8649
655.03        40.68513
655.46        41.61705
655.88        42.12185
656.31        44.00801
656.74        45.99747
657.16        45.64148
657.59        45.44245
658.02        44.47119
658.45        44.38758
658.87        45.05416
659.30        44.83719
659.73        45.01382
660.15        44.64189
660.58        45.42115
661.01        45.96305
661.44        46.50385
661.86        46.58055
662.29        46.30147
662.72        46.38987
663.14        46.86988
663.57        47.22233
664.00        47.39398
664.42        47.59533
664.85        47.83141
665.27        47.99794
665.70        48.09979
666.13        48.24922
666.55        48.47566
666.98        48.47372
667.41        48.76533
667.83        48.96897
668.26        49.22033
668.69        49.50341
669.11        49.78238
669.54        49.96645
669.96        50.03991
670.39         50.0683
670.82        50.08772
671.24        50.06641
671.67        50.07417
672.09        50.27915
672.52        50.62719
672.94        50.87379
673.37        50.97514
673.80        50.95679
674.22         50.8931
674.65         50.9171
675.07           51.07
675.50        51.26218
675.92        51.44516
676.35        51.56705
676.77         51.6164
677.20        51.61271
677.62        51.60909
678.05        51.67718
678.47        51.83153
678.90         52.0495
679.32        52.28917
679.75        52.49088
680.17        52.63328
680.60        52.75982
681.02        52.86069
681.45        52.87449
681.87        52.84641
682.30        52.82328
682.72        52.84401
683.15        53.03326
683.57        53.32814
684.00         53.3618
684.42         53.2089
684.85        53.31174
685.27        53.67555
685.70        54.06414
686.12        54.38045
686.54        54.54881
686.97        54.55931
687.39         54.5629
687.82        54.58915
688.24        54.46946
688.66        54.49213
689.09        54.45385
689.51        54.46588
689.94        54.59812
690.36        54.81167
690.78        54.89315
691.21        54.85672
691.63        54.90829
692.06        55.05738
692.48        55.17447
692.90        55.25233
693.33        55.33222
693.75        55.41628
694.17        55.50071
694.60        55.58544
695.02        55.67942
695.44        55.78544
695.87        55.92329
696.29        56.07881
696.71        56.23029
697.14        56.34205
697.56        56.37207
697.98        56.35006
698.41        56.42126
698.83        56.58244
699.25        56.78564
699.68        56.96882
700.10        57.10066
700.52        57.15622
700.94        57.15142
701.37         57.1186
701.79        57.14442
702.21        57.23202
702.64        57.36198
703.06        57.50293
703.48        57.62542
703.90        57.72334
704.33        57.80655
704.75        57.87292
705.17        57.89902
705.59        57.88702
706.01        57.82012
706.44        57.75167
706.86        57.87066
707.28        58.02794
707.70        58.33272
708.12         58.6529
708.55         58.8194
708.97         58.8123
709.39        58.74593
709.81        58.69364
710.23        58.71444
710.66         58.8382
711.08        59.09246
711.50        59.35991
711.92        59.49239
712.34        59.45827
712.76        59.30644
713.19        59.13638
713.61        59.15355
714.03        59.38004
714.45        59.74377
714.87        60.12565
715.29        60.34623
715.71        60.36079
716.13        60.23505
716.56         60.0421
716.98        59.91386
717.40        59.87523
717.82        59.99779
718.24        60.28304
718.66        60.18947
719.08        60.58754
719.50        60.72078
719.92        60.83252
720.34        61.02919
720.76        61.34239
721.19        61.09162
721.61        61.38625
722.03        61.24984
722.45        61.02579
722.87        60.71122
723.29        60.42509
723.71        60.33122
724.13        60.45918
724.55        60.78131
724.97        61.17127
725.39        61.41631
725.81        61.46012
726.23        61.35752
726.65        61.22098
727.07        61.23477
727.49         61.4408
727.91        61.77317
728.33        62.12425
728.75        62.31958
729.17        62.31081
729.59         62.1595
730.01        61.95404
730.43        61.83211
730.85        61.83694
731.27        61.92622
731.69        62.05905
732.10        62.17571
732.52        62.24469
732.94        62.32059
733.36        62.41547
733.78        62.47855
734.20        62.49874
734.62        62.77972
735.04         62.6245
735.46        62.88623
735.88        63.05792
736.30        63.04716
736.72        62.82784
737.13        62.72139
737.55        62.75394
737.97        62.91444
738.39        63.13205
738.81        63.09089
739.23        62.86044
739.65        62.96891
740.06        63.31744
740.48        63.45918
740.90        63.36018
741.32        63.11658
741.74        63.12289
742.16        63.11307
742.57        63.21031
742.99        63.41083
743.41        63.64796
743.83        63.73316
744.25        63.66309
744.67        63.60754
745.08        63.60693
745.50        63.57244
745.92        63.52944
746.34        63.53945
746.75        63.58659
747.17        63.59911
747.59          63.567
748.01         63.5293
748.42        63.51033
748.84        63.48688
749.26        63.47992
749.68        63.61024
750.09        63.81372
750.51        63.82015
750.93        63.66477
751.35        63.67827
751.76        63.84838
752.18        63.88886
752.60        63.79791
753.01        63.74533
753.43        63.74259
753.85        63.77023
754.27        63.83828
754.68        63.95394
755.10          64.105
755.52        64.26945
755.93        64.43456
756.35        64.59528
756.77        64.73936
757.18         64.8697
757.60        65.02385
758.02        65.06918
758.43        64.98299
758.85        65.05488
759.26         65.3049
759.68        64.51482
760.10        65.04583
760.51        64.30278
760.93        64.60287
761.34        64.87251
761.76        65.39948
762.18        65.74023
762.59        65.79082
763.01         65.5825
763.42        65.29726
763.84        65.18701
764.26        65.35747
764.67        65.75652
765.09        66.18507
765.50        66.22621
765.92        65.90326
766.33        65.38507
766.75        64.79095
767.16        64.89668
767.58         64.7172
768.00        65.25427
768.41        66.04668
768.83        65.98151
769.24        65.77788
769.66        65.77109
770.07        66.09819
770.49         65.9221
770.90        65.35301
771.32        65.20626
771.73        65.50607
772.15        65.68936
772.56        65.75244
772.97        65.97731
773.39        66.30073
773.80        66.57425
774.22        66.72038
774.63        66.73631
775.05        66.62064
775.46        66.52983
775.88        66.46825
776.29        66.39777
776.70         66.3305
777.12        66.32524
777.53        66.40428
777.95        66.53583
778.36        66.69145
778.77        66.79999
779.19        66.84498
779.60        66.85654
780.02         66.8389
780.43        66.85165
780.84        66.90008
781.26        66.88169
781.67        66.87539
782.09        67.08213
782.50        67.32083
782.91        67.63468
783.33         66.9315
783.74        66.84982
784.15        67.07427
784.57        67.25429
784.98        67.34943
785.39        67.42525
785.81        67.45601
786.22         67.6418
786.63        67.55827
787.04        67.59669
787.46        67.65223
787.87        67.67002
788.28        67.64312
788.70        67.76412
789.11        67.72794
789.52        67.73753
789.93        67.72107
790.35         67.8046
790.76        67.95779
791.17        67.90452
791.58        67.70928
792.00        67.68856
792.41        67.88223
792.82        68.13082
793.23        68.37214
793.65        68.51904
794.06         68.6106
794.47        68.82277
794.88        69.09811
795.29        69.34582
795.71        69.16768
796.12        69.17495
796.53         69.2202
796.94        68.87599
797.35        68.26871
797.76        68.17662
798.18        68.58517
798.59        68.74374
799.00        68.61623
799.41        68.62804
799.82         68.7657
800.23        68.80134
800.64        68.72051
801.06        68.56242
801.47        68.40469
801.88        68.30624
802.29        68.29456
802.70        68.34925
803.11        68.44257
803.52        68.53111
803.93        68.59805
804.34        68.64731
804.75        68.70547
805.17        68.81289
805.58         69.0024
805.99          69.214
806.40        69.39012
806.81        69.49705
807.22        69.48119
807.63        69.23766
808.04        68.89219
808.45        68.78658
808.86        68.97884
809.27        69.32562
809.68        69.68494
810.09        69.84596
810.50        69.74237
810.91        69.44128
811.32        69.07494
811.73        68.86785
812.14        68.88943
812.55        69.05882
812.96        69.29632
813.37        69.50372
813.78        69.60854
814.19        69.56296
814.60        69.42627
815.01        69.36111
815.42        69.39845
815.83        69.46685
816.24        69.53329
816.65        69.57405
817.05        69.58051
817.46        69.52664
817.87        69.49661
818.28        69.56611
818.69        69.74637
819.10        70.01823
819.51        70.29414
819.92        70.41367
820.33         70.3389
820.74        70.12041
821.14        69.86618
821.55        69.78366
821.96        69.89674
822.37        70.13894
822.78        70.42665
823.19        70.60416
823.60        70.61693
824.00        70.55028
824.41        70.37183
824.82         70.1138
825.23        69.81021
825.64         69.4541
826.04        69.19344
826.45        69.23888
826.86        69.62851
827.27        70.29972
827.68        71.02473
828.08        71.44599
828.49        71.39616
828.90        71.00436
829.31        70.47828
829.72        70.18315
830.12        70.25053
830.53        70.53311
830.94        70.89622
831.35        71.07982
831.75        71.02442
832.16        70.77534
832.57        70.46358
832.97         70.2686
833.38        70.24645
833.79        70.34303
834.20        70.48189
834.60        70.55402
835.01        70.54098
835.42         70.4669
835.82        70.41353
836.23        70.43742
836.64        70.58159
837.04        70.84289
837.45        71.08292
837.86        71.17834
838.26        71.11272
838.67        70.91055
839.08        70.71548
839.48        70.74352
839.89        71.03943
840.29        71.52871
840.70         72.0545
841.11        72.37521
841.51        72.43923
841.92        72.26768
842.33        71.99258
842.73        71.83204
843.14        71.80155
843.54        71.87473
843.95        71.93816
844.35        71.82726
844.76        71.50654
845.17        71.05232
845.57        70.61563
845.98        70.39547
846.38        70.46837
846.79        70.74625
847.19        71.11623
847.60        71.34197
848.00        71.37415
848.41        71.24281
848.81        71.06039
849.22        70.94302
849.62         70.9633
850.03         71.0471
850.43        71.15648
850.84        71.15688
851.24        71.06445
851.65        70.87113
852.05        70.69694
852.46        70.64536
852.86        70.74118
853.27        70.95343
853.67        71.13232
854.07        71.24031
854.48        71.22518
854.88        71.15608
855.29        70.98137
855.69        70.80521
856.10        70.58327
856.50        70.37412
856.90        70.20759
857.31        70.16283
857.71        70.29337
858.12        70.51952
858.52        70.79704
858.92        70.92505
859.33        70.83691
859.73        70.61302
860.13        70.29852
860.54        70.01063
860.94         69.8355
861.34        69.71392
861.75        69.61212
862.15        69.53475
862.55        69.44958
862.96        69.39789
863.36        69.35198
863.76          69.245
864.17        69.06859
864.57        68.84563
864.97        68.68012
865.38        68.72908
865.78        69.05212
866.18        69.56294
866.58        70.07758
866.99        70.28036
867.39        70.11366
867.79        69.66026
868.19         69.0823
868.60        68.58176
869.00        68.21841
869.40         67.9645
869.80        67.83855
870.21        67.87714
870.61        68.13303
871.01        68.53143
871.41         68.9579
871.81        69.24686
872.22        69.33743
872.62        69.28224
873.02        69.15114
873.42        69.08111
873.82        69.12674
874.22         69.2643
874.63        69.45446
875.03         69.6161
875.43        69.73995
875.83        69.83796
876.23        69.97075
876.63        70.23536
877.03        70.62199
877.44        71.06042
877.84        71.40813
878.24        71.41042
878.64        71.03159
879.04        70.39618
879.44         69.6745
879.84        69.08986
880.24        68.70951
880.64        68.48241
881.04        68.40306
881.44        68.45514
881.84        68.60825
882.24        68.85315
882.65        69.09923
883.05         69.2907
883.45         69.3512
883.85          69.292
884.25        69.12499
884.65        68.88144
885.05        68.58859
885.45        68.25105
885.85        67.93235
886.25        67.74553
886.65        67.72385
887.05        67.84444
887.45        68.04082
887.85        68.19915
888.25         68.2809
888.65        68.31002
889.04        68.29755
889.44        68.31213
889.84        68.35135
890.24        68.38727
890.64        68.41441
891.04        68.43533
891.44        68.44902
891.84        68.46472
892.24        68.46835
892.64        68.43066
893.04        68.35495
893.44        68.25964
893.83        68.20439
894.23         68.2153
894.63        68.32475
895.03        68.50877
895.43         68.7319
895.83         68.9344
896.23        69.08929
896.63         69.2048
897.02        69.27404
897.42        69.32708
897.82        69.36208
898.22         69.3821
898.62        69.39131
899.01         69.4094
899.41        69.42479
899.81        69.44247
900.21        69.47958
900.61         69.5623
901.00        69.67583
901.40        69.82245
901.80        69.94532
902.20        69.96631
902.59        69.88674
902.99        69.73082
903.39        69.55506
903.79         69.4418
904.18         69.4173
904.58        69.45554
904.98        69.55951
905.38        69.74287
905.77        69.97298
906.17        70.23583
906.57        70.44495
906.96        70.47437
907.36        70.27389
907.76        69.91388
908.15        69.46741
908.55        68.99024
908.95        68.57733
909.34        68.21899
909.74         68.0384
910.14        68.15678
910.53        68.57123
910.93        69.19772
911.33         69.8831
911.72        70.35463
912.12        70.50525
912.52        70.43798
912.91        70.18588
913.31        69.83286
913.70        69.42786
914.10        68.92738
914.49        68.51823
914.89         68.4808
915.29        68.88371
915.68        69.64891
916.08        70.46712
916.47        70.82925
916.87        70.64351
917.26        70.03704
917.66        69.31731
918.05        68.94965
918.45        69.03729
918.84        69.44204
919.24        69.93135
919.64        70.20386
920.03         70.1852
920.42        70.00451
920.82        69.74226
921.21        69.49799
921.61        69.30952
922.00        69.12356
922.40        69.04675
922.79        69.34517
923.19        69.98665
923.58        70.91456
923.98        71.75053
924.37        71.97581
924.77        71.49035
925.16        70.43893
925.55        69.21825
925.95        68.53068
926.34        68.58642
926.74        69.17092
927.13        69.99767
927.52        70.49993
927.92        70.53445
928.31        70.26005
928.70        69.87305
929.10        69.65512
929.49        69.68439
929.89        69.82703
930.28        70.01412
930.67        70.03597
931.07        69.83193
931.46        69.52054
931.85        69.19264
932.24        69.00309
932.64        68.99051
933.03         69.0956
933.42        69.26846
933.82        69.43031
934.21        69.55087
934.60        69.66239
934.99         69.7511
935.39        69.77042
935.78        69.74998
936.17        69.68308
936.56        69.63498
936.96        69.71064
937.35        69.96973
937.74        70.33698
938.13        70.71262
938.53         70.9585
938.92        71.04496
939.31        70.99429
939.70        70.85793
940.09        70.73124
940.49        70.61976
940.88        70.52919
941.27        70.41533
941.66        70.21081
942.05        69.91916
942.44        69.60797
942.84        69.33524
943.23        69.12267
943.62        69.01631
944.01        68.98203
944.40        69.07561
944.79           69.39
945.18        69.89063
945.57        70.50379
945.97        70.99395
946.36        71.09673
946.75        70.73834
947.14        70.01539
947.53        69.13388
947.92        68.46916
948.31        68.17155
948.70        68.16877
949.09        68.36863
949.48          68.606
949.87        68.81335
950.26        69.02959
950.65        69.27021
951.04        69.55378
951.43        69.86947
951.82        70.17369
952.21        70.37872
952.60        70.37103
952.99        70.12016
953.38        69.65231
953.77        69.09705
954.16        68.64048
954.55        68.33475
954.94        68.17303
955.33        68.01236
955.72        67.60597
956.11        66.91084
956.50        65.98994
956.89        65.13103
957.28        64.82296
957.66        65.20354
958.05        66.12074
958.44        67.14728
958.83        67.59589
959.22        67.30402
959.61        66.44457
960.00        65.47591
960.39        65.13587
960.78         65.5853
961.16        66.62276
961.55        67.72071
961.94        68.06386
962.33        67.45072
962.72        66.21973
963.11        64.86283
963.49        64.08111
963.88        64.05758
964.27        64.56644
964.66        65.39902
965.04        66.20007
965.43        66.71068
965.82        67.06696
966.21        67.27267
966.60        67.34428
966.98         67.3092
967.37        67.08186
967.76        66.72585
968.15        66.38496
968.53        66.14277
968.92        66.03108
969.31        65.99301
969.69        65.88367
970.08        65.69167
970.47        65.49572
970.86         65.4992
971.24        66.05383
971.63        67.09633
972.02        68.40495
972.40         69.7372
972.79        70.65201
973.17        71.14469
973.56        71.28199
973.95        71.09805
974.33         70.6198
974.72        69.92345
975.11        69.01374
975.49        68.12369
975.88         67.6822
976.26        67.80389
976.65        68.41206
977.04         69.2205
977.42        69.68137
977.81         69.5752
978.19        68.99787
978.58        68.31269
978.96        68.11049
979.35        68.52299
979.74         69.3852
980.12        70.33359
980.51        70.57169
980.89        70.03461
981.28        68.87904
981.66        67.58488
982.05        67.05453
982.43        67.52225
982.82        68.64946
983.20        69.99228
983.59        70.70085
983.97        70.65207
984.35        70.06189
984.74        69.17317
985.12        68.40959
985.51        67.96131
985.89        67.72429
986.28        67.71481
986.66         68.0555
987.04        68.66861
987.43        69.48722
987.81        70.32785
988.20        70.75314
988.58        70.67898
988.96        70.21698
989.35        69.40794
989.73        68.42012
990.12        67.29322
990.50        65.92117
990.88        64.64052
991.27        64.20767
991.65        64.83392
992.03        66.34886
992.42        67.87354
992.80        68.60268
993.18        68.27061
993.56         66.9498
993.95        65.26607
994.33        64.62218
994.71        65.61167
995.10        67.53194
995.48        69.31036
995.86        69.69234
996.24        68.59801
996.63        66.31522
997.01        63.72147
997.39        62.75785
997.77        64.16787
998.15        67.23343
998.54        70.58865
998.92        72.43866
999.30        72.38805
999.68        70.96701
1000.06        68.87706
1000.45        67.41906
1000.83        67.15599
1001.21        67.58173
1001.59        68.31097
1001.97        68.78787
1002.35        68.84133
1002.73        68.79046
1003.12        68.56129
1003.50        67.81912
1003.88        66.69621
1004.26        65.25542
1004.64        64.12807
1005.02        64.13126
1005.40        65.30786
1005.78        67.49636
1006.16        69.84307
1006.54        70.76767
1006.92        69.83736
1007.30        67.45792
1007.69        64.83896
1008.07        63.92587
1008.45        65.25439
1008.83        68.14339
1009.21        71.31793
1009.59        72.97029
1009.97        72.61959
1010.35        70.62175
1010.73        67.74093
1011.11        65.97891
1011.49        66.32926
1011.86        68.27189
1012.24        70.55544
1012.62        71.70583
1013.00        71.44495
1013.38        70.38222
1013.76        69.12738
1014.14        68.63187
1014.52        69.22229
1014.90        70.50681
1015.28        72.31355
1015.66        74.28278
1016.04        76.05725
1016.41         77.7698
1016.79         78.7989
1017.17        78.63863
1017.55        77.32251
1017.93        75.06507
1018.31        72.64085
1018.69        71.26976
1019.06        71.35049
1019.44        72.72929
1019.82        74.84473
1020.20        76.37721
1020.58        76.72003
1020.95          76.063
1021.33        75.11189
1021.71        74.78636
1022.09        75.17605
1022.46        75.92597
1022.84        76.29108
1023.22        74.80055
1023.60        70.98955
1023.97        64.93128
1024.35        57.94801
1024.73        52.99295
