SpectraSmart Spectrum 2.9.0.0
--------- Device Information -----------
Spectrum Name :  反射率_0
Saving Time :  2024/04/27 22:47:56
Spectro-Module Model Name : SE2030-DUVN
Spectro-Module Serial Number : OS361AC55029948
Wavelength Start : 200
Wavelength End : 1025
Wavelength Unit : Wavelength(nm)
Spectrum Unit : Reflectance(%)
-----------Spectrum Setting ------------
Integration Time : 20ms
Average : 10
Boxcar : 0
Background removal :  enabled
linearity correction :  enabled
SC :  disabled
Intensity correction :  disabled
DWT denoise :  enabled
savitzky-golay :  disabled
FFT :  disabled
Running average :  disabled
Kalman :  disabled
High pass :  disabled
---------------BEGIN--------------------
Wavelength(nm)             Reflectance(%)
200.29               0
200.75       -47.43103
201.21        -25.4822
201.67     -0.01593887
202.13        14.88043
202.58        22.23881
203.04        26.93983
203.50        32.13498
203.96        40.24108
204.42        50.03779
204.88        59.43214
205.34        66.52349
205.80        70.29428
206.26        71.07565
206.72        68.63647
207.18        63.13282
207.64        59.41168
208.10        61.13935
208.55         65.8067
209.01        68.05544
209.47        65.72298
209.93        57.13866
210.39        33.71287
210.85       -39.46371
211.31       -137.9348
211.77        -39.7263
212.23        30.40718
212.69         55.6469
213.14        62.64108
213.60        60.27562
214.06        51.01052
214.52        32.88174
214.98        17.32578
215.44        19.71611
215.90        29.37807
216.36        38.81443
216.81        46.19011
217.27          52.049
217.73        58.10681
218.19         62.8868
218.65        63.08376
219.11        57.76006
219.57        47.05348
220.02        33.42575
220.48        25.53017
220.94        26.44053
221.40        33.05207
221.86        41.12209
222.32        46.19638
222.77        47.95823
223.23        48.06627
223.69        47.23856
224.15        45.90929
224.61        44.39073
225.06        42.31817
225.52        40.69495
225.98        41.02976
226.44        43.01149
226.90        45.33223
227.36        47.16881
227.81        47.96264
228.27        47.72736
228.73         46.7033
229.19        44.51982
229.65        40.70343
230.10        35.62853
230.56        30.23373
231.02        25.61283
231.48         23.1828
231.93        22.98475
232.39        24.40766
232.85        26.97212
233.31        29.97756
233.77        33.00269
234.22        36.24995
234.68        38.85141
235.14         39.8247
235.60        39.11935
236.05        36.67218
236.51        33.99031
236.97        34.36255
237.43        38.80861
237.88        46.42508
238.34        54.09459
238.80        58.57224
239.26        59.11345
239.71         55.3757
240.17        47.32856
240.63        41.73864
241.08        45.32001
241.54        53.78996
242.00        60.75309
242.46        63.09681
242.91        61.12535
243.37        53.77687
243.83        38.13778
244.28        21.70137
244.74        29.51558
245.20        55.73641
245.66        74.89192
246.11        79.84417
246.57        73.91186
247.03        56.41101
247.48        27.48731
247.94        8.051358
248.40        19.24105
248.85         48.8886
249.31        77.63458
249.77        89.94675
250.22        88.40376
250.68        81.17436
251.14        73.71307
251.59         70.0768
252.05        70.57068
252.51        73.64035
252.96        78.08109
253.42        80.29427
253.88        77.79521
254.33        73.58769
254.79        70.12386
255.25        67.60639
255.70        65.67697
256.16        64.38976
256.62        63.92137
257.07        64.63819
257.53        66.32135
257.99        67.98396
258.44        68.76305
258.90        68.33763
259.35        66.60693
259.81        64.46474
260.27        62.14252
260.72         59.9841
261.18        58.43373
261.63        57.07483
262.09        56.04134
262.55        55.08384
263.00        54.06644
263.46        53.16603
263.91        52.28601
264.37        51.64139
264.83        51.15036
265.28        50.71481
265.74        50.27496
266.19        49.54742
266.65        48.58524
267.11         47.4268
267.56        46.20654
268.02        45.24196
268.47         44.5555
268.93        44.07091
269.38         43.6515
269.84        43.11065
270.30        42.38602
270.75        41.54061
271.21        40.62303
271.66        39.65549
272.12        38.69261
272.57        37.69895
273.03        36.75517
273.48        35.90775
273.94        35.21903
274.39        34.63446
274.85        34.15441
275.31        33.69033
275.76        33.19401
276.22         32.7078
276.67        32.18898
277.13        31.67891
277.58        31.13519
278.04        30.59725
278.49        30.02097
278.95         29.4555
279.40         28.8667
279.86        28.32021
280.31        27.79769
280.77        27.38495
281.22        27.05409
281.68        26.82596
282.13        26.65161
282.59        26.50846
283.04        26.36596
283.50        26.23986
283.95        26.12614
284.41        26.05779
284.86        26.02036
285.32        26.02015
285.77         26.0148
286.22        25.98285
286.68         25.9355
287.13        25.84725
287.59        25.77832
288.04        25.74442
288.50        25.77822
288.95        25.84547
289.41        25.92623
289.86        25.94069
290.32        25.90579
290.77        25.84906
291.22        25.83425
291.68        25.94976
292.13        26.20477
292.59        26.57873
293.04        27.04356
293.50        27.57953
293.95         28.1586
294.40        28.80024
294.86        29.46598
295.31         30.0878
295.77        30.66862
296.22        31.20772
296.68        31.79448
297.13        32.54733
297.58        33.48198
298.04        34.54874
298.49         35.6251
298.95        36.55364
299.40        37.30019
299.85        37.91915
300.31        38.52713
300.76        39.26455
301.21        40.16079
301.67        41.15368
302.12        42.10917
302.58        42.89187
303.03        43.44682
303.48        43.84084
303.94        44.17947
304.39        44.55716
304.84        45.02494
305.30        45.56072
305.75        46.07611
306.20        46.49338
306.66        46.80864
307.11        47.01574
307.57        47.20893
308.02        47.45079
308.47        47.76508
308.93        48.11922
309.38        48.40173
309.83        48.48941
310.29        48.37848
310.74        48.10897
311.19        47.78696
311.65        47.57348
312.10        47.49254
312.55        47.49792
313.00        47.54636
313.46        47.56997
313.91        47.53118
314.36        47.45992
314.82        47.32095
315.27        47.05309
315.72        46.66145
316.18        46.17335
316.63        45.67191
317.08        45.31678
317.53        45.14134
317.99        45.09978
318.44        45.10762
318.89        45.00436
319.35        44.74707
319.80         44.3854
320.25        43.98527
320.70        43.65993
321.16        43.43226
321.61        43.26904
322.06        43.12102
322.51        42.91703
322.97        42.63056
323.42        42.30653
323.87        41.95832
324.32        41.61573
324.78        41.28753
325.23        40.96839
325.68        40.67003
326.13        40.42326
326.59         40.2152
327.04        40.06712
327.49        39.91216
327.94         39.6498
328.39        39.25903
328.85        38.75476
329.30        38.24054
329.75        37.86966
330.20        37.69073
330.66        37.65208
331.11        37.67955
331.56        37.58772
332.01        37.32748
332.46        36.94707
332.92        36.52501
333.37        36.24435
333.82        36.14035
334.27        36.15179
334.72        36.20193
335.17        36.16845
335.63        36.00071
336.08        35.76102
336.53        35.46067
336.98        35.13308
337.43        34.80499
337.88        34.46925
338.34         34.1645
338.79        33.96294
339.24        33.87729
339.69        33.89729
340.14        33.96343
340.59        33.97334
341.05        33.89439
341.50        33.74547
341.95        33.56887
342.40        33.44685
342.85        33.39418
343.30          33.381
343.75        33.34587
344.20        33.19315
344.66        32.91474
345.11        32.55309
345.56        32.18681
346.01        31.93386
346.46        31.82377
346.91        31.81269
347.36        31.85957
347.81        31.89806
348.26         31.9003
348.72        31.88753
349.17        31.83707
349.62        31.71343
350.07        31.51852
350.52        31.25669
350.97        30.99651
351.42         30.8537
351.87        30.84628
352.32        30.93639
352.77        31.03433
353.22        31.00054
353.67        30.80257
354.13        30.49592
354.58        30.12562
355.03        29.81798
355.48        29.61257
355.93        29.48108
356.38        29.37847
356.83        29.23273
357.28        29.02889
357.73        28.79762
358.18        28.58203
358.63        28.44476
359.08        28.39234
359.53        28.38875
359.98        28.38978
360.43        28.33213
360.88        28.19587
361.33        27.99825
361.78        27.74261
362.23        27.47083
362.68        27.20635
363.13        26.88267
363.58        26.51132
364.03        26.44867
364.48        26.15424
364.93         26.0565
365.38        25.96665
365.83        25.85346
366.28        25.69869
366.73        25.51927
367.18        25.32344
367.63        25.11218
368.08        24.89389
368.53        24.66741
368.98        24.45013
369.43          24.271
369.88        24.13576
370.33        24.03821
370.78        23.95536
371.23        23.84906
371.68        23.70405
372.13        23.52177
372.58        23.32218
373.03        23.13894
373.48        22.98416
373.93        22.86061
374.38        22.73274
374.83        22.54276
375.28        22.28816
375.72        21.97896
376.17        21.71866
376.62        21.62642
377.07        21.71175
377.52        21.91604
377.97        22.12386
378.42        22.15696
378.87        21.97703
379.32        21.65145
379.77        21.25941
380.22        20.91984
380.67        20.67351
381.11        20.48643
381.56        20.35797
382.01        20.28703
382.46        20.26313
382.91         20.2906
383.36        20.32623
383.81        20.29683
384.26        20.18625
384.71         20.0081
385.15        19.79747
385.60        19.64769
386.05        19.57004
386.50        19.54582
386.95        19.54169
387.40        19.50436
387.85        19.42567
388.29        19.31601
388.74        19.22812
389.19        19.19125
389.64        19.20391
390.09        19.23499
390.54        19.26163
390.98        19.24707
391.43        19.19105
391.88        19.11517
392.33        18.99909
392.78        18.84363
393.23        18.66956
393.67        18.40082
394.12        18.13038
394.57        18.20218
395.02         18.3012
395.47        18.36187
395.91        18.28312
396.36         18.2624
396.81        18.29873
397.26        18.27374
397.71        18.18854
398.15        18.11499
398.60        18.08052
399.05        17.98979
399.50        17.89532
399.95        17.98977
400.39        18.21911
400.84        18.30134
401.29        18.20152
401.74        18.04254
402.18        17.86986
402.63        17.73487
403.08        17.65743
403.53        17.57261
403.97         17.4943
404.42        17.50815
404.87        17.58526
405.32        17.64257
405.76        17.66043
406.21        17.61747
406.66         17.5449
407.11        17.57591
407.55        17.67135
408.00        17.63107
408.45        17.45485
408.90        17.20951
409.34        16.98673
409.79        17.00607
410.24        17.21071
410.68        17.28352
411.13        17.19729
411.58        17.14305
412.03        17.14575
412.47         17.1571
412.92          17.172
413.37        17.20527
413.81        17.23221
414.26        17.23086
414.71        17.19168
415.15        17.12189
415.60        17.03686
416.05        16.97274
416.49        16.94374
416.94        16.94056
417.39        16.94453
417.83        16.92703
418.28        16.87611
418.73        16.79298
419.17        16.71039
419.62        16.68315
420.07         16.7259
420.51        16.82841
420.96        16.92672
421.41        16.94255
421.85         16.8607
422.30        16.63494
422.74        16.38394
423.19        16.48695
423.64        16.88789
424.08        17.11742
424.53        17.07111
424.98        17.06991
425.42        17.11433
425.87         16.8888
426.31        16.51485
426.76        16.53782
427.21        16.88386
427.65         16.9308
428.10        16.68884
428.54        16.60374
428.99         16.6786
429.44        16.82678
429.88        16.94076
430.33         16.6503
430.77        16.14224
431.22        16.12216
431.66        16.55797
432.11        16.88174
432.56        16.98898
433.00        17.03657
433.45        16.89163
433.89        16.49861
434.34        16.19614
434.78        15.42769
435.23        16.13111
435.67        16.70872
436.12        16.92702
436.57        16.98059
437.01        16.76427
437.46        16.63321
437.90        16.68663
438.35        16.81785
438.79        16.49336
439.24        16.38175
439.68         16.3477
440.13        16.34425
440.57        16.34557
441.02        16.45682
441.46          16.625
441.91         16.4774
442.35        16.14726
442.80        16.34583
443.24        16.92763
443.69        16.93327
444.13        16.40755
444.58        16.20163
445.02        16.32736
445.47        16.34889
445.91        16.23958
446.36        16.18567
446.80        16.18355
447.24        16.17569
447.69         16.1811
448.13        16.26959
448.58        16.41761
449.02        16.52561
449.47        16.57631
449.91        16.62019
450.36        16.65429
450.80        16.62804
451.25        16.56642
451.69        16.53623
452.13        16.54193
452.58         16.5513
453.02        16.53931
453.47        16.47549
453.91        16.35526
454.36        16.22223
454.80        16.08591
455.24        15.94255
455.69         15.8407
456.13        15.79196
456.58        15.80904
457.02        15.96943
457.46        16.16906
457.91         16.1278
458.35        15.93852
458.79        15.84352
459.24        15.87648
459.68        15.88066
460.13        15.86199
460.57        15.80701
461.01        15.78679
461.46         15.8148
461.90        15.80688
462.34        15.80281
462.79        16.04035
463.23        16.08537
463.68        16.01615
464.12        15.92395
464.56        15.83579
465.01        15.80013
465.45        15.76346
465.89        15.63927
466.34        15.48586
466.78        15.37994
467.22        15.32284
467.67        15.63848
468.11        15.62198
468.55        15.66185
468.99        15.57517
469.44        15.56196
469.88        15.62428
470.32        15.63894
470.77        15.61068
471.21        15.59983
471.65         15.6129
472.10        15.63745
472.54        15.65538
472.98        15.66024
473.42        15.65543
473.87        15.60432
474.31        15.53449
474.75        15.63307
475.20        15.84786
475.64        15.87121
476.08        15.71889
476.52         15.7176
476.97        15.88792
477.41        15.90532
477.85        15.89831
478.29        16.04504
478.74        15.93459
479.18         15.7687
479.62        15.96992
480.06        15.98648
480.50        15.99446
480.95        15.97711
481.39        15.92446
481.83        16.16806
482.27        16.22062
482.72         16.2072
483.16        16.46379
483.60        16.51338
484.04         16.4873
484.48        16.43693
484.93        16.51732
485.37        16.45807
485.81        16.92114
486.25        17.20294
486.69        16.65131
487.14        16.37844
487.58        17.46553
488.02        17.33847
488.46        17.72913
488.90         17.4803
489.34        17.29278
489.79        17.03302
490.23        17.49542
490.67        17.79913
491.11        18.03982
491.55        18.06292
491.99        17.92671
492.43        17.97019
492.88        18.20672
493.32        18.38918
493.76        18.49573
494.20        18.66774
494.64        18.91334
495.08        19.12632
495.52        19.29671
495.96         19.5634
496.41        19.89196
496.85        19.83507
497.29         19.5299
497.73        19.57372
498.17        19.95048
498.61        20.32353
499.05        20.55559
499.49        20.62659
499.93        20.57831
500.37        20.55468
500.82        20.59275
501.26          20.709
501.70        20.92726
502.14        20.81251
502.58        21.09737
503.02         21.2152
503.46        21.29071
503.90        21.35529
504.34        21.39823
504.78        21.47074
505.22        21.56708
505.66        21.63503
506.10        21.68425
506.54        21.79132
506.98          21.963
507.42        22.07071
507.86        22.26314
508.30        22.36365
508.74        22.41521
509.18        22.42344
509.62        22.41477
510.06        22.42957
510.50        22.47812
510.94        22.55039
511.38        22.62983
511.82        22.69036
512.26        22.72416
512.70        22.73929
513.14        22.74318
513.58        22.75428
514.02        22.77956
514.46        22.80042
514.90        22.80395
515.34        22.85773
515.78        22.82483
516.22        22.81604
516.66        22.80993
517.10        22.83801
517.54        22.90208
517.98        22.99352
518.42         23.0801
518.86        23.10709
519.30        23.06382
519.74        22.96611
520.18        22.85293
520.62        22.78549
521.06        22.77877
521.50        22.81627
521.93        22.86516
522.37         22.8626
522.81        22.79783
523.25        22.68991
523.69        22.57322
524.13        22.50044
524.57        22.48244
525.01        22.49927
525.45         22.5189
525.89        22.49226
526.32        22.40397
526.76        22.27865
527.20        22.13868
527.64         22.0224
528.08        21.94103
528.52        21.88048
528.96        21.83025
529.40        21.77455
529.83        21.70638
530.27        21.63486
530.71        21.55602
531.15        21.46267
531.59        21.35703
532.03        21.24259
532.46         21.1319
532.90        21.05816
533.34        21.02457
533.78        21.02359
534.22        21.03958
534.66        21.04787
535.09        21.03823
535.53        21.01876
535.97        20.99484
536.41        20.97892
536.85        20.97475
537.28        20.98053
537.72        20.98686
538.16        20.97694
538.60        20.95083
539.04        20.91957
539.47        20.89855
539.91        20.92253
540.35         20.9908
540.79         21.0981
541.22        21.21585
541.66        21.29822
542.10        21.33739
542.54        21.35264
542.97        21.37187
543.41        21.45157
543.85        21.59875
544.29        21.79118
544.72        22.00584
545.16        22.22438
545.60        22.42742
546.04        22.62102
546.47        22.79339
546.91        22.92084
547.35        23.00342
547.79        23.06171
548.22        23.11797
548.66        23.20276
549.10        23.34002
549.53        23.60004
549.97        23.94693
550.41        24.23611
550.84        24.44123
551.28        24.63459
551.72        24.81342
552.15        24.94476
552.59        25.04083
553.03        25.10221
553.46         25.1616
553.90        25.29091
554.34        25.49566
554.77        25.76471
555.21        26.04428
555.65         26.2451
556.08        26.31914
556.52        26.35329
556.96        26.37577
557.39         26.4687
557.83        26.62761
558.27        26.71969
558.70        26.74394
559.14        26.79988
559.57        26.88044
560.01        26.95977
560.45          27.027
560.88        27.04564
561.32        27.06646
561.75        27.17351
562.19         27.3536
562.63        27.51944
563.06        27.62739
563.50        27.61601
563.93         27.5267
564.37        27.55135
564.80        27.69749
565.24         27.8786
565.68        28.06675
566.11        28.24459
566.55          28.405
566.98         28.5706
567.42        28.72967
567.85        28.78436
568.29        28.79076
568.72        28.83668
569.16        28.93037
569.60          29.103
570.03        29.37713
570.47        29.38587
570.90        29.46533
571.34         30.1265
571.77        30.03991
572.21        30.16189
572.64        30.49325
573.08        30.40359
573.51        30.72168
573.95        30.80485
574.38        30.80779
574.82        31.05126
575.25        30.99196
575.69        30.91445
576.12        30.90689
576.56        31.23391
576.99        31.22688
577.42        31.18801
577.86        31.24641
578.29        31.34564
578.73        30.97309
579.16        30.93117
579.60        30.95086
580.03        30.91033
580.47         30.8062
580.90        30.53686
581.33        30.59307
581.77        30.59184
582.20        30.44728
582.64         29.9702
583.07        29.91539
583.51         29.7227
583.94        29.72156
584.37        29.68407
584.81        29.57298
585.24        29.38773
585.68        29.23562
586.11         28.9492
586.54        28.92458
586.98        28.98431
587.41        29.08811
587.85        28.73717
588.28        28.56818
588.71         28.6094
589.15        28.78717
589.58        28.33081
590.01        28.77678
590.45        28.64049
590.88        28.26436
591.31        28.17435
591.75        28.35507
592.18        28.37186
592.61        28.20299
593.05        28.63448
593.48        28.69975
593.91        28.38059
594.35        28.53067
594.78         28.7985
595.21        28.98087
595.65        29.10023
596.08        28.99784
596.51        29.43462
596.94        29.42011
597.38        29.73305
597.81         30.1034
598.24         30.1032
598.68        30.68659
599.11        30.89861
599.54        31.19147
599.97        31.43384
600.41        32.02089
600.84        32.39881
601.27        32.64432
601.70        33.01919
602.14        33.21977
602.57        33.82737
603.00        34.34106
603.43        34.86619
603.87        35.46404
604.30        35.73179
604.73        36.08237
605.16         36.9221
605.60        37.34255
606.03        37.94594
606.46        38.39096
606.89        38.66053
607.32        39.03639
607.76        39.78922
608.19        39.92146
608.62        40.37924
609.05        40.83323
609.48        41.23407
609.92        41.54582
610.35        41.70842
610.78        41.94905
611.21        42.07878
611.64        42.64635
612.07        43.04715
612.50         43.3838
612.94         43.7304
613.37        44.09932
613.80        44.29126
614.23        44.58765
614.66        44.79047
615.09        44.98786
615.52        45.35008
615.96        45.87395
616.39        45.87153
616.82        46.16027
617.25        46.45942
617.68        46.84439
618.11        46.90001
618.54        46.72812
618.97        47.05857
619.40        47.67762
619.84        48.26538
620.27        48.21386
620.70        48.20396
621.13        48.08691
621.56        48.58485
621.99         48.5442
622.42        48.54351
622.85        48.66206
623.28        48.88925
623.71         48.9166
624.14        48.53838
624.57         48.6847
625.00        49.02112
625.43        48.68596
625.86        48.63037
626.29         48.5327
626.72        48.41119
627.15        48.22586
627.58        48.09346
628.01        48.06114
628.44        47.57146
628.87        47.32482
629.30        47.24295
629.73        46.82583
630.16        46.10158
630.59        46.00017
631.02        45.72345
631.45        45.55052
631.88        45.19263
632.31        44.61197
632.74        44.34924
633.17        43.62749
633.60        43.14684
634.03        42.68287
634.46        42.24753
634.89        41.81244
635.32        41.34033
635.75        40.83285
636.18        40.32187
636.61        39.82906
637.04        39.33575
637.47        38.87123
637.89        38.53232
638.32        38.26936
638.75        37.94466
639.18        37.54495
639.61        37.14362
640.04        36.76123
640.47        36.40908
640.90        36.09981
641.33        35.81979
641.76        35.55746
642.18        35.38206
642.61        35.15283
643.04        34.98556
643.47        34.86195
643.90        34.81716
644.33        34.85413
644.76        34.96374
645.18        35.10905
645.61        35.22562
646.04        35.29996
646.47        35.34566
646.90        35.41422
647.33        35.58641
647.75        35.88609
648.18        36.30509
648.61         36.7752
649.04        37.19252
649.47        37.54668
649.89        37.83131
650.32        38.13393
650.75         38.7239
651.18        39.55286
651.61        40.24054
652.03        40.71675
652.46        41.23094
652.89        41.87831
653.32        42.35243
653.74        42.89726
654.17        44.04637
654.60        44.44017
655.03        45.07455
655.46        45.80159
655.88        46.93935
656.31        48.00269
656.74        48.78367
657.16        48.34929
657.59        48.82367
658.02        48.95213
658.45         49.9407
658.87        50.58221
659.30         51.0616
659.73        51.50812
660.15        51.65654
660.58        52.24487
661.01        52.70026
661.44         53.1914
661.86        53.34076
662.29        53.26347
662.72        53.55108
663.14         54.1757
663.57        54.54591
664.00        54.64702
664.42        54.85493
664.85        55.18391
665.27        55.44744
665.70        55.63018
666.13         55.7899
666.55        55.93613
666.98        56.05856
667.41          56.202
667.83        56.42736
668.26        56.73279
668.69        57.10992
669.11         57.4932
669.54        57.76521
669.96         57.9045
670.39        57.93388
670.82        57.92387
671.24        57.98257
671.67        58.13312
672.09        58.34798
672.52        58.58277
672.94        58.67954
673.37        58.66427
673.80        58.71988
674.22        58.86078
674.65         58.9276
675.07        58.93829
675.50        58.96743
675.92        59.04422
676.35        59.16357
676.77        59.32988
677.20        59.54108
677.62        59.76174
678.05        59.90725
678.47        59.95204
678.90        59.97059
679.32        60.00431
679.75        60.01067
680.17        59.97493
680.60        60.37102
681.02        60.33013
681.45        60.47813
681.87        60.55493
682.30        60.62991
682.72        60.69765
683.15        60.67149
683.57         60.6125
684.00        60.67289
684.42         60.8513
684.85         60.9917
685.27        61.07581
685.70        61.20909
686.12         61.3607
686.54         61.4431
686.97        61.44276
687.39        61.42493
687.82        61.41638
688.24        61.34047
688.66        61.51576
689.09        61.61166
689.51         61.6688
689.94        61.96951
690.36        61.88406
690.78        61.88763
691.21        61.83019
691.63        61.89132
692.06        62.03307
692.48        61.99741
692.90        61.83463
693.33        61.81323
693.75        61.95055
694.17        62.09765
694.60        62.20359
695.02        62.28555
695.44        62.32187
695.87        62.28348
696.29        62.20448
696.71        62.21349
697.14        62.27503
697.56        62.22134
697.98        62.08592
698.41        62.10505
698.83        62.26919
699.25        62.47801
699.68        62.66529
700.10        62.82061
700.52         62.9096
700.94          62.933
701.37        62.89977
701.79        62.86482
702.21        62.83001
702.64        62.80128
703.06         62.7727
703.48        62.75288
703.90        62.75135
704.33          62.766
704.75        62.81227
705.17        62.89124
705.59         62.9963
706.01        63.09459
706.44        63.17554
706.86        63.33045
707.28        63.37224
707.70        63.46884
708.12        63.54875
708.55        63.50256
708.97        63.35567
709.39        63.28791
709.81        63.31836
710.23        63.33228
710.66        63.33105
711.08        63.41619
711.50        63.54046
711.92        63.60192
712.34        63.58974
712.76        63.53243
713.19        63.46665
713.61        63.50486
714.03        63.65953
714.45        63.85873
714.87         64.0437
715.29        64.24484
715.71        64.46445
716.13        64.24141
716.56        64.41712
716.98        64.38174
717.40         64.3757
717.82        64.42099
718.24         64.5256
718.66         64.4168
719.08        64.51094
719.50        64.48247
719.92        64.48032
720.34        64.52557
720.76        64.62414
721.19         64.7506
721.61        64.87426
722.03        64.92944
722.45        64.89951
722.87         64.8016
723.29        64.68163
723.71        64.61409
724.13        64.62188
724.55        64.69347
724.97        64.79668
725.39          64.845
725.81        64.81655
726.23        64.78985
726.65        64.82545
727.07        64.71518
727.49        64.95048
727.91        65.11495
728.33         65.2897
728.75        65.34721
729.17        65.26308
729.59         65.1119
730.01        64.94364
730.43        64.75368
730.85          64.617
731.27        64.72381
731.69        65.00832
732.10        65.14695
732.52        65.09572
732.94        65.07291
733.36        65.10394
733.78        65.06111
734.20        64.93995
734.62        65.20738
735.04         64.8732
735.46        65.23659
735.88        65.83175
736.30        65.88362
736.72        65.44203
737.13        65.28505
737.55         65.4507
737.97        65.62245
738.39        65.72511
738.81        65.59293
739.23        65.30517
739.65        65.39082
740.06        65.74989
740.48        65.85603
740.90        65.65652
741.32        65.51328
741.74        65.41353
742.16        65.44122
742.57        65.59235
742.99        65.87626
743.41        66.18978
743.83        66.27849
744.25        66.14358
744.67        66.00663
745.08        65.93845
745.50        65.86164
745.92        65.81524
746.34        65.86957
746.75        65.98026
747.17        66.02613
747.59        65.98649
748.01        65.88897
748.42        65.78114
748.84        65.74466
749.26        65.77589
749.68        65.83222
750.09         65.8819
750.51        65.82292
750.93        65.71428
751.35        65.84597
751.76        66.15042
752.18        66.24266
752.60        66.09357
753.01        65.90617
753.43        65.76506
753.85        65.72776
754.27         65.8136
754.68        66.10653
755.10        66.47335
755.52        66.43746
755.93        66.09485
756.35        66.10145
756.77        66.38902
757.18        66.50954
757.60        66.49236
758.02        66.26936
758.43        65.85645
758.85        66.76874
759.26        66.50294
759.68        66.69737
760.10         66.7145
760.51        65.96748
760.93        66.63523
761.34        66.17506
761.76        66.60876
762.18         66.5692
762.59        66.53543
763.01         66.6365
763.42        66.88219
763.84        66.97899
764.26        66.93064
764.67         66.8922
765.09        66.89797
765.50        66.90858
765.92        66.90649
766.33        66.69678
766.75         66.3176
767.16        66.19739
767.58         66.3298
768.00        66.58312
768.41        66.90255
768.83        67.03238
769.24        66.93365
769.66         67.2083
770.07         67.1504
770.49        67.10247
770.90        66.92994
771.32        66.94896
771.73        67.14387
772.15        67.22308
772.56        67.19186
772.97        67.21105
773.39        67.27475
773.80        67.33146
774.22        67.37002
774.63        67.50816
775.05        67.67362
775.46        67.74674
775.88        67.68211
776.29        67.57531
776.70         67.4696
777.12        67.42469
777.53        67.48166
777.95        67.60532
778.36        67.76742
778.77        67.89228
779.19        67.95341
779.60         68.0033
780.02        68.04585
780.43        68.03909
780.84        67.99742
781.26         68.0824
781.67        68.31078
782.09        68.34083
782.50        68.06895
782.91        68.47943
783.33        67.84119
783.74         67.8121
784.15        67.88087
784.57        67.95692
784.98        68.01967
785.39        68.16071
785.81        68.34774
786.22        68.42755
786.63        68.40325
787.04        68.41792
787.46        68.48694
787.87         68.5187
788.28        68.51038
788.70        68.48515
789.11        68.43281
789.52         68.3699
789.93        68.33369
790.35        68.36459
790.76        68.48587
791.17        68.65276
791.58        68.82726
792.00        68.92933
792.41        68.93346
792.82         68.9191
793.23        68.90637
793.65        68.64297
794.06         68.3161
794.47        68.66562
794.88        69.49342
795.29         69.6803
795.71        69.60202
796.12        69.32199
796.53        69.09873
796.94        69.13242
797.35        69.40363
797.76        69.48069
798.18        69.35316
798.59        69.36842
799.00        69.52871
799.41        69.61139
799.82        69.58237
800.23         69.5126
800.64        69.40231
801.06         69.2114
801.47        69.02206
801.88        68.89613
802.29        68.86239
802.70        68.92342
803.11        69.03874
803.52        69.12959
803.93        69.16927
804.34        69.16133
804.75        69.17321
805.17         69.2929
805.58        69.55423
805.99        69.94426
806.40        70.31326
806.81        70.31101
807.22        69.94424
807.63        69.51897
808.04        69.18418
808.45        69.01039
808.86        69.06631
809.27        69.39941
809.68        69.86187
810.09        70.12379
810.50        70.09868
810.91        69.88593
811.32        69.60915
811.73        69.46774
812.14        69.52362
812.55         69.7209
812.96        69.98489
813.37        70.15044
813.78        70.19053
814.19        70.24693
814.60        70.31927
815.01        70.31472
815.42        70.24256
815.83        70.15411
816.24        70.07832
816.65        70.04938
817.05        70.08693
817.46         70.1475
817.87        70.23856
818.28        70.31689
818.69        70.36804
819.10        70.40654
819.51        70.42017
819.92        70.38655
820.33        70.31394
820.74        70.21447
821.14        70.12705
821.55        70.15169
821.96        70.28288
822.37        70.48362
822.78        70.71602
823.19        70.90691
823.60        71.01662
824.00        71.08371
824.41        71.02608
824.82         70.8015
825.23        70.42506
825.64        69.93269
826.04        69.47799
826.45        69.27749
826.86        69.39552
827.27        69.77204
827.68        70.27448
828.08        70.69931
828.49        70.89958
828.90        70.95673
829.31        70.92098
829.72         70.8906
830.12        70.92054
830.53          70.924
830.94        70.90078
831.35        70.82883
831.75         70.7261
832.16        70.57793
832.57        70.42733
832.97        70.29877
833.38        70.20552
833.79        70.15873
834.20        70.15942
834.60         70.2017
835.01        70.29211
835.42        70.41566
835.82        70.59319
836.23        70.78528
836.64        70.99394
837.04        71.22589
837.45        71.39265
837.86        71.45531
838.26        71.41593
838.67        71.27953
839.08        71.10361
839.48        70.96711
839.89        70.90234
840.29        70.89512
840.70         70.9435
841.11        71.03994
841.51        71.19049
841.92        71.36057
842.33         71.5283
842.73        71.65023
843.14        71.66256
843.54        71.59386
843.95        71.47538
844.35        71.38448
844.76        71.33283
845.17        71.30753
845.57        71.27753
845.98        71.15202
846.38        70.94122
846.79        70.65858
847.19        70.38203
847.60        70.18613
848.00        70.11553
848.41        70.11364
848.81        70.16869
849.22        70.18491
849.62        70.17294
850.03        70.14227
850.43        70.11412
850.84        70.04211
851.24        69.97256
851.65        69.84584
852.05        69.79375
852.46        69.94852
852.86         70.3035
853.27        70.80267
853.67        71.19956
854.07        71.33099
854.48        71.13504
854.88        70.71046
855.29        70.10609
855.69        69.63321
856.10        69.32645
856.50        69.19578
856.90        69.17587
857.31        69.17676
857.71        69.20674
858.12         69.2518
858.52        69.32811
858.92         69.3271
859.33        69.21783
859.73        69.04304
860.13        68.84139
860.54        68.72414
860.94        68.75215
861.34        68.85419
861.75        68.95528
862.15        68.99819
862.55        68.93546
862.96        68.82341
863.36        68.64651
863.76        68.36808
864.17        68.00291
864.57        67.57518
864.97        67.23237
865.38        67.19167
865.78        67.52823
866.18        68.16007
866.58        68.84531
866.99        69.15466
867.39         68.9967
867.79        68.47137
868.19        67.83036
868.60        67.42097
869.00        67.32574
869.40        67.47293
869.80         67.7462
870.21        67.93407
870.61        68.02359
871.01        68.02673
871.41        67.99945
871.81        68.01374
872.22        68.06071
872.62        68.12532
873.02        68.17351
873.42        68.15075
873.82        68.05132
874.22        67.92371
874.63        67.81504
875.03        67.75912
875.43        67.77525
875.83         67.8411
876.23        67.97323
876.63        68.20014
877.03        68.49923
877.44        68.83156
877.84         69.1078
878.24        69.15832
878.64        68.95155
879.04        68.55498
879.44        68.07896
879.84        67.67107
880.24        67.38106
880.64        67.19207
881.04        67.09184
881.44        67.05299
881.84        67.06181
882.24         67.1145
882.65        67.21198
883.05        67.44593
883.45        67.76364
883.85        68.12856
884.25        68.41563
884.65        68.45493
885.05        68.22565
885.45        67.77415
885.85        67.27003
886.25        67.01222
886.65        67.08392
887.05        67.40974
887.45        67.79975
887.85        67.95442
888.25        67.80127
888.65        67.42435
889.04        66.98899
889.44        66.81339
889.84        66.95361
890.24         67.3069
890.64        67.68573
891.04        67.80415
891.44        67.59812
891.84        67.17133
892.24        66.69411
892.64        66.42392
893.04        66.43587
893.44        66.66182
893.83        67.00208
894.23        67.23039
894.63        67.31168
895.03        67.29668
895.43        67.29103
895.83        67.45963
896.23        67.82148
896.63        68.29618
897.02        68.72821
897.42        68.93564
897.82        68.87427
898.22        68.61782
898.62        68.29339
899.01        68.12453
899.41        68.15323
899.81        68.31245
900.21        68.52107
900.61        68.64169
901.00        68.62115
901.40        68.54466
901.80          68.408
902.20         68.2058
902.59        67.97865
902.99        67.71941
903.39        67.54408
903.79        67.63541
904.18        67.99863
904.58        68.54369
904.98        69.11883
905.38        69.51172
905.77        69.64773
906.17        69.58293
906.57        69.33702
906.96        68.97579
907.36         68.5317
907.76        68.03566
908.15        67.55137
908.55        67.11234
908.95        66.78706
909.34        66.57069
909.74        66.55501
910.14        66.79848
910.53        67.28499
910.93        67.95578
911.33        68.63919
911.72        69.04548
912.12        69.08677
912.52        68.87021
912.91        68.54427
913.31        68.36162
913.70        68.38233
914.10        68.50888
914.49        68.74347
914.89        69.02354
915.29         69.3147
915.68        69.63927
916.08        69.87471
916.47        69.81638
916.87        69.46681
917.26        68.87238
917.66        68.26289
918.05        67.97343
918.45        68.06899
918.84        68.47399
919.24        68.97484
919.64        69.28802
920.03        69.34425
920.42        69.23615
920.82        69.06456
921.21        68.97806
921.61        69.01195
922.00        69.10244
922.40         69.2682
922.79        69.61794
923.19        70.09782
923.58        70.71623
923.98        71.22627
924.37        71.31164
924.77        70.91305
925.16        70.09721
925.55        69.18755
925.95        68.75123
926.34        68.93602
926.74        69.57825
927.13         70.3446
927.52        70.59441
927.92         70.2104
928.31        69.38733
928.70        68.49305
929.10        68.07984
929.49        68.27458
929.89        68.86494
930.28        69.60912
930.67        69.97878
931.07        69.79958
931.46        69.27477
931.85        68.59473
932.24        68.07631
932.64        67.82687
933.03        67.75281
933.42        67.80258
933.82        67.89893
934.21        68.01182
934.60         68.1865
934.99        68.42458
935.39        68.69094
935.78        68.99352
936.17        69.29085
936.56        69.56544
936.96        69.79478
937.35        70.00479
937.74        70.16184
938.13        70.23215
938.53        70.17547
938.92        69.99919
939.31         69.7093
939.70        69.38494
940.09         69.1625
940.49        69.06108
940.88         69.0959
941.27        69.16508
941.66        69.10378
942.05        68.89077
942.44        68.59731
942.84        68.35039
943.23        68.29637
943.62         68.4953
944.01        68.86279
944.40        69.31817
944.79        69.72214
945.18        69.98478
945.57         70.1171
945.97        70.04266
946.36        69.72728
946.75        69.16329
947.14         68.3979
947.53        67.56587
947.92        66.91347
948.31         66.5507
948.70        66.44899
949.09        66.57421
949.48        66.84306
949.87        67.20013
950.26        67.64274
950.65        68.10619
951.04        68.49864
951.43        68.77426
951.82        68.90543
952.21        68.89657
952.60        68.78592
952.99        68.60077
953.38        68.36766
953.77        68.07068
954.16        67.67411
954.55        67.19057
954.94        66.63647
955.33        66.15224
955.72        65.95969
956.11         66.0952
956.50        66.50596
956.89        66.94859
957.28        66.98574
957.66        66.54279
958.05        65.74973
958.44        64.90723
958.83         64.5005
959.22        64.64117
959.61        65.13139
960.00        65.79955
960.39        66.38042
960.78        66.75575
961.16        67.04058
961.55        67.07584
961.94         66.6958
962.33        65.93255
962.72        64.88458
963.11        63.87379
963.49          63.379
963.88        63.49598
964.27        64.10239
964.66        64.97884
965.04        65.71051
965.43         66.0532
965.82        66.15932
966.21        66.10699
966.60        66.04359
966.98        66.02972
967.37        65.94611
967.76        65.85919
968.15        65.89082
968.53        66.07793
968.92        66.43774
969.31        66.78797
969.69        66.81416
970.08        66.47149
970.47        65.85479
970.86        65.33083
971.24        65.55105
971.63        66.54394
972.02        68.03774
972.40        69.58372
972.79        70.43165
973.17        70.53546
973.56        70.04993
973.95        69.27244
974.33        68.69614
974.72        68.50072
975.11         68.5192
975.49        68.62534
975.88        68.64987
976.26        68.53403
976.65        68.37783
977.04        68.15189
977.42        67.76067
977.81         67.1666
978.19        66.33571
978.58        65.60754
978.96        65.51787
979.35        66.13159
979.74        67.30755
980.12        68.54446
980.51        68.79812
980.89         67.9556
981.28        66.24004
981.66        64.25674
982.05        63.18297
982.43        63.38556
982.82        64.48092
983.20         66.0403
983.59        67.23033
983.97         67.8778
984.35        68.15151
984.74         68.1451
985.12        67.99633
985.51        67.78629
985.89        67.48695
986.28        67.15253
986.66        66.97595
987.04        66.95825
987.43        67.04446
987.81        67.25108
988.20        67.49451
988.58        67.75687
988.96        68.03625
989.35        68.11672
989.73        67.75513
990.12         66.8653
990.50        65.42947
990.88        63.79698
991.27        62.84699
991.65        62.91196
992.03        63.80675
992.42        64.82116
992.80        65.31837
993.18        65.05184
993.56        64.18795
993.95        63.15561
994.33         62.7778
994.71        63.46154
995.10        64.63425
995.48        65.84734
995.86        66.56036
996.24        66.73949
996.63        66.56942
997.01        66.19571
997.39        65.84898
997.77        65.66442
998.15        65.51633
998.54        65.41958
998.92        65.44003
999.30        65.56177
999.68         65.8951
1000.06        66.22517
1000.45        66.06664
1000.83        65.41277
1001.21        64.32724
1001.59        63.41763
1001.97        63.58563
1002.35        65.02599
1002.73        67.64966
1003.12        70.55706
1003.50        71.64968
1003.88        70.37938
1004.26        67.44638
1004.64        64.44023
1005.02        63.36189
1005.40        64.48304
1005.78         67.2481
1006.16        70.42515
1006.54        71.79049
1006.92        70.66886
1007.30        67.71233
1007.69        64.33125
1008.07        62.76578
1008.45        63.68945
1008.83        66.33991
1009.21        69.34982
1009.59        70.78052
1009.97        70.10974
1010.35        67.72699
1010.73        64.56283
1011.11        62.97161
1011.49         64.0266
1011.86        67.00195
1012.24        70.25797
1012.62        71.85258
1013.00        71.41006
1013.38        69.65294
1013.76        67.37551
1014.14        65.84138
1014.52        65.52029
1014.90        65.99726
1015.28        67.06917
1015.66        68.33972
1016.04        69.49525
1016.41        70.73015
1016.79        71.62565
1017.17        71.91479
1017.55         71.6001
1017.93        70.78387
1018.31         69.7635
1018.69        69.03621
1019.06        68.81111
1019.44        69.01647
1019.82        69.62954
1020.20         70.5376
1020.58        71.48418
1020.95        72.22566
1021.33        72.67514
1021.71        72.70543
1022.09        72.29261
1022.46        71.52798
1022.84        70.13326
1023.22         67.4509
1023.60        63.37481
1023.97        57.72634
1024.35        52.03618
1024.73        49.37758
