SpectraSmart Spectrum 2.9.0.0
--------- Device Information -----------
Spectrum Name :  反射率_0
Saving Time :  2024/04/27 23:00:04
Spectro-Module Model Name : SE2030-DUVN
Spectro-Module Serial Number : OS361AC55029948
Wavelength Start : 200
Wavelength End : 1025
Wavelength Unit : Wavelength(nm)
Spectrum Unit : Reflectance(%)
-----------Spectrum Setting ------------
Integration Time : 20ms
Average : 10
Boxcar : 0
Background removal :  enabled
linearity correction :  enabled
SC :  disabled
Intensity correction :  disabled
DWT denoise :  enabled
savitzky-golay :  disabled
FFT :  disabled
Running average :  disabled
Kalman :  disabled
High pass :  disabled
---------------BEGIN--------------------
Wavelength(nm)             Reflectance(%)
200.29               0
200.75       -0.526783
201.21        39.09046
201.67        65.47509
202.13        70.62482
202.58        62.08476
203.04        46.78594
203.50        31.86124
203.96        27.49974
204.42        33.82583
204.88        44.87209
205.34        55.49421
205.80         61.9149
206.26        63.94432
206.72        62.25898
207.18        56.70202
207.64        51.08344
208.10        49.95897
208.55         52.2841
209.01        52.51064
209.47        47.50134
209.93        34.16197
210.39      -0.5503066
210.85       -105.3507
211.31        -233.657
211.77       -83.05312
212.23        16.96898
212.69        51.96741
213.14         61.5597
213.60        58.80165
214.06        46.34554
214.52        22.32952
214.98        4.432037
215.44        11.99281
215.90        28.35076
216.36        42.02833
216.81        50.02666
217.27        53.97115
217.73        56.74783
218.19        57.66775
218.65        54.73688
219.11        47.65961
219.57        36.14441
220.02        23.35432
220.48        19.03798
220.94        25.61861
221.40        38.84282
221.86        52.33373
222.32        59.85079
222.77        61.55532
223.23         60.1091
223.69        57.75422
224.15        56.71236
224.61        57.36198
225.06        58.68893
225.52         60.4785
225.98        61.73009
226.44        61.97469
226.90        61.63746
227.36        60.92189
227.81        59.78688
228.27         58.2463
228.73        56.19583
229.19        53.58292
229.65        50.63257
230.10        47.70257
230.56        45.28743
231.02        43.60437
231.48        42.92786
231.93        43.09523
232.39        43.90997
232.85        45.19263
233.31        46.74211
233.77        48.35968
234.22        50.11171
234.68        51.36678
235.14        51.38948
235.60        50.10038
236.05        47.44286
236.51        44.51423
236.97        43.80829
237.43        46.21724
237.88        51.24798
238.34        56.40581
238.80        58.99765
239.26        58.25339
239.71        53.55867
240.17         45.0116
240.63        39.95267
241.08        44.96544
241.54        54.89313
242.00        62.66346
242.46         64.9959
242.91        62.20747
243.37        52.86188
243.83        31.99916
244.28         4.30886
244.74       0.7316087
245.20        22.91966
245.66        44.12033
246.11        52.89284
246.57        52.36649
247.03        45.48434
247.48        32.40809
247.94        22.82279
248.40        26.92965
248.85        37.91025
249.31        50.41373
249.77        61.01284
250.22        68.51398
250.68        73.85178
251.14        76.57648
251.59        75.91863
252.05        71.88475
252.51        63.34382
252.96         49.8365
253.42        38.11262
253.88        34.29658
254.33        37.04084
254.79        41.20563
255.25        42.38763
255.70        41.10892
256.16        39.58831
256.62        39.27829
257.07         41.5815
257.53        45.77613
257.99        50.00062
258.44        53.18684
258.90        54.86443
259.35         54.9688
259.81        54.37904
260.27        53.18526
260.72        51.48333
261.18        49.81868
261.63        48.09348
262.09        46.65759
262.55        45.55725
263.00        44.70182
263.46        44.11448
263.91        43.71802
264.37        43.69271
264.83        43.89447
265.28        44.20821
265.74        44.40356
266.19        44.00773
266.65         43.0809
267.11        41.75946
267.56        40.35485
268.02        39.46171
268.47        39.15591
268.93        39.23874
269.38        39.46717
269.84        39.48128
270.30        39.15133
270.75        38.60434
271.21        37.84097
271.66        36.81057
272.12        35.59993
272.57        34.21864
273.03        32.93214
273.48        32.08068
273.94        31.76126
274.39        31.80578
274.85        32.02492
275.31        32.06281
275.76        31.80757
276.22        31.38863
276.67         30.8318
277.13        30.27135
277.58        29.70844
278.04        29.15453
278.49        28.58529
278.95        28.08275
279.40        27.60967
279.86        27.21503
280.31        26.85721
280.77         26.5748
281.22        26.32805
281.68        26.15578
282.13        25.99099
282.59        25.78688
283.04        25.52004
283.50        25.20672
283.95        24.91466
284.41        24.78687
284.86        24.81707
285.32        24.97044
285.77        25.09288
286.22        24.99677
286.68        24.67327
287.13        24.16138
287.59        23.63935
288.04        23.30345
288.50        23.22637
288.95        23.31838
289.41        23.46532
289.86        23.45199
290.32        23.25603
290.77        22.94267
291.22        22.64239
291.68        22.54107
292.13        22.66654
292.59        22.96317
293.04        23.31771
293.50        23.58194
293.95        23.71043
294.40        23.76665
294.86        23.83332
295.31        24.02817
295.77        24.38984
296.22         24.8634
296.68        25.40242
297.13        25.91227
297.58        26.36521
298.04        26.78123
298.49        27.17784
298.95        27.59223
299.40        28.03003
299.85        28.47285
300.31        28.92146
300.76        29.34239
301.21         29.7363
301.67        30.11873
302.12        30.46825
302.58        30.78709
303.03        31.06361
303.48        31.30479
303.94        31.55995
304.39        31.85958
304.84        32.22007
305.30        32.63275
305.75         33.0167
306.20        33.28575
306.66        33.43506
307.11        33.46191
307.57        33.46408
308.02        33.53215
308.47         33.6973
308.93        33.92406
309.38        34.10986
309.83        34.12282
310.29        33.95445
310.74        33.64806
311.19        33.30735
311.65        33.09216
312.10         33.0255
312.55        33.05771
313.00          33.132
313.46         33.1615
313.91        33.10939
314.36        33.00809
314.82        32.84241
315.27         32.5832
315.72        32.24306
316.18        31.84049
316.63        31.43824
317.08        31.15963
317.53        31.03004
317.99        31.01451
318.44        31.05139
318.89        31.01796
319.35        30.88034
319.80         30.6761
320.25        30.44386
320.70        30.25367
321.16        30.11827
321.61        30.01179
322.06        29.91584
322.51        29.80914
322.97        29.67653
323.42        29.54161
323.87        29.37839
324.32        29.14938
324.78        28.85067
325.23        28.49618
325.68         28.1431
326.13         27.8932
326.59        27.75813
327.04         27.7339
327.49         27.7307
327.94        27.60583
328.39        27.32175
328.85        26.90932
329.30        26.46751
329.75        26.16087
330.20        26.04185
330.66        26.05788
331.11        26.12691
331.56        26.06563
332.01        25.82897
332.46        25.47028
332.92        25.09176
333.37        24.89543
333.82        24.92459
334.27        25.10596
334.72         25.3352
335.17        25.44439
335.63        25.37318
336.08        25.19451
336.53        24.93419
336.98        24.64742
337.43        24.37405
337.88        24.10042
338.34        23.88352
338.79        23.82163
339.24        23.92449
339.69        24.16252
340.14        24.43893
340.59        24.58805
341.05        24.56324
341.50        24.41382
341.95        24.19021
342.40        23.98969
342.85        23.84675
343.30        23.72692
343.75        23.63787
344.20        23.59244
344.66        23.58983
345.11        23.63683
345.56        23.68339
346.01        23.63921
346.46        23.49218
346.91        23.26492
347.36        23.04502
347.81        22.97029
348.26        23.06346
348.72        23.27881
349.17        23.51217
349.62        23.59608
350.07         23.4894
350.52        23.23994
350.97        22.95096
351.42        22.78763
351.87        22.79046
352.32        22.90864
352.77        23.04193
353.22        23.04073
353.67        22.87184
354.13        22.59492
354.58        22.28506
355.03        22.10921
355.48        22.10645
355.93        22.23114
356.38        22.37062
356.83        22.35098
357.28        22.14083
357.73        21.80195
358.18        21.46036
358.63        21.30985
359.08         21.3846
359.53        21.60764
359.98        21.85836
360.43        21.95115
360.88        21.83737
361.33        21.57709
361.78        21.23372
362.23        20.94659
362.68        20.76667
363.13        20.58782
363.58        20.38331
364.03        20.47935
364.48         20.2717
364.93        20.24272
365.38        20.20512
365.83        20.14993
366.28        20.06467
366.73        19.95528
367.18         19.8215
367.63        19.65378
368.08        19.45732
368.53        19.23621
368.98        19.01666
369.43        18.83821
369.88          18.714
370.33        18.64378
370.78        18.59721
371.23        18.52278
371.68        18.40491
372.13        18.24551
372.58        18.09334
373.03        18.02877
373.48        18.06264
373.93        18.17303
374.38        18.26256
374.83        18.17912
375.28        17.90264
375.72        17.47742
376.17        17.06179
376.62        16.86511
377.07        16.92388
377.52        17.15214
377.97        17.41699
378.42        17.51002
378.87        17.38003
379.32        17.10979
379.77        16.76349
380.22        16.43413
380.67        16.16233
381.11        15.91722
381.56        15.73557
382.01        15.68032
382.46        15.75144
382.91        15.93162
383.36        16.12766
383.81        16.18924
384.26        16.08187
384.71        15.84115
385.15        15.54513
385.60        15.35278
386.05        15.29525
386.50        15.33789
386.95        15.41343
387.40        15.41569
387.85        15.32751
388.29        15.18183
388.74        15.06883
389.19        15.07796
389.64        15.21582
390.09        15.43101
390.54        15.64769
390.98        15.74598
391.43        15.70178
391.88        15.56037
392.33        15.35993
392.78        15.18016
393.23        15.05318
393.67        14.89313
394.12        14.73065
394.57        14.77849
395.02        14.76931
395.47        14.67473
395.91        14.46692
396.36        14.38704
396.81        14.45089
397.26        14.53033
397.71        14.57459
398.15        14.56682
398.60         14.5134
399.05        14.36836
399.50        14.19664
399.95        14.18009
400.39        14.28697
400.84        14.28624
401.29        14.16414
401.74        14.03892
402.18          13.947
402.63        13.92371
403.08        13.96054
403.53        13.96256
403.97        13.92714
404.42        13.93144
404.87        13.96551
405.32         13.9874
405.76        13.98849
406.21        13.94123
406.66        13.87114
407.11        13.88476
407.55        13.95034
408.00        13.91607
408.45        13.76952
408.90        13.54022
409.34        13.30213
409.79         13.2378
410.24        13.33048
410.68        13.38004
411.13         13.3716
411.58        13.43378
412.03        13.55639
412.47        13.64705
412.92        13.68243
413.37        13.69497
413.81        13.67496
414.26        13.61983
414.71        13.53308
415.15        13.41443
415.60         13.3047
416.05        13.28022
416.49         13.3573
416.94        13.51181
417.39        13.67847
417.83        13.75521
418.28        13.71291
418.73        13.57356
419.17        13.40051
419.62        13.30229
420.07        13.31101
420.51         13.4002
420.96        13.50068
421.41        13.52196
421.85        13.44432
422.30        13.24434
422.74        13.02433
423.19        13.09451
423.64        13.41125
424.08         13.5954
424.53         13.5585
424.98         13.5524
425.42          13.575
425.87        13.37981
426.31        13.05863
426.76         13.0391
427.21        13.26037
427.65        13.23551
428.10        12.99096
428.54        12.89882
428.99        12.96477
429.44        13.11836
429.88        13.25324
430.33         13.0458
430.77        12.63536
431.22        12.58129
431.66        12.88565
432.11        13.15093
432.56        13.30731
433.00        13.46591
433.45        13.47356
433.89        13.19378
434.34        12.88046
434.78        12.13052
435.23        12.53102
435.67         12.9092
436.12        13.11114
436.57        13.26073
437.01        13.22354
437.46        13.19382
437.90        13.23129
438.35        13.27685
438.79        12.94549
439.24        12.82246
439.68        12.81462
440.13         12.8651
440.57        12.92802
441.02        13.04795
441.46        13.17175
441.91        13.01665
442.35        12.70986
442.80        12.83402
443.24        13.27758
443.69        13.28268
444.13        12.86673
444.58        12.67129
445.02        12.70114
445.47        12.62748
445.91         12.4609
446.36        12.39292
446.80        12.42707
447.24        12.50249
447.69        12.59755
448.13        12.71419
448.58           12.82
449.02        12.85456
449.47        12.82906
449.91        12.82245
450.36        12.84417
450.80        12.84456
451.25        12.82975
451.69        12.83243
452.13        12.84999
452.58        12.86345
453.02        12.86294
453.47        12.83896
453.91         12.7884
454.36        12.73751
454.80         12.6767
455.24        12.57794
455.69        12.47561
456.13         12.3895
456.58        12.34742
457.02        12.43507
457.46        12.57889
457.91        12.55361
458.35        12.42453
458.79        12.36789
459.24        12.40587
459.68        12.41892
460.13        12.41335
460.57        12.37869
461.01        12.37259
461.46        12.40698
461.90        12.41382
462.34        12.42107
462.79        12.61608
463.23        12.65863
463.68        12.62085
464.12        12.59378
464.56        12.59508
465.01         12.6515
465.45        12.69709
465.89        12.63109
466.34        12.49541
466.78         12.3635
467.22        12.24988
467.67        12.43452
468.11        12.36749
468.55        12.35633
468.99        12.26053
469.44        12.24192
469.88        12.30108
470.32         12.3416
470.77         12.3614
471.21        12.39497
471.65        12.44311
472.10        12.49769
472.54        12.54202
472.98        12.56957
473.42        12.58299
473.87        12.54942
474.31        12.50098
474.75        12.60599
475.20        12.82391
475.64        12.90242
476.08        12.82938
476.52        12.83499
476.97        12.93293
477.41         12.8711
477.85        12.78769
478.29        12.88002
478.74        12.83009
479.18        12.77969
479.62        13.04076
480.06        13.11697
480.50         13.1369
480.95        13.10202
481.39        13.02128
481.83        13.19108
482.27        13.22371
482.72        13.21863
483.16        13.44273
483.60        13.48693
484.04        13.44262
484.48        13.38993
484.93        13.50442
485.37        13.43966
485.81         13.7259
486.25        14.27599
486.69        13.90284
487.14        13.35298
487.58        14.64224
488.02        14.01378
488.46        14.45928
488.90        14.57793
489.34        14.04644
489.79         13.8627
490.23        14.27965
490.67        14.60268
491.11        14.85217
491.55         14.8189
491.99        14.59687
492.43        14.61519
492.88        14.90047
493.32        15.15973
493.76        15.32843
494.20        15.49087
494.64        15.64528
495.08        15.71804
495.52        15.74879
495.96        15.93784
496.41        16.29075
496.85        16.35176
497.29        16.19924
497.73        16.39745
498.17        16.86709
498.61        17.06125
499.05        16.93818
499.49        16.85764
499.93        16.88895
500.37        16.95949
500.82        17.06276
501.26        17.22847
501.70        17.45779
502.14        17.38407
502.58        17.62268
503.02        17.70386
503.46        17.73589
503.90        17.74664
504.34        17.72975
504.78         17.7335
505.22        17.75896
505.66        17.76553
506.10         17.7758
506.54        17.87185
506.98        18.05974
507.42        18.22678
507.86        18.46739
508.30         18.5899
508.74        18.61907
509.18        18.57134
509.62        18.49592
510.06        18.47263
510.50        18.52253
510.94        18.62321
511.38        18.74089
511.82        18.82163
512.26        18.84946
512.70        18.84361
513.14         18.8255
513.58        18.81954
514.02        18.83444
514.46        18.87467
514.90        18.92929
515.34        18.91591
515.78        18.93884
516.22        18.91673
516.66        18.90156
517.10        18.91918
517.54        18.97469
517.98         19.0577
518.42        19.13675
518.86        19.16537
519.30        19.13335
519.74        19.05379
520.18        18.96382
520.62        18.92138
521.06        18.93925
521.50        19.00112
521.93        19.06965
522.37        19.07555
522.81        19.00734
523.25        18.88611
523.69        18.75378
524.13        18.67562
524.57        18.66483
525.01        18.69724
525.45        18.73516
525.89         18.7194
526.32        18.63348
526.76        18.50844
527.20        18.36774
527.64        18.25082
528.08        18.17085
528.52         18.1107
528.96        18.07233
529.40        18.05949
529.83        18.06581
530.27        18.09324
530.71        18.10947
531.15        18.06221
531.59        17.94615
532.03        17.77815
532.46        17.60646
532.90        17.52215
533.34        17.53994
533.78        17.63114
534.22        17.74661
534.66        17.81057
535.09        17.80235
535.53        17.74948
535.97        17.67734
536.41        17.62843
536.85        17.61694
537.28        17.62892
537.72        17.65665
538.16        17.68635
538.60        17.71474
539.04        17.75424
539.47        17.80005
539.91        17.85368
540.35        17.91044
540.79           17.97
541.22        18.03659
541.66        18.11885
542.10        18.21656
542.54        18.32908
542.97        18.43955
543.41        18.53327
543.85        18.60546
544.29        18.66135
544.72        18.72113
545.16        18.83151
545.60        18.99298
546.04        19.19214
546.47        19.39672
546.91        19.54969
547.35        19.63818
547.79        19.69028
548.22        19.73295
548.66        19.80436
549.10        19.92871
549.53        20.16265
549.97        20.46831
550.41        20.71331
550.84        20.87508
551.28        21.01941
551.72        21.15997
552.15        21.29314
552.59        21.43049
553.03        21.55989
553.46        21.68451
553.90        21.82953
554.34        21.99155
554.77        22.17302
555.21        22.34416
555.65        22.45571
556.08        22.47891
556.52         22.4844
556.96        22.49279
557.39        22.56873
557.83        22.70527
558.27        22.78857
558.70        22.82344
559.14        22.90149
559.57        23.01543
560.01         23.1415
560.45        23.24697
560.88        23.26961
561.32        23.25486
561.75        23.27363
562.19        23.34769
562.63        23.49957
563.06        23.67476
563.50        23.68772
563.93        23.57116
564.37        23.58752
564.80        23.74033
565.24          23.896
565.68        24.02617
566.11        24.13876
566.55        24.23184
566.98         24.3227
567.42        24.41892
567.85        24.46277
568.29        24.50562
568.72        24.61881
569.16        24.80282
569.60        25.02617
570.03        25.29289
570.47        25.37179
570.90        25.57211
571.34        25.96322
571.77        26.09134
572.21        26.13573
572.64        26.48193
573.08        26.35931
573.51        26.57732
573.95        26.67869
574.38        26.74484
574.82        27.08143
575.25        26.91182
575.69        26.83149
576.12         26.8311
576.56        27.30795
576.99        27.43279
577.42        27.37473
577.86        27.40082
578.29        27.50746
578.73        27.26507
579.16        27.20871
579.60        27.09943
580.03        26.99003
580.47        26.89301
580.90        26.63535
581.33        26.66598
581.77        26.75337
582.20        26.45884
582.64        26.48082
583.07        26.23691
583.51        26.12044
583.94        26.07793
584.37        26.02866
584.81        25.96648
585.24        25.80527
585.68         25.6054
586.11        25.55174
586.54        25.31982
586.98        25.32953
587.41        25.34431
587.85        25.16533
588.28         25.0034
588.71        25.02388
589.15        25.25421
589.58        24.87969
590.01        25.26162
590.45        25.26049
590.88        24.69576
591.31        24.64151
591.75        24.91259
592.18        24.99279
592.61        24.87457
593.05        25.08011
593.48        25.43934
593.91        25.03214
594.35         25.2196
594.78        25.38942
595.21        25.48413
595.65        25.56937
596.08        25.53926
596.51        25.78144
596.94        25.89523
597.38        26.21961
597.81        26.68001
598.24        26.56943
598.68        26.99355
599.11        27.64379
599.54        27.65163
599.97        28.05731
600.41        28.50432
600.84        28.85743
601.27        29.08474
601.70        29.38377
602.14        29.51587
602.57        30.08175
603.00        30.60526
603.43        31.11877
603.87        31.53022
604.30        31.71945
604.73        32.11967
605.16        32.99088
605.60        33.43366
606.03        33.91888
606.46        34.17961
606.89        34.37901
607.32        34.91056
607.76        35.63395
608.19        35.65407
608.62        35.97752
609.05        36.38004
609.48        36.83319
609.92        37.22483
610.35        37.67018
610.78        37.97081
611.21        37.61453
611.64        38.54397
612.07        38.78791
612.50        38.92934
612.94        39.21164
613.37        39.69303
613.80        39.83675
614.23        40.29564
614.66         40.5794
615.09        40.85445
615.52        41.17167
615.96        41.54958
616.39        41.48836
616.82        41.70978
617.25        42.02553
617.68        41.98056
618.11        42.22747
618.54        42.57939
618.97        42.99195
619.40        43.35145
619.84        43.82054
620.27        43.89694
620.70        43.89028
621.13        43.67117
621.56           44.01
621.99        43.88207
622.42        43.90681
622.85        44.15753
623.28        44.46001
623.71        44.32927
624.14         44.3561
624.57        44.49184
625.00        44.66476
625.43        44.48425
625.86         44.3647
626.29        44.18644
626.72        44.19732
627.15        43.84055
627.58        43.71913
628.01        43.70501
628.44        43.19266
628.87        42.83041
629.30        42.88725
629.73        42.40712
630.16        41.98655
630.59        41.76091
631.02        41.50653
631.45        41.29576
631.88        41.00262
632.31        40.63216
632.74        40.02171
633.17        39.60921
633.60        39.12555
634.03        38.70488
634.46        38.32748
634.89         37.9573
635.32        37.52081
635.75        37.00396
636.18        36.45881
636.61        35.92837
637.04        35.43557
637.47        35.01628
637.89        34.74432
638.32        34.55439
638.75        34.28779
639.18         33.9218
639.61        33.53493
640.04        33.15307
640.47        32.79832
640.90        32.48752
641.33        32.20185
641.76        31.93868
642.18        31.77406
642.61        31.58213
643.04         31.4641
643.47        31.38283
643.90         31.3357
644.33        31.31785
644.76        31.32926
645.18         31.3634
645.61         31.4051
646.04        31.45451
646.47        31.51759
646.90        31.61271
647.33        31.76416
647.75        31.98491
648.18        32.28443
648.61        32.64047
649.04        33.01727
649.47        33.40784
649.89        33.78907
650.32        34.19498
650.75        34.75039
651.18        35.41056
651.61        35.98557
652.03        36.39102
652.46        36.68706
652.89        37.03503
653.32         37.2938
653.74        37.69646
654.17        38.93003
654.60         39.5638
655.03        39.76503
655.46        40.25335
655.88        41.39694
656.31         42.5685
656.74        44.38488
657.16        44.26361
657.59        44.19119
658.02        43.74983
658.45        44.40981
658.87        44.68507
659.30        45.04643
659.73        45.11147
660.15        45.53556
660.58        45.57353
661.01        46.22884
661.44        47.11247
661.86        47.44645
662.29        47.27778
662.72        47.32973
663.14        47.69898
663.57        48.07108
664.00        48.40323
664.42        48.68456
664.85        48.91235
665.27        49.15848
665.70        49.42068
666.13        49.64008
666.55        49.81646
666.98        49.96918
667.41         50.1216
667.83        50.29879
668.26        50.50192
668.69        50.73817
669.11        50.96769
669.54         51.1336
669.96        51.23427
670.39        51.23055
670.82        51.20663
671.24        51.40445
671.67        51.78644
672.09        52.05753
672.52        52.18756
672.94        52.27962
673.37        52.36519
673.80        52.44459
674.22         52.5701
674.65        52.66268
675.07        52.75339
675.50        52.88346
675.92        53.05923
676.35        53.24373
676.77        53.43204
677.20        53.63357
677.62        53.83139
678.05        53.97857
678.47        54.07011
678.90        54.13285
679.32        54.18333
679.75        54.26085
680.17        54.37323
680.60         54.5097
681.02         54.6673
681.45        54.81979
681.87        54.96748
682.30        55.11855
682.72        55.26409
683.15        55.37254
683.57        55.45634
684.00        55.51072
684.42        55.57465
684.85        55.71503
685.27        55.93114
685.70        56.19872
686.12        56.45545
686.54        56.63358
686.97        56.70229
687.39        56.67882
687.82        56.61711
688.24        56.53267
688.66        56.71336
689.09        56.80099
689.51        56.88578
689.94        57.05075
690.36         57.2767
690.78        57.43275
691.21        57.51302
691.63        57.59875
692.06        57.69437
692.48        57.75321
692.90        57.79907
693.33         57.8446
693.75        57.89022
694.17        58.01071
694.60         58.2198
695.02        58.12479
695.44        58.36269
695.87        58.47383
696.29         58.6433
696.71        58.69331
697.14        58.67825
697.56        58.93195
697.98        59.35374
698.41        59.58687
698.83        59.59306
699.25        59.57449
699.68         59.5763
700.10        59.63871
700.52        59.77402
700.94        59.97554
701.37        60.17226
701.79        60.27877
702.21        60.26006
702.64        60.16129
703.06        60.04778
703.48        60.03911
703.90        60.16888
704.33        60.39407
704.75        60.66312
705.17        60.87156
705.59        60.98046
706.01        60.99664
706.44        60.97053
706.86        61.05766
707.28        61.09998
707.70        61.33355
708.12        61.54477
708.55        61.52825
708.97        61.31089
709.39        61.31944
709.81        61.56629
710.23        61.70153
710.66        61.70725
711.08        61.85152
711.50        62.07835
711.92        62.11483
712.34        61.99648
712.76        61.99923
713.19        62.12815
713.61        62.22959
714.03        62.28832
714.45        62.40928
714.87        62.58943
715.29        62.76822
715.71         62.9362
716.13        63.11116
716.56        63.24552
716.98        63.32677
717.40        63.32892
717.82        63.26136
718.24        63.18227
718.66        63.18987
719.08         63.3049
719.50        63.49854
719.92        63.71017
720.34        63.83913
720.76        63.85921
721.19        63.79465
721.61        63.70513
722.03        63.65879
722.45        63.67913
722.87        63.74363
723.29         63.8312
723.71        63.90729
724.13        63.96355
724.55        64.01904
724.97        64.08098
725.39        64.15804
725.81        64.25004
726.23        64.34025
726.65        64.43814
727.07        64.56344
727.49        64.71461
727.91        64.89009
728.33        65.04083
728.75        65.08403
729.17        65.01029
729.59        64.84904
730.01        64.68501
730.43        64.65699
730.85        64.78921
731.27        65.02607
731.69        65.29345
732.10        65.48161
732.52        65.54772
732.94        65.56116
733.36        65.49898
733.78         65.4178
734.20        65.26944
734.62        65.33044
735.04        64.53391
735.46        65.53088
735.88        65.40024
736.30        65.72249
736.72        65.71057
737.13        65.73729
737.55        65.78276
737.97         65.8631
738.39        65.95017
738.81        65.72642
739.23        65.32483
739.65        65.48742
740.06        66.07249
740.48        66.32515
740.90        66.17671
741.32        66.10699
741.74        66.08001
742.16        66.10001
742.57        66.16386
742.99        66.27781
743.41        66.40308
743.83        66.46448
744.25        66.45097
744.67        66.37986
745.08         66.3222
745.50        66.35883
745.92         66.5153
746.34        66.75008
746.75         66.9922
747.17        67.11465
747.59        67.08656
748.01        66.98695
748.42        66.87112
748.84        66.70434
749.26        66.55476
749.68         66.6565
750.09        66.96062
750.51         66.9259
750.93        67.00375
751.35        66.91084
751.76        66.87212
752.18         66.7905
752.60        66.64206
753.01        67.16017
753.43        67.05116
753.85        67.17419
754.27        67.10236
754.68        67.53937
755.10        67.34658
755.52        67.51215
755.93        67.71144
756.35        67.94798
756.77        68.15266
757.18        68.25991
757.60        68.35781
758.02        68.22263
758.43         67.9295
758.85        68.12203
759.26        68.46769
759.68        67.92945
760.10        67.99783
760.51        67.16073
760.93        68.20039
761.34        67.41982
761.76        68.93136
762.18        68.79372
762.59        68.20211
763.01        67.97821
763.42        68.28658
763.84        68.55242
764.26        68.68268
764.67        68.82207
765.09        68.95043
765.50        68.94989
765.92        68.87024
766.33        68.79227
766.75        68.69766
767.16        68.61992
767.58        68.57129
768.00        68.69458
768.41        68.99202
768.83         69.3065
769.24        69.51921
769.66        69.56958
770.07        69.43513
770.49        69.12012
770.90        68.76063
771.32        68.73006
771.73         68.9968
772.15          69.062
772.56        68.90987
772.97        68.90939
773.39        69.04609
773.80        69.03732
774.22        68.92422
774.63          69.148
775.05        69.59665
775.46        69.81032
775.88        69.71479
776.29        69.59273
776.70        69.51126
777.12        69.49183
777.53        69.57644
777.95        69.72128
778.36        69.90726
778.77         70.0584
779.19        70.15252
779.60        70.30769
780.02        70.45472
780.43        70.36414
780.84        70.12141
781.26        70.01488
781.67        70.15201
782.09        70.53844
782.50        70.91408
782.91        71.24026
783.33        70.42359
783.74        70.30313
784.15        70.57709
784.57        70.69717
784.98        70.64166
785.39        70.72322
785.81        70.91084
786.22        70.97152
786.63         70.9082
787.04        70.90231
787.46        70.96811
787.87        70.98854
788.28        70.99379
788.70        71.05059
789.11        71.13798
789.52        71.29133
789.93        71.45934
790.35          71.436
790.76         71.2767
791.17        71.23967
791.58        71.33102
792.00        71.33601
792.41        71.27715
792.82        71.27517
793.23         71.3607
793.65        71.48822
794.06        71.65652
794.47         71.9082
794.88        72.18502
795.29        72.13516
795.71        72.18223
796.12        72.04324
796.53        71.89518
796.94         71.7453
797.35        71.66477
797.76        71.82342
798.18        72.14311
798.59        72.30504
799.00        72.27445
799.41        72.19305
799.82        72.12449
800.23        72.12593
800.64        72.21928
801.06         72.3583
801.47        72.51202
801.88        72.55475
802.29        72.45851
802.70        72.26176
803.11        72.03506
803.52         71.8874
803.93        71.86528
804.34        71.97609
804.75        72.11634
805.17         72.3057
805.58        72.54005
805.99        72.62794
806.40        72.60946
806.81        72.98966
807.22        73.54469
807.63         73.2804
808.04        72.37811
808.45        72.04187
808.86        72.39964
809.27        72.80116
809.68        73.07408
810.09        73.20777
810.50        73.13285
810.91        72.85461
811.32        72.51591
811.73        72.35052
812.14         72.4244
812.55        72.68679
812.96        73.00854
813.37        73.15541
813.78        73.07003
814.19        72.84035
814.60        72.60396
815.01        72.55455
815.42        72.73682
815.83        73.08659
816.24        73.48777
816.65        73.72448
817.05        73.72515
817.46         73.5294
817.87        73.25322
818.28        73.01583
818.69        72.86568
819.10        72.77271
819.51        72.74933
819.92        72.81799
820.33        72.97079
820.74         73.1963
821.14        73.44637
821.55        73.67912
821.96         73.8556
822.37        73.98077
822.78        74.04043
823.19        74.01984
823.60        73.92787
824.00        73.79653
824.41        73.63236
824.82         73.5367
825.23        73.53422
825.64        73.60909
826.04        73.76104
826.45        73.93986
826.86        74.12954
827.27        74.33438
827.68        74.51157
828.08        74.62372
828.49        74.59359
828.90        74.46677
829.31        74.30122
829.72        74.20576
830.12        74.23012
830.53         74.2962
830.94        74.37746
831.35         74.3863
831.75        74.32269
832.16         74.1851
832.57        74.00996
832.97        73.82292
833.38        73.64545
833.79        73.47763
834.20        73.38458
834.60        73.46078
835.01        73.71899
835.42         74.1174
835.82         74.5596
836.23        74.79274
836.64        74.77719
837.04        74.59784
837.45        74.31487
837.86        74.13322
838.26        74.13133
838.67        74.24741
839.08        74.45583
839.48        74.69341
839.89        74.92336
840.29        75.14915
840.70        75.37439
841.11         75.6062
841.51        75.85004
841.92        76.05138
842.33        76.15376
842.73        76.07007
843.14        75.75096
843.54        75.27625
843.95        74.77017
844.35        74.44878
844.76        74.36113
845.17        74.45538
845.57        74.65593
845.98        74.78574
846.38        74.81045
846.79        74.75585
847.19        74.65553
847.60        74.51225
848.00        74.36906
848.41        74.18537
848.81        74.03326
849.22        73.96485
849.62        74.02602
850.03        74.17551
850.43        74.38191
850.84        74.50343
851.24        74.55781
851.65        74.52655
852.05        74.50835
852.46        74.56507
852.86        74.70927
853.27        74.91528
853.67        75.07628
854.07        75.23292
854.48        75.33442
854.88         75.4207
855.29        75.37548
855.69        75.19287
856.10        74.78887
856.50        74.27894
856.90        73.73015
857.31        73.27884
857.71        73.02122
858.12        72.87843
858.52         72.8769
858.92        72.91891
859.33        72.95087
859.73        73.02905
860.13        73.09339
860.54        73.06387
860.94        72.95888
861.34        72.75334
861.75        72.48548
862.15        72.29214
862.55        72.17635
862.96        72.12717
863.36        72.08609
863.76        71.93818
864.17        71.66061
864.57         71.3146
864.97        71.00328
865.38        70.86452
865.78        70.97579
866.18        71.27185
866.58        71.63182
866.99        71.85099
867.39        71.89261
867.79        71.78098
868.19        71.62247
868.60        71.54739
869.00        71.58078
869.40        71.70694
869.80        71.86604
870.21        71.95798
870.61        72.01894
871.01        72.02099
871.41        72.00577
871.81        72.02766
872.22        72.07279
872.62        72.15282
873.02        72.23607
873.42        72.25916
873.82        72.21075
874.22        72.12601
874.63        72.06654
875.03        72.09016
875.43        72.21458
875.83        72.40569
876.23        72.63355
876.63        72.84728
877.03        73.01813
877.44         73.1504
877.84        73.22061
878.24        73.16409
878.64          72.981
879.04        72.69296
879.44        72.39762
879.84        72.23136
880.24        72.21574
880.64        72.32234
881.04         72.4544
881.44        72.44015
881.84        72.23344
882.24        71.87486
882.65        71.46204
883.05        71.26388
883.45        71.30241
883.85        71.52084
884.25        71.77276
884.65        71.83807
885.05        71.67435
885.45        71.34411
885.85        71.00869
886.25        70.94397
886.65        71.20995
887.05        71.70609
887.45        72.22421
887.85        72.45557
888.25        72.32375
888.65        71.91272
889.04        71.39103
889.44         71.0835
889.84        71.06074
890.24        71.23485
890.64        71.44241
891.04        71.42626
891.44        71.13802
891.84        70.68748
892.24        70.23932
892.64        70.03656
893.04        70.14458
893.44        70.48569
893.83        70.96516
894.23        71.36732
894.63        71.64739
895.03        71.84223
895.43        72.00449
895.83        72.22104
896.23        72.49991
896.63        72.78706
897.02        73.00406
897.42        73.08749
897.82        73.01885
898.22        72.84995
898.62        72.64301
899.01        72.50673
899.41        72.45952
899.81        72.48002
900.21         72.5638
900.61        72.69904
901.00          72.854
901.40        73.04591
901.80         73.2034
902.20        73.22437
902.59        73.10722
902.99         72.8718
903.39        72.61234
903.79        72.47791
904.18        72.50449
904.58        72.65048
904.98        72.86064
905.38        73.05931
905.77        73.20458
906.17        73.31905
906.57        73.38336
906.96        73.38506
907.36        73.30408
907.76        73.17074
908.15        73.00572
908.55        72.77906
908.95        72.53668
909.34        72.26484
909.74        72.09152
910.14        72.14666
910.53        72.44629
910.93        72.93806
911.33        73.43581
911.72        73.62222
912.12        73.41804
912.52        72.94659
912.91        72.42323
913.31        72.18645
913.70        72.30315
914.10         72.6692
914.49        73.15886
914.89        73.47778
915.29        73.53884
915.68        73.40695
916.08        73.19627
916.47         73.0815
916.87         73.1226
917.26        73.24286
917.66        73.33849
918.05        73.22039
918.45        72.84995
918.84        72.32197
919.24        71.77458
919.64        71.50991
920.03        71.61579
920.42        72.00495
920.82        72.48416
921.21        72.73681
921.61        72.67445
922.00        72.39149
922.40        72.08968
922.79          72.198
923.19         72.7571
923.58        73.63209
923.98        74.47432
924.37        74.83267
924.77        74.59584
925.16        73.89816
925.55        73.01759
925.95        72.43169
926.34        72.30354
926.74        72.49639
927.13        72.85173
927.52        73.00951
927.92        72.90067
928.31        72.63455
928.70        72.38406
929.10        72.38889
929.49        72.69942
929.89        73.19087
930.28        73.75344
930.67        74.08768
931.07        74.09084
931.46        73.87618
931.85        73.54889
932.24        73.31329
932.64        73.22463
933.03         73.2093
933.42        73.22749
933.82        73.21256
934.21        73.14597
934.60        73.08416
934.99        73.00269
935.39        72.82236
935.78        72.58389
936.17        72.30009
936.56        72.10531
936.96        72.21786
937.35        72.70424
937.74        73.42142
938.13        74.17232
938.53        74.68858
938.92        74.89925
939.31        74.85875
939.70        74.62806
940.09         74.3252
940.49        73.99689
940.88        73.67413
941.27         73.3634
941.66        73.07102
942.05        72.81725
942.44        72.64129
942.84        72.60607
943.23        72.73583
943.62        73.04385
944.01        73.47722
944.40        73.95199
944.79         74.3284
945.18         74.5232
945.57        74.53413
945.97        74.32269
946.36        73.91618
946.75        73.32001
947.14        72.57475
947.53        71.77052
947.92        71.07121
948.31        70.56943
948.70        70.26089
949.09        70.17112
949.48        70.31182
949.87        70.63879
950.26        71.10885
950.65        71.59647
951.04        71.90864
951.43        71.98439
951.82        71.85732
952.21        71.56547
952.60        71.20768
952.99        70.85213
953.38        70.49744
953.77        70.21207
954.16        70.08905
954.55        70.13188
954.94        70.31178
955.33        70.54981
955.72        70.70181
956.11        70.71466
956.50        70.62001
956.89        70.42262
957.28        70.14091
957.66         69.8385
958.05        69.51335
958.44         69.2426
958.83        69.14591
959.22        69.22877
959.61        69.41058
960.00        69.66758
960.39        69.95322
960.78        70.22478
961.16        70.54571
961.55        70.66257
961.94        70.26526
962.33        69.35278
962.72        68.07545
963.11        66.90235
963.49        66.51828
963.88        67.05068
964.27        68.32015
964.66        69.88239
965.04        70.92288
965.43        71.08022
965.82        70.60742
966.21         69.8804
966.60        69.50932
966.98        69.64822
967.37        70.04282
967.76        70.46611
968.15        70.48978
968.53        70.01695
968.92        69.30849
969.31        68.51064
969.69         67.7683
970.08        67.18201
970.47        66.70964
970.86         66.6648
971.24        67.58983
971.63        69.37098
972.02        71.68909
972.40        73.93793
972.79        75.17834
973.17        75.33767
973.56         74.6123
973.95        73.36094
974.33        72.22283
974.72        71.46904
975.11        70.93849
975.49        70.59718
975.88        70.40288
976.26        70.31997
976.65        70.42651
977.04        70.59453
977.42         70.5267
977.81        70.11227
978.19        69.37801
978.58        68.65166
978.96         68.4782
979.35        68.96154
979.74         69.9554
980.12        71.12381
980.51        71.69903
980.89        71.61129
981.28        70.99899
981.66        70.22047
982.05        69.96213
982.43        70.41071
982.82        71.28325
983.20        72.34013
983.59        73.05738
983.97        73.37747
984.35        73.41366
984.74        73.21448
985.12        72.85222
985.51        72.40621
985.89        71.90237
986.28        71.49013
986.66         71.4665
987.04        71.83186
987.43        72.47962
987.81        73.25908
988.20        73.78862
988.58        73.98324
988.96        73.92963
989.35        73.61136
989.73        73.11536
990.12         72.4405
990.50        71.48687
990.88        70.49028
991.27        70.03259
991.65        70.28166
992.03        71.11385
992.42        71.85373
992.80        71.86069
993.18        70.88421
993.56        69.00082
993.95        66.74194
994.33        65.42283
994.71        65.75751
995.10        67.14321
995.48        68.75595
995.86        69.60966
996.24        69.61543
996.63        69.02656
997.01        68.32616
997.39        68.42322
997.77        69.60741
998.15        71.44518
998.54        73.25026
998.92        74.20764
999.30        74.13963
999.68        73.29302
1000.06        72.04372
1000.45        71.05777
1000.83         70.6835
1001.21        70.70242
1001.59        70.89125
1001.97        70.87284
1002.35        70.57564
1002.73        70.23846
1003.12        69.97129
1003.50        69.80599
1003.88        69.84949
1004.26        69.91734
1004.64        70.23672
1005.02        71.19595
1005.40        72.76208
1005.78        74.83791
1006.16        76.68069
1006.54        76.93371
1006.92        75.29472
1007.30        72.20806
1007.69        68.80312
1008.07        66.89337
1008.45        67.07976
1008.83        68.81145
1009.21        71.18718
1009.59        72.89001
1009.97        73.53748
1010.35        73.45935
1010.73        72.92138
1011.11        72.57238
1011.49        72.71812
1011.86         73.0881
1012.24        73.30958
1012.62        73.21235
1013.00        72.77471
1013.38        72.23447
1013.76        71.64309
1014.14         71.0013
1014.52        70.39228
1014.90        69.79973
1015.28        69.55904
1015.66        70.29444
1016.04        72.03967
1016.41        74.54291
1016.79        76.92455
1017.17        78.31573
1017.55        78.53464
1017.93        77.90614
1018.31        76.80626
1018.69        75.82308
1019.06        75.24363
1019.44        74.92155
1019.82        75.01173
1020.20        75.77872
1020.58        77.09224
1020.95        78.63979
1021.33        80.02413
1021.71        80.70154
1022.09        80.57041
1022.46        79.74687
1022.84        78.20637
1023.22        75.79699
1023.60        72.50011
1023.97        68.01305
1024.35        63.17997
1024.73         59.6758
