SpectraSmart Spectrum 2.9.0.0
--------- Device Information -----------
Spectrum Name :  反射率_0
Saving Time :  2024/04/27 22:29:20
Spectro-Module Model Name : SE2030-DUVN
Spectro-Module Serial Number : OS361AC55029948
Wavelength Start : 200
Wavelength End : 1025
Wavelength Unit : Wavelength(nm)
Spectrum Unit : Reflectance(%)
-----------Spectrum Setting ------------
Integration Time : 20ms
Average : 10
Boxcar : 0
Background removal :  enabled
linearity correction :  enabled
SC :  disabled
Intensity correction :  disabled
DWT denoise :  enabled
savitzky-golay :  disabled
FFT :  disabled
Running average :  disabled
Kalman :  disabled
High pass :  disabled
---------------BEGIN--------------------
Wavelength(nm)             Reflectance(%)
200.29               0
200.75         84.7173
201.21        112.2101
201.67        125.2427
202.13        121.7757
202.58        108.0554
203.04         88.7287
203.50        71.03086
203.96        66.61065
204.42        75.06662
204.88        89.07853
205.34        103.1296
205.80        113.5997
206.26        120.8648
206.72        127.3766
207.18         131.627
207.64         126.289
208.10        112.6026
208.55        99.54463
209.01        89.85929
209.47        80.79065
209.93        67.72881
210.39        39.47545
210.85       -38.57263
211.31        -116.803
211.77         6.97046
212.23        79.13889
212.69        102.7864
213.14        108.9134
213.60        106.6637
214.06        97.44036
214.52        78.41877
214.98        59.63629
215.44         58.1131
215.90        65.39017
216.36        74.37129
216.81        82.80574
217.27        91.00743
217.73        100.4249
218.19         108.764
218.65        111.1984
219.11        106.2612
219.57        94.35256
220.02        78.75381
220.48        69.88916
220.94        71.76116
221.40         80.6255
221.86        91.01636
222.32        97.37513
222.77         99.2467
223.23        98.75481
223.69        97.54184
224.15        97.24724
224.61        98.13003
225.06        99.56052
225.52        100.6649
225.98        99.62685
226.44        96.84453
226.90        93.69891
227.36        91.53519
227.81         91.2327
228.27        92.72798
228.73        95.45712
229.19        98.55179
229.65        100.1615
230.10        99.49738
230.56         97.4311
231.02        94.76867
231.48        92.75272
231.93        91.59743
232.39        91.04711
232.85        90.85423
233.31        90.83636
233.77        90.87669
234.22        91.10864
234.68         91.2885
235.14        90.98177
235.60        90.13768
236.05        88.78944
236.51        87.32548
236.97        86.88209
237.43        87.83448
237.88        89.92062
238.34        92.06812
238.80        93.46759
239.26        93.89745
239.71        93.62862
240.17        91.92728
240.63        89.10795
241.08        86.84943
241.54        85.54138
242.00         85.1414
242.46        85.01791
242.91        85.02065
243.37         85.2653
243.83        86.28089
244.28        88.87156
244.74        91.59263
245.20        92.35712
245.66         91.9821
246.11        92.07066
246.57        92.92337
247.03         94.4958
247.48        96.63065
247.94        97.35513
248.40        95.22104
248.85        91.74611
249.31        89.23391
249.77        89.02065
250.22        90.46825
250.68        92.70794
251.14        94.68076
251.59        95.65779
252.05        95.71136
252.51         94.4817
252.96        92.00735
253.42        90.41087
253.88        90.50825
254.33        91.49228
254.79        91.66753
255.25        88.91763
255.70         83.9483
256.16        78.78703
256.62        75.30383
257.07        75.51599
257.53        78.78142
257.99        82.79247
258.44        85.70727
258.90        86.58818
259.35        85.38824
259.81        83.57436
260.27        81.58886
260.72        79.99217
261.18        79.29175
261.63        78.75787
262.09        78.63173
262.55         78.6787
263.00        78.68324
263.46        78.87482
263.91        78.84161
264.37        78.50316
264.83        77.77232
265.28        76.70678
265.74        75.65932
266.19        74.74554
266.65        74.10304
267.11        73.58522
267.56        73.05562
268.02        72.43697
268.47        71.64598
268.93        70.77379
269.38        69.86474
269.84        69.03103
270.30        68.29147
270.75        67.60276
271.21        66.92656
271.66        66.14137
272.12        65.25056
272.57        64.22466
273.03         63.1881
273.48        62.21148
273.94        61.38871
274.39        60.64042
274.85        59.91267
275.31        58.98359
275.76        57.81044
276.22        56.53389
276.67         55.2831
277.13        54.41316
277.58        53.86738
278.04        53.59472
278.49        53.27688
278.95        52.63515
279.40        51.54996
279.86        50.23924
280.31        48.86655
280.77        47.84695
281.22         47.1906
281.68        46.84299
282.13        46.57521
282.59        46.18217
283.04        45.56717
283.50        44.83588
283.95        44.08973
284.41        43.56104
284.86        43.25348
285.32        43.11793
285.77        42.96529
286.22        42.59792
286.68        42.00908
287.13        41.24376
287.59        40.49536
288.04        39.94981
288.50        39.69166
288.95        39.60588
289.41        39.60952
289.86        39.50865
290.32        39.28654
290.77        38.98461
291.22        38.67319
291.68        38.44369
292.13        38.30486
292.59        38.24149
293.04        38.22762
293.50        38.26556
293.95        38.33894
294.40        38.47407
294.86        38.66218
295.31        38.87064
295.77        39.10349
296.22         39.3424
296.68        39.63239
297.13        40.02064
297.58        40.50675
298.04        41.06429
298.49        41.59517
298.95        41.98546
299.40        42.20594
299.85        42.29734
300.31         42.3742
300.76        42.57799
301.21        42.94974
301.67        43.44839
302.12        43.93952
302.58        44.28068
303.03        44.41862
303.48        44.42395
303.94        44.42532
304.39        44.55226
304.84        44.85146
305.30        45.27636
305.75        45.69592
306.20        45.96933
306.66        46.07984
307.11        46.04552
307.57        45.98433
308.02         45.9995
308.47        46.13151
308.93         46.3342
309.38        46.50615
309.83        46.53726
310.29        46.41559
310.74        46.17275
311.19        45.87914
311.65        45.63783
312.10        45.46257
312.55        45.32845
313.00        45.22273
313.46        45.12533
313.91        45.01801
314.36        44.92081
314.82        44.79815
315.27        44.58748
315.72        44.28456
316.18        43.90808
316.63        43.52854
317.08        43.28458
317.53        43.19979
317.99        43.23244
318.44        43.28143
318.89        43.16359
319.35        42.84167
319.80        42.37827
320.25        41.88968
320.70        41.56904
321.16        41.45528
321.61        41.48993
322.06        41.57323
322.51        41.54849
322.97        41.36097
323.42        41.07573
323.87        40.72769
324.32        40.38529
324.78        40.07377
325.23        39.77583
325.68        39.50201
326.13        39.28355
326.59        39.10786
327.04        39.00081
327.49        38.90051
327.94        38.70876
328.39        38.40481
328.85        38.00477
329.30        37.59758
329.75         37.3124
330.20        37.19242
330.66        37.19029
331.11        37.25636
331.56        37.24952
332.01        37.12847
332.46        36.92397
332.92        36.68269
333.37        36.53186
333.82        36.48681
334.27        36.50288
334.72        36.51789
335.17        36.43524
335.63        36.22077
336.08        35.93537
336.53        35.60779
336.98        35.29785
337.43        35.03963
337.88        34.82538
338.34        34.67382
338.79        34.62033
339.24         34.6626
339.69        34.79011
340.14        34.95643
340.59        35.08418
341.05        35.14409
341.50        35.14704
341.95        35.10559
342.40        35.05807
342.85        35.01565
343.30        34.96528
343.75        34.89788
344.20        34.79932
344.66        34.67824
345.11        34.55228
345.56        34.43828
346.01        34.35559
346.46        34.30785
346.91        34.27755
347.36        34.28035
347.81        34.33731
348.26        34.44379
348.72        34.60002
349.17        34.72783
349.62        34.70603
350.07        34.51722
350.52        34.18758
350.97        33.86028
351.42        33.76735
351.87        33.94424
352.32        34.31306
352.77        34.67652
353.22        34.73127
353.67        34.41698
354.13        33.84588
354.58        33.18458
355.03         32.7536
355.48        32.63977
355.93        32.75302
356.38        32.94159
356.83        32.96746
357.28        32.77182
357.73        32.43683
358.18        32.08074
358.63        31.88067
359.08        31.87192
359.53        31.97884
359.98         32.0979
360.43        32.07716
360.88        31.87779
361.33         31.5519
361.78        31.16286
362.23        30.84188
362.68         30.6337
363.13         30.4438
363.58        30.22946
364.03        30.24582
364.48        29.95773
364.93        29.79657
365.38        29.62388
365.83        29.47345
366.28        29.34303
366.73        29.22619
367.18        29.09691
367.63        28.90372
368.08        28.64393
368.53        28.33961
368.98        28.03773
369.43        27.81184
369.88        27.68117
370.33        27.62354
370.78        27.60213
371.23        27.55726
371.68        27.46233
372.13        27.32272
372.58        27.15238
373.03        26.97548
373.48        26.80301
373.93        26.63864
374.38        26.45559
374.83        26.21227
375.28        25.91233
375.72        25.56434
376.17        25.27216
376.62        25.15155
377.07        25.21209
377.52        25.39933
377.97        25.59775
378.42        25.62725
378.87        25.44998
379.32        25.13333
379.77        24.75929
380.22        24.45218
380.67        24.25207
381.11        24.12059
381.56        24.05052
382.01         24.0309
382.46        24.04575
382.91        24.09918
383.36        24.14675
383.81        24.11517
384.26        23.98924
384.71        23.78302
385.15        23.53501
385.60        23.34562
386.05        23.22918
386.50        23.16887
386.95        23.13161
387.40        23.06324
387.85         22.9569
388.29        22.82302
388.74        22.72127
389.19        22.68153
389.64        22.70249
390.09        22.75198
390.54         22.8025
390.98        22.80963
391.43         22.7716
391.88        22.70616
392.33        22.59767
392.78        22.46075
393.23        22.31793
393.67        22.07487
394.12        21.81349
394.57        21.90649
395.02        21.97296
395.47        21.95121
395.91        21.76564
396.36        21.72728
396.81        21.84752
397.26        21.95089
397.71        21.99666
398.15        22.01098
398.60        22.01015
399.05        21.90133
399.50        21.74854
399.95        21.78336
400.39        21.94719
400.84         21.9003
401.29        21.64398
401.74        21.39771
402.18        21.23079
402.63        21.18514
403.08        21.23703
403.53        21.22296
403.97        21.13554
404.42        21.10603
404.87        21.12864
405.32        21.15106
405.76        21.16524
406.21        21.12633
406.66        21.07179
407.11        21.16453
407.55        21.35417
408.00        21.40278
408.45        21.28156
408.90        21.02137
409.34        20.72459
409.79        20.67027
410.24        20.82779
410.68        20.87653
411.13        20.79893
411.58        20.81024
412.03         20.9015
412.47        20.94362
412.92        20.91501
413.37        20.85988
413.81        20.79422
414.26        20.75748
414.71        20.75266
415.15        20.76809
415.60        20.78681
416.05        20.79292
416.49        20.78318
416.94        20.76317
417.39        20.73699
417.83        20.71168
418.28        20.68426
418.73        20.64142
419.17        20.60154
419.62        20.59803
420.07        20.64149
420.51        20.73262
420.96        20.81452
421.41        20.82222
421.85        20.74283
422.30        20.50584
422.74        20.23837
423.19        20.38242
423.64        20.86205
424.08         21.1037
424.53        20.99388
424.98        20.94728
425.42        20.97256
425.87        20.67962
426.31        20.21247
426.76        20.22509
427.21        20.62494
427.65        20.65348
428.10        20.34054
428.54        20.25139
428.99        20.39248
429.44        20.64857
429.88        20.85932
430.33        20.53249
430.77        19.88748
431.22        19.78519
431.66        20.22861
432.11        20.61814
432.56        20.84735
433.00         21.0802
433.45         21.0842
433.89         20.6692
434.34        20.22757
434.78        19.11294
435.23        19.80779
435.67        20.44235
436.12        20.76681
436.57        20.98483
437.01        20.88944
437.46        20.80604
437.90        20.83303
438.35        20.87329
438.79        20.33387
439.24        20.14789
439.68        20.16994
440.13         20.3019
440.57        20.45185
441.02        20.65788
441.46        20.82977
441.91        20.54183
442.35        20.00747
442.80        20.15942
443.24        20.82714
443.69        20.81698
444.13        20.17879
444.58        19.94817
445.02        20.13399
445.47        20.19646
445.91        20.10545
446.36        20.09189
446.80        20.14552
447.24        20.18773
447.69        20.21516
448.13        20.27313
448.58        20.33328
449.02        20.29319
449.47         20.1803
449.91        20.12768
450.36        20.15094
450.80        20.16838
451.25        20.18451
451.69        20.23658
452.13        20.31207
452.58        20.37983
453.02        20.40824
453.47        20.35921
453.91        20.22858
454.36        20.06722
454.80        19.88946
455.24        19.69767
455.69        19.55738
456.13        19.48629
456.58        19.50733
457.02        19.72596
457.46        20.01333
457.91        20.01637
458.35        19.83742
458.79        19.76306
459.24        19.82903
459.68        19.84204
460.13        19.80697
460.57        19.70559
461.01         19.6299
461.46        19.60303
461.90        19.52985
462.34        19.47429
462.79        19.73799
463.23        19.78653
463.68        19.72288
464.12        19.66325
464.56        19.63514
465.01        19.68661
465.45         19.7395
465.89         19.6681
466.34        19.53898
466.78        19.45419
467.22        19.40751
467.67        19.79752
468.11        19.73375
468.55        19.71413
468.99        19.53721
469.44         19.4997
469.88        19.61288
470.32        19.70974
470.77        19.76644
471.21        19.80776
471.65        19.82802
472.10        19.82982
472.54         19.8062
472.98        19.77596
473.42         19.7525
473.87         19.6768
474.31        19.59003
474.75        19.73747
475.20        20.05154
475.64        20.14182
476.08        20.00046
476.52        20.00167
476.97        20.16638
477.41        20.09418
477.85        19.98508
478.29        20.12388
478.74         20.0082
479.18        19.86835
479.62        20.20256
480.06        20.26132
480.50        20.25277
480.95        20.17647
481.39        20.04004
481.83        20.28549
482.27        20.31444
482.72        20.28222
483.16        20.60904
483.60        20.70466
484.04        20.72643
484.48        20.71234
484.93        20.85023
485.37        20.84783
485.81          21.516
486.25        21.91702
486.69        21.06976
487.14        20.82278
487.58        21.72709
488.02        21.72462
488.46        21.49618
488.90        21.75262
489.34        21.40995
489.79        21.17306
490.23        21.57347
490.67        21.83555
491.11        22.11829
491.55        22.14448
491.99        21.99664
492.43        22.05873
492.88        22.34557
493.32        22.60014
493.76        22.77117
494.20        22.95743
494.64        23.16641
495.08        23.29905
495.52        23.37238
495.96        23.62829
496.41        24.03112
496.85        23.95543
497.29        23.56301
497.73        23.74889
498.17        24.40832
498.61        24.72678
499.05        24.60586
499.49        24.50533
499.93        24.50864
500.37        24.53008
500.82         24.5813
501.26        24.74279
501.70        25.02799
502.14        24.90238
502.58        25.23895
503.02        25.35235
503.46        25.39292
503.90        25.40266
504.34        25.38226
504.78        25.41479
505.22        25.50154
505.66        25.57774
506.10        25.64841
506.54        25.79063
506.98        26.00674
507.42        26.14723
507.86        26.38696
508.30        26.51433
508.74         26.5802
509.18        26.59109
509.62        26.57817
510.06        26.59125
510.50        26.64316
510.94           26.72
511.38        26.80866
511.82        26.88747
512.26        26.94732
512.70        26.99858
513.14        27.03743
513.58        27.04501
514.02        27.02155
514.46        26.99108
514.90        26.97601
515.34        26.91869
515.78        26.98086
516.22        27.02692
516.66        27.09026
517.10        27.14443
517.54        27.18161
517.98        27.20704
518.42        27.21364
518.86        27.19532
519.30        27.15375
519.74        27.08993
520.18         27.0247
520.62        26.99109
521.06        26.99592
521.50        27.03282
521.93        27.07767
522.37        27.08018
522.81        27.03313
523.25        26.94829
523.69        26.85612
524.13        26.80495
524.57        26.80371
525.01         26.8353
525.45        26.86571
525.89        26.84198
526.32         26.7494
526.76        26.61484
527.20        26.46831
527.64        26.36065
528.08        26.30538
528.52         26.2847
528.96        26.27936
529.40        26.25923
529.83        26.21341
530.27        26.15648
530.71        26.08985
531.15        26.01607
531.59        25.93938
532.03        25.85776
532.46        25.77963
532.90        25.73378
533.34        25.71918
533.78        25.72782
534.22        25.74217
534.66        25.73418
535.09        25.69518
535.53        25.64119
535.97        25.57874
536.41        25.52301
536.85        25.48192
537.28        25.45366
537.72        25.44491
538.16        25.46207
538.60        25.50567
539.04        25.57854
539.47         25.6617
539.91        25.74117
540.35        25.80538
540.79        25.86202
541.22        25.91512
541.66        25.97451
542.10        26.04265
542.54         26.1179
542.97        26.19607
543.41        26.28601
543.85         26.3852
544.29        26.49607
544.72        26.61473
545.16        26.75244
545.60        26.90165
546.04        27.05746
546.47         27.2197
546.91        27.38417
547.35        27.54489
547.79        27.71446
548.22        27.87569
548.66        27.99469
549.10        28.08876
549.53        28.26497
549.97        28.51804
550.41        28.74022
550.84        28.92187
551.28        29.12924
551.72        29.34756
552.15        29.51825
552.59        29.64419
553.03        29.73292
553.46        29.80957
553.90        29.93693
554.34        30.11923
554.77        30.34792
555.21        30.58088
555.65        30.75013
556.08        30.81118
556.52        30.85899
556.96        30.90908
557.39        31.03034
557.83        31.20905
558.27         31.2932
558.70        31.30013
559.14        31.37546
559.57        31.51474
560.01        31.67838
560.45          31.817
560.88        31.83779
561.32        31.79987
561.75        31.80313
562.19        31.87728
562.63        32.04865
563.06        32.24531
563.50        32.21904
563.93        32.02185
564.37        32.01825
564.80        32.21586
565.24        32.42926
565.68        32.62209
566.11        32.80841
566.55        32.98141
566.98        33.15778
567.42        33.32726
567.85        33.38395
568.29        33.39266
568.72        33.45176
569.16        33.57115
569.60        33.78156
570.03        34.10938
570.47        34.13099
570.90         34.2258
571.34        34.94664
571.77        34.85888
572.21        34.84449
572.64        35.21746
573.08        35.06534
573.51        35.41209
573.95        35.55768
574.38        35.66811
574.82        35.85639
575.25        35.80254
575.69        35.86111
576.12        35.64865
576.56        36.21165
576.99         36.3422
577.42        36.26601
577.86        36.25994
578.29        36.60621
578.73        36.10246
579.16        36.07944
579.60        36.07185
580.03        35.94548
580.47        35.66444
580.90        35.65623
581.33        35.60994
581.77        35.54898
582.20        35.37068
582.64        35.13301
583.07        34.97377
583.51         34.8607
583.94        34.93517
584.37        34.85704
584.81        34.62906
585.24        34.48904
585.68        34.50715
586.11        34.31306
586.54        34.12717
586.98        34.13509
587.41          34.311
587.85        33.74311
588.28         33.8482
588.71        34.00389
589.15        34.17875
589.58        33.47456
590.01        33.91259
590.45        33.99302
590.88        33.47019
591.31        33.44045
591.75        33.63483
592.18        33.68786
592.61         33.6199
593.05        33.88502
593.48        34.01179
593.91        33.93635
594.35        33.83252
594.78        34.15664
595.21        34.36837
595.65        34.46128
596.08        34.26735
596.51        34.75587
596.94        34.77283
597.38        35.14693
597.81        35.59273
598.24        35.36716
598.68        35.99386
599.11        36.18735
599.54        36.91611
599.97        36.67939
600.41        37.50953
600.84        37.78643
601.27         38.0371
601.70        38.36734
602.14        38.44907
602.57        39.13813
603.00        39.81278
603.43        40.34872
603.87        40.81886
604.30        41.02068
604.73        41.45399
605.16         42.1593
605.60        42.57689
606.03        43.23743
606.46        43.86442
606.89        44.11231
607.32        44.53357
607.76        45.24045
608.19        45.39335
608.62        45.82251
609.05        46.26768
609.48         46.6312
609.92         46.8856
610.35         47.3764
610.78        47.90252
611.21        47.87659
611.64        48.59501
612.07        48.80311
612.50        48.93332
612.94        49.17601
613.37        49.59318
613.80        49.85491
614.23        50.22979
614.66        50.62376
615.09        51.08189
615.52        51.45429
615.96        51.73104
616.39        51.89956
616.82        52.22731
617.25        52.34161
617.68        52.54778
618.11        52.74551
618.54        53.03985
618.97        53.51046
619.40        54.03609
619.84        54.44088
620.27         54.5341
620.70        54.40467
621.13        54.08089
621.56        54.46545
621.99        54.63739
622.42        54.68365
622.85        54.79123
623.28        55.14033
623.71        55.13743
624.14          54.939
624.57        55.06158
625.00        55.38429
625.43         54.8208
625.86        54.73259
626.29        54.80132
626.72         54.3822
627.15        54.36427
627.58        54.23815
628.01        54.31004
628.44        53.79108
628.87        53.49148
629.30         53.4544
629.73        53.00733
630.16        52.32696
630.59        52.24089
631.02        51.89567
631.45        51.77389
631.88        51.45887
632.31        51.00973
632.74         50.4678
633.17        49.94269
633.60        49.42825
634.03        48.96038
634.46        48.52886
634.89        48.10284
635.32        47.62371
635.75        47.08189
636.18        46.52663
636.61        45.98698
637.04        45.45051
637.47        44.95351
637.89         44.6048
638.32        44.34434
638.75        44.00459
639.18        43.56937
639.61        43.13281
640.04        42.72166
640.47        42.33625
640.90        41.98907
641.33        41.69278
641.76        41.45913
642.18         41.2399
642.61        41.14027
643.04        41.06558
643.47        41.03052
643.90        40.99871
644.33        40.96209
644.76        40.92986
645.18        40.90798
645.61        40.90852
646.04        40.93917
646.47        40.99291
646.90        41.09497
647.33        41.28146
647.75        41.56251
648.18        41.94555
648.61        42.37265
649.04        42.76174
649.47        43.11129
649.89        43.38212
650.32        43.65829
650.75        44.27798
651.18        45.16542
651.61        45.76077
652.03        46.01598
652.46         46.4968
652.89        47.31262
653.32        47.71289
653.74        47.94989
654.17        49.42041
654.60        49.65891
655.03        50.01614
655.46         50.7747
655.88        51.49517
656.31        52.84065
656.74        54.42889
657.16        54.43618
657.59        54.61946
658.02        53.91801
658.45        54.95926
658.87        54.98867
659.30        55.69952
659.73        56.03898
660.15        56.11816
660.58        57.07347
661.01        57.51988
661.44        57.86525
661.86        58.18812
662.29        58.51766
662.72        58.78826
663.14        59.02002
663.57        59.26912
664.00        59.53925
664.42        59.78133
664.85        60.01069
665.27        60.27292
665.70        60.56038
666.13        60.83829
666.55        61.10251
666.98        61.35296
667.41        61.60593
667.83        61.88068
668.26        62.17034
668.69        62.48098
669.11        62.76518
669.54        62.96321
669.96        63.07957
670.39        63.05988
670.82         63.0105
671.24        63.26081
671.67        63.75746
672.09        64.06937
672.52        64.18419
672.94        64.34777
673.37        64.57878
673.80        64.75356
674.22        64.87307
674.65        64.98157
675.07        65.11436
675.50        65.17855
675.92        65.16428
676.35        65.53269
676.77        65.48465
677.20        65.67517
677.62        65.86998
678.05        66.07322
678.47        66.27204
678.90        66.48521
679.32        66.70087
679.75        66.88837
680.17        67.04084
680.60        67.18401
681.02         67.3163
681.45        67.39172
681.87        67.44552
682.30         67.5241
682.72        67.64676
683.15        67.84853
683.57         68.1002
684.00        68.20081
684.42        68.19663
684.85        68.35027
685.27        68.66361
685.70        68.97849
686.12        69.22211
686.54         69.4448
686.97        69.62402
687.39        69.64083
687.82        69.49493
688.24        69.71779
688.66        69.61594
689.09        69.72393
689.51        69.84259
689.94        69.97685
690.36        70.12366
690.78        70.29412
691.21        70.47099
691.63         70.5877
692.06        70.64368
692.48        70.65919
692.90        70.67114
693.33        70.72778
693.75         70.8434
694.17        71.00394
694.60        71.18772
695.02        71.37115
695.44         71.5266
695.87         71.7113
696.29        71.90463
696.71        71.96838
697.14        71.93382
697.56        72.07016
697.98        72.33978
698.41        72.53224
698.83        72.62372
699.25        72.76362
699.68        72.93392
700.10         73.0929
700.52        73.22435
700.94        73.34728
701.37        73.43545
701.79        73.48524
702.21        73.48098
702.64        73.44311
703.06        73.40251
703.48        73.43194
703.90        73.55205
704.33        73.73538
704.75        73.95081
705.17        74.12222
705.59        74.22677
706.01        74.25549
706.44         74.2458
706.86        74.39616
707.28        74.51172
707.70        74.72853
708.12        74.93989
708.55        75.05691
708.97        75.06284
709.39        75.01787
709.81        74.97081
710.23        74.98453
710.66        75.08035
711.08        75.26138
711.50        75.46498
711.92        75.61384
712.34        75.69012
712.76        75.71568
713.19        75.71604
713.61        75.78535
714.03        75.91838
714.45        76.08691
714.87        76.25738
715.29        76.38111
715.71        76.44621
716.13        76.47309
716.56        76.46154
716.98        76.49204
717.40        76.55747
717.82        76.64926
718.24        76.76581
718.66        76.90578
719.08        77.06128
719.50        77.22274
719.92        77.38442
720.34        77.53716
720.76        77.67178
721.19        77.77879
721.61        77.84858
722.03        77.83257
722.45        77.73125
722.87        77.57096
723.29        77.42391
723.71        77.35861
724.13        77.39586
724.55        77.60354
724.97        77.95802
725.39        77.95646
725.81        78.25556
726.23        78.35517
726.65        78.50905
727.07         78.5826
727.49        78.54424
727.91        79.14702
728.33        78.98387
728.75        79.06015
729.17        78.95871
729.59         78.7724
730.01        78.56861
730.43        78.42108
730.85        78.40018
731.27        78.58372
731.69        78.88621
732.10        79.05319
732.52        79.02968
732.94        78.98987
733.36        78.97953
733.78        78.91366
734.20        78.79758
734.62        79.18665
735.04        78.83154
735.46         79.2553
735.88        79.88782
736.30        79.75043
736.72        78.99807
737.13         78.8624
737.55        79.35598
737.97         79.7294
738.39        79.84944
738.81        79.75791
739.23        79.53255
739.65        79.60142
740.06        79.90129
740.48         80.0084
740.90        79.88145
741.32        79.89261
741.74         79.9503
742.16        80.05442
742.57        80.17394
742.99        80.32389
743.41        80.47848
743.83        80.57355
744.25        80.59779
744.67        80.55817
745.08        80.51016
745.50        80.50195
745.92        80.56653
746.34        80.68893
746.75        80.81957
747.17        80.87471
747.59        80.83722
748.01        80.72077
748.42        80.60186
748.84        80.59377
749.26        80.69927
749.68        80.90512
750.09        81.12085
750.51        81.07632
750.93        80.84605
751.35        80.90929
751.76        81.21792
752.18        81.26865
752.60        81.02744
753.01        80.84418
753.43        80.81272
753.85        80.77543
754.27        80.70921
754.68        81.51212
755.10        81.59882
755.52         81.8308
755.93        81.78887
756.35        81.83008
756.77        81.95579
757.18        82.04958
757.60        82.16921
758.02        82.22733
758.43        82.10566
758.85        82.61327
759.26        82.24603
759.68        82.06333
760.10        81.89954
760.51        81.95242
760.93        81.79753
761.34        82.28231
761.76         82.6301
762.18        82.78877
762.59        82.65283
763.01        82.64779
763.42        82.86731
763.84        82.95688
764.26         82.9652
764.67        83.00793
765.09        83.08705
765.50        83.18887
765.92        83.33374
766.33        83.01897
766.75         82.7116
767.16        82.81237
767.58         82.5976
768.00        82.59513
768.41        82.60596
768.83        82.74552
769.24        82.94862
769.66         83.2031
770.07        83.39883
770.49        83.23313
770.90        82.84218
771.32        82.87765
771.73        83.32392
772.15        83.50353
772.56         83.4034
772.97        83.50388
773.39        83.74628
773.80        83.71064
774.22        83.43978
774.63        83.49712
775.05        83.81786
775.46        83.96631
775.88        83.88397
776.29        83.88126
776.70        83.96695
777.12        84.04432
777.53        84.13157
777.95        84.20992
778.36        84.31332
778.77        84.45676
779.19         84.6376
779.60        84.91605
780.02        85.17376
780.43        85.16333
780.84        84.92271
781.26        84.66026
781.67        84.54486
782.09        84.81469
782.50        85.18217
782.91        85.74561
783.33        84.37106
783.74        84.79898
784.15        84.81602
784.57        85.39742
784.98        85.95795
785.39        85.30971
785.81        85.30582
786.22        85.12547
786.63        85.32529
787.04        85.39133
787.46        85.34803
787.87        85.44525
788.28        85.67474
788.70        85.87464
789.11         85.9944
789.52        86.19326
789.93        86.39918
790.35        86.25846
790.76        85.88212
791.17        85.76872
791.58        85.95405
792.00        86.02452
792.41        86.00158
792.82        86.21144
793.23        86.55225
793.65         86.6701
794.06        86.67893
794.47        86.79414
794.88        86.84843
795.29        87.79605
795.71        86.99527
796.12        86.89571
796.53        86.77451
796.94        86.59321
797.35        86.39765
797.76        86.42886
798.18        86.67475
798.59        86.81157
799.00        86.81829
799.41        86.82892
799.82        86.86899
800.23        86.93861
800.64        87.04604
801.06        87.15538
801.47        87.28299
801.88         87.3716
802.29        87.40659
802.70        87.38945
803.11        87.35222
803.52        87.35036
803.93        87.40998
804.34        87.52528
804.75        87.64413
805.17        87.73265
805.58         87.8244
805.99        87.70322
806.40        87.47596
806.81        87.81511
807.22        88.48785
807.63        88.34879
808.04        87.52953
808.45         87.2518
808.86        87.61513
809.27        87.91238
809.68        88.04202
810.09         88.1548
810.50        88.21956
810.91        88.20505
811.32        88.13661
811.73        88.07674
812.14        88.04862
812.55        87.98032
812.96        87.91844
813.37        88.06707
813.78        88.36935
814.19        88.51706
814.60         88.4689
815.01        88.41544
815.42        88.35892
815.83        88.15463
816.24        87.89452
816.65        87.84566
817.05        88.06412
817.46        88.42195
817.87        88.82459
818.28        89.06998
818.69        89.10786
819.10        89.00233
819.51        88.82442
819.92        88.70177
820.33        88.68706
820.74        88.73489
821.14          88.825
821.55        88.96621
821.96        89.12617
822.37         89.3148
822.78        89.49123
823.19        89.57192
823.60        89.53674
824.00        89.42973
824.41        89.24731
824.82         89.1015
825.23        89.02345
825.64        88.99266
826.04        89.03101
826.45        89.11567
826.86        89.24671
827.27        89.42799
827.68        89.60757
828.08        89.72919
828.49        89.70327
828.90        89.58851
829.31        89.44902
829.72        89.40321
830.12         89.5062
830.53        89.65984
830.94        89.83929
831.35        89.95625
831.75        90.01089
832.16        89.98564
832.57        89.89987
832.97        89.74519
833.38        89.53103
833.79        89.26967
834.20        89.06122
834.60         89.0499
835.01         89.2654
835.42        89.65862
835.82        90.10846
836.23        90.29797
836.64        90.18346
837.04        89.87254
837.45        89.46964
837.86        89.26264
838.26        89.34665
838.67        89.62331
839.08        90.00843
839.48        90.34232
839.89        90.55559
840.29        90.68329
840.70        90.77103
841.11        90.89288
841.51        91.08548
841.92        91.28217
842.33        91.41374
842.73        91.37316
843.14        91.09375
843.54        90.65494
843.95        90.21201
844.35        90.03545
844.76        90.17184
845.17        90.56191
845.57        91.02441
845.98        91.20211
846.38        91.03939
846.79        90.59979
847.19        90.11035
847.60        89.88052
848.00        90.02207
848.41         90.3913
848.81        90.84008
849.22        91.03864
849.62        90.94507
850.03        90.64245
850.43        90.28992
850.84        90.03848
851.24        90.00558
851.65        90.05259
852.05        90.23608
852.46        90.48948
852.86        90.75948
853.27         91.0787
853.67        91.25998
854.07        91.26425
854.48        91.03738
854.88        90.64542
855.29        90.09909
855.69        89.70811
856.10        89.46629
856.50        89.42288
856.90         89.4718
857.31        89.47062
857.71        89.42787
858.12         89.3224
858.52        89.25935
858.92        89.26736
859.33        89.33241
859.73        89.48216
860.13        89.61037
860.54         89.5778
860.94        89.39766
861.34        89.05773
861.75        88.66521
862.15        88.44524
862.55        88.42031
862.96         88.5679
863.36        88.71658
863.76        88.55399
864.17        88.02542
864.57        87.24683
864.97        86.52535
865.38        86.32437
865.78        86.78966
866.18        87.75544
866.58        88.83157
866.99        89.33343
867.39        89.09466
867.79        88.27549
868.19        87.26158
868.60        86.58315
869.00        86.37609
869.40        86.53636
869.80        86.84203
870.21        86.90063
870.61        86.69056
871.01        86.29616
871.41        85.95944
871.81        86.00629
872.22        86.45657
872.62        87.22524
873.02        88.07452
873.42        88.55917
873.82        88.53265
874.22         88.1509
874.63        87.65912
875.03        87.35989
875.43        87.35549
875.83        87.53777
876.23        87.82733
876.63        88.09615
877.03        88.28061
877.44        88.41087
877.84        88.47909
878.24        88.41718
878.64        88.22229
879.04        87.90926
879.44        87.54793
879.84        87.24047
880.24        87.01212
880.64        86.85424
881.04        86.74161
881.44        86.62131
881.84        86.48779
882.24        86.36365
882.65        86.26967
883.05        86.34779
883.45        86.56715
883.85         86.8829
884.25        87.21993
884.65        87.48116
885.05        87.63635
885.45        87.69633
885.85         87.6984
886.25         87.7102
886.65        87.75571
887.05        87.83118
887.45        87.87464
887.85         87.7925
888.25        87.57162
888.65        87.23176
889.04         86.9068
889.44        86.84594
889.84        87.07677
890.24        87.53127
890.64        87.97465
891.04        88.03729
891.44        87.65298
891.84        86.94454
892.24        86.18995
892.64         85.8248
893.04        85.95607
893.44        86.45985
893.83        87.11544
894.23        87.49579
894.63        87.51342
895.03         87.2782
895.43        86.98641
895.83        86.95571
896.23        87.24969
896.63        87.73444
897.02        88.19976
897.42        88.40287
897.82        88.27679
898.22         87.9408
898.62        87.53777
899.01        87.31013
899.41        87.31469
899.81        87.48885
900.21         87.7873
900.61        88.13657
901.00        88.47386
901.40        88.82028
901.80        89.11006
902.20        89.25057
902.59        89.23515
902.99        89.06588
903.39        88.80658
903.79        88.56237
904.18        88.37531
904.58        88.25761
904.98        88.20126
905.38        88.19811
905.77        88.22523
906.17        88.27991
906.57        88.35591
906.96         88.4622
907.36        88.55695
907.76        88.67203
908.15        88.74118
908.55        88.57455
908.95        88.19946
909.34        87.65067
909.74        87.18965
910.14        87.16554
910.53        87.64153
910.93        88.48019
911.33        89.39504
911.72        89.88519
912.12        89.80689
912.52        89.34591
912.91        88.72033
913.31         88.2971
913.70        88.16022
914.10        88.19037
914.49        88.36224
914.89        88.54369
915.29        88.69792
915.68        88.85012
916.08         88.9746
916.47        89.01818
916.87        88.98772
917.26        88.87167
917.66        88.68137
918.05        88.40685
918.45         88.0636
918.84        87.69865
919.24        87.37405
919.64        87.27654
920.03        87.45648
920.42        87.85288
920.82        88.34159
921.21        88.71198
921.61        88.88373
922.00        88.91555
922.40         88.8858
922.79        89.04803
923.19        89.39834
923.58        89.87651
923.98         90.2743
924.37        90.33654
924.77        90.01247
925.16        89.40085
925.55        88.70783
925.95         88.2766
926.34        88.23284
926.74        88.46655
927.13        88.87663
927.52         89.1904
927.92        89.34331
928.31        89.38187
928.70        89.39347
929.10         89.4903
929.49        89.70097
929.89        89.93925
930.28        90.16913
930.67        90.20065
931.07        89.97806
931.46        89.58678
931.85        89.14341
932.24        88.86135
932.64        88.79314
933.03        88.89853
933.42        89.04526
933.82        89.00558
934.21        88.74384
934.60        88.33365
934.99        87.95714
935.39        87.88763
935.78        88.22955
936.17        88.87201
936.56        89.60923
936.96         90.0759
937.35        90.21893
937.74        90.12667
938.13        89.94439
938.53        89.89597
938.92        90.03456
939.31        90.24678
939.70        90.51649
940.09         90.8162
940.49        91.07233
940.88        91.34589
941.27        91.46435
941.66        91.15984
942.05         90.4347
942.44        89.40626
942.84        88.40137
943.23        87.91577
943.62        88.10604
944.01        88.82856
944.40        89.83858
944.79        90.66808
945.18        91.11431
945.57        91.27237
945.97         91.1796
946.36        90.97669
946.75        90.69514
947.14        90.27724
947.53        89.77441
947.92        89.31001
948.31        88.93848
948.70         88.6857
949.09        88.51014
949.48        88.30711
949.87         88.0584
950.26        87.80155
950.65        87.60717
951.04         87.5815
951.43        87.74507
951.82        88.05888
952.21        88.42455
952.60        88.68228
952.99        88.77296
953.38        88.71491
953.77        88.60632
954.16        88.60849
954.55        88.74602
954.94        88.96391
955.33        89.12277
955.72        88.99893
956.11        88.54149
956.50        87.82307
956.89        87.02892
957.28        86.47012
957.66        86.29896
958.05        86.45741
958.44        86.78876
958.83        87.01019
959.22        87.03881
959.61        86.90159
960.00        86.83839
960.39        87.23439
960.78        88.12782
961.16        89.42168
961.55        90.55662
961.94        90.72695
962.33        89.76424
962.72        87.97572
963.11        86.04588
963.49        84.96658
963.88        84.97601
964.27        85.83097
964.66        87.04998
965.04        87.76835
965.43        87.62115
965.82        86.93063
966.21        86.15266
966.60         85.9818
966.98        86.59554
967.37        87.70712
967.76        88.94123
968.15        89.58804
968.53        89.42217
968.92        88.66807
969.31        87.69521
969.69        87.02792
970.08         86.8177
970.47        86.92733
970.86        87.26981
971.24        87.71205
971.63        88.11211
972.02        88.53654
972.40        88.97639
972.79        89.30119
973.17        89.56041
973.56        89.67188
973.95        89.69053
974.33        89.69488
974.72        89.68716
975.11        89.67467
975.49        89.58697
975.88        89.31713
976.26        88.88894
976.65        88.30676
977.04        87.76105
977.42        87.54472
977.81        87.66457
978.19        88.06029
978.58        88.61331
978.96        89.07208
979.35        89.29499
979.74        89.39442
980.12        89.44666
980.51        89.34562
980.89        89.22912
981.28        88.99626
981.66        88.84871
982.05        89.12918
982.43        89.87409
982.82        90.89899
983.20        91.89514
983.59        92.21808
983.97        91.81187
984.35        90.77823
984.74        89.39783
985.12        88.21994
985.51         87.4818
985.89        87.15334
986.28        87.08041
986.66        87.04877
987.04        86.98272
987.43        86.89693
987.81        87.03703
988.20         87.6853
988.58        88.89009
988.96        90.46944
989.35        91.86552
989.73        92.37703
990.12        91.76981
990.50        90.15977
990.88        88.10952
991.27         87.0088
991.65        87.42953
992.03        88.95798
992.42        90.61467
992.80        91.37251
993.18        90.94918
993.56        89.54388
993.95        87.69645
994.33        86.78981
994.71        87.40383
995.10        88.94977
995.48        90.45059
995.86        90.87379
996.24        90.14248
996.63        88.44328
997.01        86.54239
997.39        85.96303
997.77        87.22591
998.15        89.71416
998.54        92.25365
998.92        93.25626
999.30        92.42574
999.68        90.30143
1000.06        87.57409
1000.45        85.54625
1000.83        84.86805
1001.21        85.05934
1001.59        85.92224
1001.97        87.17485
1002.35        88.68239
1002.73        90.71155
1003.12         92.7282
1003.50         93.4575
1003.88        92.58517
1004.26        90.42075
1004.64        88.18664
1005.02        87.51836
1005.40        88.58709
1005.78        90.94178
1006.16        93.48407
1006.54        94.19025
1006.92        92.52081
1007.30        89.18973
1007.69         85.4239
1008.07        83.19186
1008.45         83.1687
1008.83        84.67501
1009.21        86.92547
1009.59        88.84083
1009.97          90.077
1010.35        90.99015
1010.73        91.58636
1011.11         91.7651
1011.49        91.55726
1011.86        90.98406
1012.24        90.20395
1012.62        89.79422
1013.00        89.89331
1013.38        90.43354
1013.76        91.38491
1014.14        92.64003
1014.52        94.09129
1014.90        95.72134
1015.28        97.29095
1015.66        98.28594
1016.04        98.51541
1016.41        98.22063
1016.79        97.37133
1017.17        96.33746
1017.55        95.31553
1017.93        94.29542
1018.31        93.68088
1018.69        94.08146
1019.06        95.66309
1019.44        98.30161
1019.82        101.3374
1020.20         103.219
1020.58        103.2993
1020.95        101.8839
1021.33        99.85324
1021.71        98.26511
1022.09        97.35111
1022.46        96.82036
1022.84        96.33819
1023.22        95.20995
1023.60        93.19212
1023.97         90.2962
1024.35        87.26647
1024.73         85.5191
