SpectraSmart Spectrum 2.9.0.0
--------- Device Information -----------
Spectrum Name :  反射率_0
Saving Time :  2024/04/27 22:49:37
Spectro-Module Model Name : SE2030-DUVN
Spectro-Module Serial Number : OS361AC55029948
Wavelength Start : 200
Wavelength End : 1025
Wavelength Unit : Wavelength(nm)
Spectrum Unit : Reflectance(%)
-----------Spectrum Setting ------------
Integration Time : 20ms
Average : 10
Boxcar : 0
Background removal :  enabled
linearity correction :  enabled
SC :  disabled
Intensity correction :  disabled
DWT denoise :  enabled
savitzky-golay :  disabled
FFT :  disabled
Running average :  disabled
Kalman :  disabled
High pass :  disabled
---------------BEGIN--------------------
Wavelength(nm)             Reflectance(%)
200.29               0
200.75       -61.20812
201.21       -21.53498
201.67        12.48073
202.13        26.09369
202.58        25.95731
203.04        19.42004
203.50        13.30971
203.96        15.74836
204.42        25.98804
204.88         39.0901
205.34        49.64929
205.80        53.28801
206.26        49.36864
206.72        36.36027
207.18        14.66964
207.64        2.170466
208.10        11.47772
208.55        30.72083
209.01        42.85296
209.47        42.08434
209.93        26.54972
210.39        -20.3457
210.85       -167.3854
211.31        -351.511
211.77       -141.8205
212.23       -1.559865
212.69        47.64999
213.14        61.03249
213.60        57.31632
214.06        40.49673
214.52        7.589202
214.98        -19.0065
215.44       -11.81152
215.90        8.321141
216.36        26.53559
216.81        39.04096
217.27        47.49163
217.73        55.23113
218.19        60.77541
218.65        60.29559
219.11        52.81764
219.57        38.40392
220.02        20.33886
220.48        9.869745
220.94        11.24991
221.40        20.51368
221.86        32.27019
222.32        40.86193
222.77        45.54873
223.23        48.00875
223.69        48.88509
224.15        48.61226
224.61         47.5397
225.06        45.31996
225.52        42.75057
225.98        41.24522
226.44        41.13876
226.90        41.74386
227.36         42.4158
227.81        42.57049
228.27        42.10627
228.73        41.17411
229.19        39.64931
229.65        37.43207
230.10        34.72727
230.56        32.08523
231.02        29.79566
231.48         28.2982
231.93        27.58886
232.39        27.49235
232.85        28.12538
233.31        29.64579
233.77        31.85629
234.22        34.69703
234.68        37.15534
235.14        38.04937
235.60        37.21174
236.05         34.6303
236.51        31.68909
236.97        31.41804
237.43        34.81951
237.88         41.1564
238.34        47.44014
238.80        50.37101
239.26        49.03878
239.71        42.71275
240.17        31.58475
240.63        24.97546
241.08        31.39223
241.54        44.14551
242.00        54.75863
242.46         59.9483
242.91        60.88495
243.37         58.1211
243.83        49.19551
244.28          33.818
244.74        24.97021
245.20         27.7374
245.66        33.47591
246.11        35.36005
246.57         33.2003
247.03        29.14696
247.48        23.60882
247.94         21.7391
248.40        27.64995
248.85         36.4144
249.31        45.90438
249.77        55.75396
250.22        64.75782
250.68        72.14487
251.14        77.20425
251.59        79.61103
252.05         79.8144
252.51        77.48488
252.96        72.42132
253.42         67.5439
253.88        65.17419
254.33        65.18706
254.79        65.12914
255.25        62.17428
255.70        57.03197
256.16        51.74267
256.62        48.45736
257.07        49.43238
257.53        53.60348
257.99        58.43694
258.44          61.952
258.90        62.91667
259.35        61.47536
259.81        59.09799
260.27         56.4214
260.72        54.19113
261.18        52.88179
261.63         51.9215
262.09        51.36901
262.55          50.965
263.00        50.54589
263.46        50.27134
263.91        49.98875
264.37        49.80063
264.83        49.59928
265.28        49.31088
265.74        48.91215
266.19        48.17964
266.65        47.18851
267.11        45.98242
267.56        44.68935
268.02        43.61191
268.47        42.78967
268.93        42.17218
269.38        41.68111
269.84         41.2091
270.30        40.70137
270.75        40.18242
271.21        39.63055
271.66        38.96482
272.12         38.2027
272.57        37.32611
273.03        36.43345
273.48        35.60559
273.94        34.92201
274.39        34.32529
274.85        33.81848
275.31         33.3198
275.76        32.78846
276.22        32.27287
276.67        31.75372
277.13        31.29623
277.58        30.86021
278.04        30.47978
278.49        30.06582
278.95        29.60452
279.40        29.04893
279.86        28.47045
280.31        27.91356
280.77        27.55806
281.22        27.37852
281.68        27.36062
282.13        27.35238
282.59        27.19059
283.04         26.8358
283.50        26.36157
283.95         25.8915
284.41        25.65248
284.86         25.6652
285.32        25.86759
285.77        26.09652
286.22        26.15425
286.68        26.02126
287.13         25.7375
287.59        25.45239
288.04        25.31581
288.50        25.38687
288.95        25.57239
289.41        25.79371
289.86        25.88871
290.32        25.84908
290.77        25.73449
291.22        25.62126
291.68        25.61245
292.13        25.73124
292.59        25.95421
293.04        26.27584
293.50        26.71366
293.95        27.24672
294.40        27.88573
294.86         28.5684
295.31        29.18596
295.77          29.727
296.22        30.19706
296.68        30.69441
297.13        31.35562
297.58        32.20109
298.04        33.17313
298.49        34.14154
298.95        34.93613
299.40        35.52251
299.85        35.96414
300.31        36.39243
300.76        36.96952
301.21        37.73708
301.67        38.63464
302.12        39.52278
302.58        40.25182
303.03        40.76308
303.48        41.11756
303.94        41.43383
304.39        41.83045
304.84        42.35205
305.30        42.96247
305.75        43.52996
306.20        43.90989
306.66         44.0924
307.11        44.09977
307.57        44.08442
308.02        44.20291
308.47         44.4995
308.93        44.91128
309.38        45.28465
309.83        45.42655
310.29        45.31551
310.74        45.01756
311.19         44.6589
311.65          44.432
312.10        44.37252
312.55        44.41991
313.00        44.52877
313.46        44.63167
313.91         44.6871
314.36        44.72343
314.82        44.69372
315.27        44.51547
315.72        44.18937
316.18        43.74982
316.63        43.28852
317.08        42.97969
317.53        42.86369
317.99        42.89107
318.44        42.98365
318.89        42.99049
319.35        42.86642
319.80        42.65571
320.25         42.4056
320.70        42.19968
321.16        42.05219
321.61        41.93458
322.06        41.81179
322.51        41.63778
322.97        41.39516
323.42        41.12504
323.87        40.83115
324.32        40.52599
324.78        40.21643
325.23        39.90506
325.68        39.62338
326.13        39.43148
326.59        39.32334
327.04        39.31146
327.49         39.3042
327.94        39.16121
328.39        38.84928
328.85        38.38945
329.30        37.90879
329.75        37.60313
330.20        37.53039
330.66        37.62543
331.11        37.77921
331.56        37.75139
332.01        37.48196
332.46        37.03732
332.92        36.53901
333.37        36.24361
333.82        36.20789
334.27        36.35021
334.72        36.55564
335.17        36.63641
335.63        36.52423
336.08        36.30653
336.53        36.01928
336.98        35.73521
337.43        35.49698
337.88        35.28226
338.34        35.12653
338.79         35.1024
339.24        35.20802
339.69        35.41758
340.14        35.65267
340.59        35.77922
341.05        35.75811
341.50        35.63102
341.95        35.42411
342.40        35.19643
342.85        34.97758
343.30        34.74859
343.75        34.54973
344.20        34.44569
344.66        34.44612
345.11        34.53707
345.56        34.63989
346.01        34.61812
346.46        34.44703
346.91        34.16873
347.36        33.87918
347.81        33.72769
348.26        33.74676
348.72        33.88746
349.17        34.06559
349.62        34.14967
350.07        34.09974
350.52        33.94862
350.97        33.76225
351.42        33.64576
351.87        33.62229
352.32        33.65621
352.77        33.67166
353.22        33.55743
353.67        33.29645
354.13        32.94525
354.58        32.57023
355.03        32.32603
355.48        32.24958
355.93        32.29727
356.38        32.38085
356.83        32.36117
357.28        32.20507
357.73        31.95867
358.18        31.69039
358.63        31.50672
359.08        31.42901
359.53         31.4093
359.98         31.3974
360.43        31.32096
360.88        31.15653
361.33        30.92764
361.78        30.64079
362.23        30.33711
362.68        30.04202
363.13         29.6951
363.58        29.30358
364.03        29.20473
364.48        28.87976
364.93        28.74174
365.38        28.62696
365.83        28.53406
366.28         28.4452
366.73        28.36258
367.18        28.26039
367.63        28.08563
368.08        27.83551
368.53        27.52905
368.98        27.20993
369.43        26.95096
369.88        26.77343
370.33        26.65683
370.78        26.58055
371.23        26.50843
371.68        26.42038
372.13        26.32142
372.58        26.20096
373.03        26.04136
373.48        25.84537
373.93        25.62591
374.38        25.39618
374.83        25.17779
375.28        24.98346
375.72         24.7994
376.17        24.67052
376.62        24.62331
377.07        24.64691
377.52        24.71079
377.97         24.7616
378.42        24.71641
378.87         24.5594
379.32        24.33195
379.77        24.05086
380.22        23.74057
380.67        23.42495
381.11         23.1001
381.56        22.83672
382.01        22.75003
382.46        22.84909
382.91        23.08977
383.36        23.34379
383.81        23.40981
384.26        23.24261
384.71        22.90237
385.15        22.48372
385.60        22.17372
386.05        22.01656
386.50        21.96781
386.95        21.98106
387.40        21.98224
387.85        21.95016
388.29         21.8996
388.74        21.87626
389.19        21.89124
389.64        21.93909
390.09        21.98763
390.54        22.01443
390.98        21.98842
391.43        21.91228
391.88         21.8021
392.33        21.64305
392.78        21.44783
393.23        21.24002
393.67        20.93531
394.12        20.61458
394.57        20.63015
395.02        20.62086
395.47        20.52704
395.91        20.28531
396.36        20.19681
396.81        20.27533
397.26        20.35946
397.71        20.39689
398.15        20.38912
398.60        20.34914
399.05        20.19689
399.50        20.01633
399.95        20.05726
400.39        20.27041
400.84        20.33041
401.29        20.20027
401.74        20.02125
402.18        19.84143
402.63        19.71627
403.08        19.66053
403.53        19.58573
403.97        19.50209
404.42        19.51089
404.87        19.57509
405.32         19.5968
405.76        19.55729
406.21        19.43424
406.66        19.28737
407.11        19.30175
407.55        19.44142
408.00        19.47899
408.45        19.37453
408.90        19.13305
409.34        18.84165
409.79        18.76358
410.24        18.88026
410.68        18.91504
411.13        18.85435
411.58        18.88463
412.03        18.99005
412.47        19.04172
412.92        19.01478
413.37        18.95413
413.81        18.87403
414.26        18.80902
414.71        18.76383
415.15         18.7284
415.60        18.69809
416.05        18.67662
416.49        18.66594
416.94        18.66658
417.39        18.66919
417.83        18.65926
418.28        18.62695
418.73        18.56342
419.17        18.49441
419.62        18.46573
420.07        18.49174
420.51        18.57111
420.96        18.64077
421.41         18.6243
421.85        18.51002
422.30         18.2436
422.74        17.96124
423.19        18.08778
423.64        18.56025
424.08        18.85786
424.53        18.84707
424.98        18.85058
425.42        18.86265
425.87        18.54626
426.31         18.0534
426.76        18.00515
427.21        18.32904
427.65        18.34354
428.10        18.06728
428.54        17.98834
428.99        18.10618
429.44        18.32456
429.88         18.5073
430.33        18.21682
430.77         17.6521
431.22        17.59482
431.66        18.02517
432.11        18.35375
432.56        18.47593
433.00        18.55369
433.45        18.43041
433.89        18.02168
434.34        17.69024
434.78        16.84184
435.23        17.59591
435.67        18.21164
436.12        18.43922
436.57        18.48731
437.01        18.25434
437.46         18.1482
437.90        18.27721
438.35        18.51891
438.79        18.25334
439.24        18.16607
439.68        18.09485
440.13        17.99946
440.57        17.88553
441.02        17.90628
441.46        18.01645
441.91         17.8623
442.35        17.54909
442.80        17.66781
443.24        18.11004
443.69         18.1566
444.13        17.81479
444.58        17.67872
445.02        17.74915
445.47        17.71867
445.91        17.59232
446.36        17.54762
446.80        17.58607
447.24        17.64696
447.69         17.7129
448.13        17.80122
448.58        17.87865
449.02        17.85822
449.47        17.76612
449.91        17.72545
450.36        17.75043
450.80        17.76544
451.25        17.76986
451.69        17.79189
452.13        17.82141
452.58        17.83532
453.02        17.81526
453.47        17.74187
453.91        17.61391
454.36        17.47044
454.80        17.31733
455.24        17.14576
455.69        17.00966
456.13         16.9296
456.58        16.92398
457.02        17.08099
457.46        17.29085
457.91        17.24976
458.35        17.06117
458.79        16.99153
459.24        17.07326
459.68        17.13299
460.13        17.15698
460.57        17.10058
461.01        17.03759
461.46         16.9955
461.90        16.90619
462.34        16.84933
462.79        17.09038
463.23        17.15661
463.68        17.12462
464.12        17.07778
464.56         17.0354
465.01        17.04952
465.45         17.0534
465.89        16.93984
466.34         16.7698
466.78        16.62895
467.22        16.52609
467.67         16.8243
468.11        16.77142
468.55        16.78613
468.99        16.67131
469.44        16.63753
469.88        16.68614
470.32        16.68759
470.77        16.65278
471.21        16.65327
471.65        16.69638
472.10         16.7663
472.54        16.82894
472.98        16.85707
473.42        16.84936
473.87        16.76756
474.31        16.66224
474.75        16.76628
475.20         17.0287
475.64        17.11102
476.08        16.99475
476.52        16.98091
476.97        17.08521
477.41        16.97597
477.85        16.84016
478.29        16.94397
478.74        16.86969
479.18        16.80105
479.62        17.14143
480.06        17.22752
480.50        17.22799
480.95        17.15275
481.39        17.01932
481.83        17.21814
482.27        17.24549
482.72        17.23247
483.16        17.53085
483.60        17.60856
484.04         17.5878
484.48        17.56604
484.93        17.74254
485.37        17.64459
485.81        18.00912
486.25         18.5519
486.69        18.45728
487.14        17.73599
487.58        18.61535
488.02         18.5925
488.46        18.50902
488.90        18.88166
489.34        18.34251
489.79        18.14306
490.23        18.60723
490.67        18.89398
491.11        19.12184
491.55        19.10544
491.99        18.93948
492.43         18.9867
492.88        19.26628
493.32        19.52672
493.76        19.70918
494.20         19.8882
494.64        20.06536
495.08         20.1732
495.52        20.23481
495.96        20.43489
496.41        20.77248
496.85         20.7725
497.29        20.55316
497.73        20.79841
498.17        21.41085
498.61        21.71334
499.05         21.6251
499.49        21.56643
499.93        21.60123
500.37        21.59832
500.82         21.5785
501.26        21.68198
501.70        21.92893
502.14        21.81528
502.58         22.1069
503.02        22.21967
503.46         22.2839
503.90        22.33148
504.34        22.35365
504.78         22.4081
505.22        22.49065
505.66        22.54604
506.10        22.58756
506.54         22.6982
506.98        22.88459
507.42        23.01307
507.86        23.22721
508.30        23.32419
508.74        23.34587
509.18        23.30262
509.62        23.24117
510.06        23.23494
510.50        23.30147
510.94        23.42202
511.38        23.55592
511.82        23.63792
512.26        23.65076
512.70        23.61518
513.14        23.56751
513.58        23.55574
514.02        23.59251
514.46        23.67837
514.90        23.78283
515.34        23.77428
515.78        23.77783
516.22        23.70045
516.66        23.62302
517.10         23.6035
517.54        23.65542
517.98        23.75745
518.42        23.86317
518.86        23.90246
519.30        23.85881
519.74        23.75528
520.18         23.6367
520.62         23.5722
521.06        23.57848
521.50        23.63336
521.93        23.70082
522.37        23.71465
522.81        23.66087
523.25        23.55795
523.69        23.43743
524.13        23.34766
524.57        23.30006
525.01        23.27866
525.45        23.25544
525.89        23.18696
526.32        23.06261
526.76        22.90918
527.20        22.75465
527.64        22.64491
528.08        22.59129
528.52        22.57533
528.96         22.5795
529.40        22.57707
529.83        22.55532
530.27        22.52322
530.71        22.47379
531.15        22.39701
531.59        22.29538
532.03        22.17293
532.46        22.04677
532.90        21.95859
533.34        21.91438
533.78        21.90554
534.22        21.91576
534.66        21.91767
535.09        21.90104
535.53        21.87776
535.97        21.85109
536.41        21.83019
536.85        21.81825
537.28        21.81158
537.72        21.81039
538.16        21.81298
538.60        21.82077
539.04        21.84176
539.47        21.86886
539.91        21.90325
540.35        21.94001
540.79        21.98391
541.22        22.03889
541.66        22.11238
542.10        22.20426
542.54        22.31232
542.97         22.4262
543.41        22.54346
543.85        22.65867
544.29        22.77383
544.72        22.89019
545.16        23.02711
545.60        23.17978
546.04        23.34189
546.47        23.50651
546.91        23.65844
547.35        23.79127
547.79           23.92
548.22        24.04103
548.66        24.14278
549.10        24.24328
549.53        24.43091
549.97        24.68774
550.41        24.89901
550.84        25.05151
551.28        25.20907
551.72        25.37539
552.15        25.52548
552.59        25.66755
553.03            25.8
553.46        25.92564
553.90        26.07113
554.34        26.23395
554.77        26.41326
555.21        26.59167
555.65        26.74158
556.08        26.82916
556.52        26.92534
556.96        27.01858
557.39        27.13173
557.83        27.24785
558.27        27.25023
558.70        27.18133
559.14        27.21139
559.57        27.34871
560.01        27.54128
560.45        27.73051
560.88        27.82118
561.32        27.85058
561.75        27.89058
562.19        27.97448
562.63        28.15577
563.06         28.3732
563.50        28.38937
563.93          28.243
564.37        28.25408
564.80        28.42861
565.24        28.60665
565.68        28.76042
566.11        28.90759
566.55        29.04577
566.98        29.19104
567.42        29.33891
567.85        29.40104
568.29        29.43422
568.72        29.52486
569.16        29.68027
569.60        29.90268
570.03        30.20455
570.47        30.25919
570.90        30.41027
571.34        30.96149
571.77        30.93903
572.21        30.99785
572.64        31.23078
573.08        31.21256
573.51         31.3823
573.95        31.51927
574.38        31.66289
574.82        31.76068
575.25        31.84706
575.69        31.80444
576.12        31.77979
576.56        32.11263
576.99        32.22775
577.42        31.89391
577.86        32.05849
578.29        32.32456
578.73        32.04097
579.16        31.97395
579.60        31.79773
580.03        31.67502
580.47         31.6199
580.90        31.54751
581.33        31.53573
581.77          31.666
582.20        31.43966
582.64        31.16601
583.07        31.03534
583.51        30.87975
583.94         30.8939
584.37        30.71429
584.81        30.37236
585.24        30.27907
585.68        30.46117
586.11        30.03646
586.54        29.95114
586.98        29.84649
587.41        29.85425
587.85        29.56333
588.28        29.60745
588.71        29.43897
589.15        29.63573
589.58        29.37406
590.01        29.55087
590.45        29.60796
590.88        29.03377
591.31        28.93838
591.75        29.09389
592.18        29.09687
592.61        28.99863
593.05        29.29004
593.48        29.65761
593.91        29.52517
594.35        29.53229
594.78        29.75451
595.21        29.87455
595.65        29.94996
596.08         29.8214
596.51        30.21216
596.94        30.09572
597.38        30.40213
597.81        30.90248
598.24        30.79191
598.68        31.33446
599.11        31.77677
599.54        32.25706
599.97        32.03259
600.41        32.93725
600.84        33.23796
601.27        33.46496
601.70        33.83086
602.14        34.02222
602.57        34.59117
603.00        35.02878
603.43         35.4758
603.87        35.99868
604.30        36.25082
604.73        36.75731
605.16        37.28598
605.60        37.42631
606.03        38.04984
606.46         38.8714
606.89        39.16378
607.32        39.33941
607.76        40.01965
608.19        40.19947
608.62        40.64118
609.05         41.0399
609.48        41.34647
609.92        41.53159
610.35        41.96564
610.78        42.54975
611.21        42.27958
611.64        43.02266
612.07        43.15416
612.50        43.27126
612.94        43.45515
613.37        43.74911
613.80        44.07426
614.23        44.32073
614.66        44.67249
615.09        45.04566
615.52        45.42771
615.96        45.81443
616.39        45.72723
616.82        45.97712
617.25        46.21765
617.68        46.08109
618.11        46.33782
618.54        46.76736
618.97        47.09737
619.40        47.27017
619.84        47.57138
620.27        47.77956
620.70        47.91246
621.13        47.86979
621.56         48.0511
621.99        47.91994
622.42        47.85017
622.85        48.11552
623.28         48.3512
623.71        48.12078
624.14        48.07637
624.57        48.06855
625.00        48.19018
625.43        47.88663
625.86         47.8696
626.29        48.00445
626.72        47.58751
627.15         47.6136
627.58        47.39779
628.01        47.29351
628.44        46.88546
628.87        46.59412
629.30        46.65566
629.73        45.95828
630.16        45.54333
630.59        45.40193
631.02        45.19394
631.45        45.10369
631.88        44.86504
632.31        44.52623
632.74        43.90209
633.17        43.48691
633.60        43.00124
634.03          42.596
634.46        42.24519
634.89        41.90377
635.32        41.48259
635.75        40.96217
636.18        40.40227
636.61        39.84927
637.04        39.32545
637.47        38.87123
637.89        38.57122
638.32        38.35588
638.75        38.05237
639.18        37.64045
639.61        37.21144
640.04        36.79962
640.47        36.43734
640.90        36.14346
641.33        35.89002
641.76        35.67204
642.18        35.57166
642.61         35.4408
643.04         35.3897
643.47        35.35748
643.90        35.31156
644.33        35.24611
644.76        35.17632
645.18        35.12449
645.61        35.12244
646.04        35.18354
646.47        35.29528
646.90         35.4696
647.33        35.72283
647.75        36.05805
648.18        36.47222
648.61        36.90836
649.04        37.32354
649.47        37.68713
649.89         37.8794
650.32        38.02942
650.75        38.53022
651.18        39.34625
651.61        40.13826
652.03        40.76275
652.46         41.1332
652.89        41.41028
653.32        41.79589
653.74        42.57344
654.17        43.55941
654.60        43.92749
655.03        44.30733
655.46        44.75335
655.88        45.62831
656.31        47.36803
656.74        50.33452
657.16        49.87175
657.59        49.53053
658.02         48.7505
658.45        48.64051
658.87        49.36215
659.30        49.69995
659.73        49.84398
660.15        49.81329
660.58        50.39863
661.01        50.93022
661.44        51.51504
661.86        51.82136
662.29        51.87229
662.72        51.96301
663.14        52.17525
663.57        52.50015
664.00        52.88765
664.42        53.14863
664.85        53.27526
665.27        53.40907
665.70        53.56903
666.13        53.71235
666.55        53.84929
666.98        53.99289
667.41        54.14943
667.83        54.32015
668.26        54.49612
668.69         54.6849
669.11        54.87026
669.54         55.0273
669.96        55.15815
670.39        55.23368
670.82        55.29005
671.24        55.44677
671.67        55.67923
672.09        55.82011
672.52        55.87931
672.94         55.9405
673.37         56.0295
673.80        56.14364
674.22        56.28032
674.65        56.36284
675.07         56.4027
675.50        56.43856
675.92        56.48857
676.35        56.54618
676.77        56.61961
677.20        56.72096
677.62        56.86213
678.05        57.01124
678.47        57.15335
678.90        57.42617
679.32        57.56924
679.75        57.75039
680.17         57.8914
680.60        58.01162
681.02        58.09549
681.45        58.12967
681.87        58.13671
682.30        58.04677
682.72        57.93839
683.15            58.1
683.57        58.47667
684.00        58.60544
684.42        58.50923
684.85        58.58464
685.27        58.82337
685.70        59.03334
686.12        59.16198
686.54        59.15306
686.97         59.0431
687.39        59.07288
687.82        59.23317
688.24        59.19725
688.66        59.25451
689.09        59.15506
689.51        59.21499
689.94        59.28262
690.36        59.38625
690.78        59.32167
691.21        59.15379
691.63        59.16923
692.06        59.38688
692.48        59.65131
692.90        59.90434
693.33         60.0673
693.75        60.11273
694.17         60.1431
694.60        60.21066
695.02        60.02184
695.44        60.18936
695.87        60.24497
696.29        60.39457
696.71        60.42905
697.14        60.90572
697.56        60.96608
697.98         60.7726
698.41        60.99223
698.83        60.95534
699.25        61.03574
699.68        61.02108
700.10        61.05179
700.52        61.12172
700.94        61.21565
701.37        61.30486
701.79        61.35399
702.21        61.34044
702.64         61.2909
703.06        61.24748
703.48        61.28319
703.90        61.40977
704.33        61.64177
704.75        61.93088
705.17        62.05519
705.59        61.95218
706.01        62.11589
706.44        61.79431
706.86        61.91426
707.28        62.06772
707.70        62.47539
708.12         62.9169
708.55        62.87002
708.97        62.42364
709.39         62.2768
709.81        62.47897
710.23         62.5348
710.66        62.44697
711.08        62.56291
711.50        62.82289
711.92        62.97775
712.34        63.00235
712.76        62.96796
713.19        62.91485
713.61        62.95195
714.03        63.08216
714.45        63.25948
714.87        63.43935
715.29        63.56236
715.71        63.61197
716.13        63.61398
716.56        63.56581
716.98        63.53146
717.40        63.50892
717.82        63.48815
718.24        63.49644
718.66        63.57847
719.08        63.73369
719.50        63.94473
719.92        64.15495
720.34        64.27035
720.76        64.26874
721.19        64.17019
721.61        64.03366
722.03        63.93022
722.45        63.88724
722.87        63.88542
723.29        63.91813
723.71        63.97054
724.13        64.03731
724.55        64.13351
724.97        64.24387
725.39        64.33813
725.81        64.40888
726.23        64.45211
726.65        64.49969
727.07        64.60948
727.49        64.78395
727.91         64.9995
728.33        65.19426
728.75         65.2554
729.17        65.16132
729.59        64.98473
730.01        64.78321
730.43        64.59433
730.85         64.4882
731.27        64.56055
731.69        64.75934
732.10        65.01947
732.52        65.06958
732.94        65.21938
733.36        65.36593
733.78        65.43984
734.20        65.44406
734.62        65.35419
735.04        65.09177
735.46        65.29442
735.88        65.78217
736.30        65.69001
736.72        65.11727
737.13        65.04577
737.55        65.44626
737.97        65.65636
738.39        65.61108
738.81        65.48652
739.23        65.36087
739.65        65.50037
740.06        65.81024
740.48        65.92197
740.90        65.78752
741.32        65.71705
741.74         65.6501
742.16         65.6128
742.57         65.5978
742.99        65.63033
743.41        65.70185
743.83        65.74185
744.25        65.75567
744.67        65.81731
745.08        65.93484
745.50        66.01456
745.92        66.05775
746.34        66.10484
746.75        66.12577
747.17        66.06623
747.59        65.93903
748.01         65.7272
748.42        65.50114
748.84         65.5167
749.26        65.75098
749.68        65.80265
750.09        65.69983
750.51        65.95372
750.93        66.44588
751.35        66.54768
751.76        66.30153
752.18        66.23129
752.60        66.36845
753.01        66.42847
753.43        66.38803
753.85        66.37462
754.27        66.39649
754.68        66.43594
755.10        66.48478
755.52        66.52384
755.93        66.54429
756.35        66.54385
756.77        66.55005
757.18        66.61801
757.60        66.79792
758.02        66.97169
758.43        66.99242
758.85        67.08685
759.26        67.37363
759.68        66.21113
760.10        66.54477
760.51        66.56989
760.93        66.84448
761.34        66.69296
761.76        66.84358
762.18        66.91601
762.59        67.12532
763.01        67.17681
763.42        67.13509
763.84        67.13498
764.26        67.22221
764.67        67.33701
765.09         67.4838
765.50        67.57982
765.92        67.61494
766.33        67.59061
766.75        67.46206
767.16         67.2454
767.58        66.98567
768.00        66.95644
768.41        67.18284
768.83        67.37912
769.24        67.49554
769.66        67.69122
770.07        67.88258
770.49        67.87562
770.90        67.70879
771.32        67.60862
771.73        67.63466
772.15        67.63681
772.56        67.63562
772.97        67.80688
773.39        68.05724
773.80        68.06832
774.22        67.85493
774.63        67.86623
775.05        68.06522
775.46        68.12378
775.88        68.00394
776.29        67.95038
776.70        67.96536
777.12        67.96143
777.53        67.95943
777.95        67.96088
778.36        68.00071
778.77        68.11606
779.19        68.30946
779.60        68.56799
780.02        68.80808
780.43        68.96796
780.84        69.01531
781.26        68.85017
781.67        68.62467
782.09        68.74211
782.50        68.95834
782.91         69.2762
783.33        68.03983
783.74        67.85693
784.15        68.26277
784.57        68.72289
784.98        69.07613
785.39        69.20068
785.81        69.12478
786.22        69.18133
786.63        69.37326
787.04        69.42805
787.46        69.36702
787.87        69.34046
788.28        69.38395
788.70        69.37161
789.11        69.30275
789.52        69.18974
789.93        69.07961
790.35        69.12537
790.76        69.30554
791.17        69.33774
791.58        69.24404
792.00        69.24123
792.41         69.3493
792.82        69.52287
793.23        69.69578
793.65        69.61913
794.06        69.43592
794.47        69.64939
794.88         70.1019
795.29        70.59169
795.71        70.23695
796.12        70.08453
796.53        69.96931
796.94         69.9682
797.35        70.07872
797.76        70.15813
798.18        70.18858
798.59        70.22872
799.00        70.27119
799.41        70.23025
799.82         70.1348
800.23        70.01429
800.64         69.8903
801.06        69.72734
801.47        69.58213
801.88        69.48228
802.29        69.44048
802.70        69.43463
803.11          69.453
803.52        69.52155
803.93        69.61607
804.34        69.62352
804.75        69.57864
805.17        69.69054
805.58        70.00985
805.99         70.2608
806.40        70.41747
806.81        70.82862
807.22        71.28725
807.63        71.01991
808.04        70.20713
808.45        69.87808
808.86        70.15611
809.27        70.49081
809.68        70.74223
810.09        70.90044
810.50        70.90694
810.91        70.77966
811.32        70.59181
811.73        70.47573
812.14        70.47353
812.55        70.49876
812.96        70.54321
813.37        70.69627
813.78         70.8933
814.19        70.91754
814.60        70.77785
815.01        70.68662
815.42        70.66111
815.83        70.56328
816.24        70.45029
816.65        70.50511
817.05          70.753
817.46        71.09578
817.87        71.44805
818.28        71.63367
818.69         71.6154
819.10        71.44592
819.51         71.2049
819.92        71.05586
820.33        71.06136
820.74        71.12718
821.14        71.21854
821.55        71.43299
821.96        71.68001
822.37        71.70934
822.78        71.55512
823.19        71.52674
823.60        71.65417
824.00        71.77293
824.41        71.79862
824.82        71.77184
825.23        71.68537
825.64        71.54082
826.04        71.40507
826.45        71.34755
826.86        71.39616
827.27        71.53271
827.68        71.69842
828.08        71.82016
828.49        71.80807
828.90        71.72662
829.31         71.6274
829.72        71.60017
830.12        71.68981
830.53        71.81575
830.94        71.95804
831.35        72.05243
831.75        72.09682
832.16        72.07137
832.57        72.00086
832.97        71.89167
833.38        71.75819
833.79        71.61832
834.20        71.51405
834.60        71.50211
835.01        71.60291
835.42         71.7886
835.82        72.05029
836.23        72.28821
836.64        72.48904
837.04        72.68304
837.45         72.8004
837.86        72.83483
838.26        72.79822
838.67         72.6749
839.08        72.53068
839.48        72.45947
839.89        72.48888
840.29        72.60641
840.70        72.75935
841.11        72.85796
841.51         72.8992
841.92        72.87109
842.33        72.83986
842.73        72.91145
843.14        73.05287
843.54         73.2448
843.95        73.41869
844.35         73.4881
844.76        73.42242
845.17        73.26449
845.57        73.04976
845.98        72.79887
846.38        72.56052
846.79        72.30348
847.19        72.09797
847.60        72.00599
848.00        72.05473
848.41        72.19759
848.81        72.36662
849.22        72.36794
849.62         72.2001
850.03        71.89862
850.43        71.58198
850.84        71.36085
851.24        71.32478
851.65        71.38224
852.05        71.58493
852.46        71.89667
852.86        72.26265
853.27        72.68866
853.67        73.00655
854.07        73.16747
854.48        73.12874
854.88        72.93987
855.29        72.61153
855.69        72.38554
856.10        72.24721
856.50        72.23061
856.90        72.23605
857.31        72.12424
857.71        71.91264
858.12          71.601
858.52        71.30891
858.92        71.09834
859.33        70.97768
859.73        70.95316
860.13        70.96138
860.54        70.91837
860.94        70.83357
861.34        70.70737
861.75        70.54426
862.15        70.41155
862.55        70.30212
862.96        70.21866
863.36        70.14959
863.76        70.06854
864.17        69.96476
864.57        69.85315
864.97        69.78537
865.38        69.82511
865.78        70.01633
866.18        70.30839
866.58        70.57121
866.99        70.58852
867.39         70.3504
867.79        69.92043
868.19        69.44978
868.60        69.12585
869.00        68.98631
869.40        68.98621
869.80        69.11254
870.21        69.33691
870.61        69.67427
871.01        70.06068
871.41        70.35561
871.81         70.3554
872.22        70.01444
872.62        69.41167
873.02        68.73895
873.42        68.37066
873.82        68.43189
874.22         68.8174
874.63        69.36431
875.03        69.80473
875.43        70.06958
875.83        70.22669
876.23        70.32396
876.63        70.43922
877.03        70.59079
877.44          70.721
877.84        70.80042
878.24        70.77317
878.64        70.62917
879.04        70.40269
879.44         70.1524
879.84        69.94211
880.24         69.7936
880.64        69.71174
881.04        69.65456
881.44         69.5502
881.84        69.38067
882.24        69.14152
882.65        68.91544
883.05        68.94173
883.45        69.20357
883.85        69.63848
884.25        70.01822
884.65        70.00142
885.05         69.5453
885.45        68.76704
885.85         67.9515
886.25        67.59464
886.65        67.82897
887.05        68.48971
887.45         69.3091
887.85        69.87997
888.25        70.07475
888.65        69.99728
889.04        69.75838
889.44        69.58617
889.84        69.53946
890.24         69.5565
890.64        69.55894
891.04        69.43971
891.44        69.18968
891.84        68.86945
892.24        68.60662
892.64        68.58107
893.04        68.81991
893.44         69.2552
893.83        69.74565
894.23        70.00258
894.63        69.97497
895.03         69.7241
895.43        69.38168
895.83        69.16943
896.23        69.15216
896.63        69.27077
897.02        69.40887
897.42        69.42583
897.82        69.28606
898.22        69.05946
898.62        68.85816
899.01        68.87076
899.41        69.11705
899.81        69.52425
900.21        69.98494
900.61        70.32941
901.00        70.48513
901.40        70.51828
901.80        70.43972
902.20        70.28281
902.59         70.0936
902.99        69.85876
903.39        69.65813
903.79        69.61169
904.18        69.73698
904.58        70.00275
904.98        70.32977
905.38        70.60175
905.77        70.76937
906.17        70.85585
906.57        70.86552
906.96        70.83511
907.36        70.75509
907.76        70.63587
908.15        70.47219
908.55        70.18986
908.95        69.83016
909.34         69.4149
909.74        69.08422
910.14        68.98262
910.53        69.13628
910.93        69.47727
911.33        69.87976
911.72        70.12469
912.12        70.13168
912.52         69.9888
912.91        69.76458
913.31         69.5864
913.70         69.4924
914.10        69.42784
914.49        69.44189
914.89        69.56796
915.29        69.80923
915.68        70.14129
916.08         70.4612
916.47         70.5965
916.87        70.52908
917.26        70.29391
917.66        69.99062
918.05        69.74743
918.45        69.60298
918.84         69.5485
919.24        69.55137
919.64        69.63412
920.03        69.80604
920.42        70.06857
920.82         70.3663
921.21        70.59846
921.61        70.72662
922.00        70.75706
922.40        70.78105
922.79        71.04192
923.19        71.52132
923.58          72.159
923.98         72.6718
924.37        72.69376
924.77        72.15753
925.16        71.18611
925.55        70.08457
925.95        69.38252
926.34        69.24828
926.74        69.52349
927.13        70.02917
927.52        70.36301
927.92        70.42509
928.31        70.32954
928.70        70.17511
929.10        70.09596
929.49        70.13303
929.89        70.18308
930.28         70.2791
930.67        70.38924
931.07        70.47636
931.46        70.57558
931.85        70.61514
932.24        70.50721
932.64        70.24932
933.03        69.88529
933.42         69.5007
933.82        69.23049
934.21        69.12399
934.60         69.1571
934.99        69.30624
935.39        69.50111
935.78        69.73946
936.17        70.02445
936.56        70.33369
936.96        70.61386
937.35        70.88332
937.74        71.09332
938.13        71.24236
938.53        71.35541
938.92         71.4371
939.31        71.46188
939.70        71.42464
940.09        71.31232
940.49         71.1124
940.88        70.90464
941.27        70.66975
941.66        70.36999
942.05        70.02489
942.44        69.66167
942.84        69.42066
943.23        69.46689
943.62        69.84509
944.01        70.47707
944.40        71.16984
944.79         71.5812
945.18        71.58791
945.57        71.26819
945.97        70.72675
946.36        70.20457
946.75        69.75537
947.14        69.35018
947.53        68.98927
947.92        68.67464
948.31        68.42983
948.70        68.29232
949.09        68.30803
949.48        68.52419
949.87        68.91872
950.26        69.43179
950.65        69.95862
951.04        70.34946
951.43        70.55136
951.82        70.58884
952.21        70.47599
952.60        70.26246
952.99        69.98714
953.38        69.64671
953.77        69.30663
954.16        69.05809
954.55        68.91452
954.94         68.8661
955.33        68.83733
955.72        68.68908
956.11        68.38866
956.50         67.9782
956.89        67.54229
957.28        67.22858
957.66        67.12004
958.05         67.1736
958.44        67.33726
958.83        67.51765
959.22        67.67418
959.61        67.79844
960.00        67.95089
960.39        68.23344
960.78        68.64097
961.16        69.15094
961.55        69.52202
961.94        69.46264
962.33        68.92237
962.72        68.03788
963.11        67.09162
963.49        66.48321
963.88        66.32059
964.27         66.5257
964.66        66.94192
965.04        67.29424
965.43        67.40781
965.82        67.39252
966.21        67.39253
966.60         67.6502
966.98         68.2024
967.37        68.89571
967.76        69.53606
968.15        69.75523
968.53        69.46487
968.92        68.83897
969.31        68.04436
969.69        67.29721
970.08        66.71007
970.47        66.25763
970.86        66.16814
971.24        66.82687
971.63        68.13152
972.02        69.85427
972.40         71.5756
972.79        72.59666
973.17        72.87204
973.56        72.51523
973.95        71.72829
974.33        70.86431
974.72        70.10084
975.11        69.36078
975.49        68.70414
975.88        68.26033
976.26        68.05625
976.65        68.10401
977.04        68.28228
977.42        68.31312
977.81        68.06718
978.19        67.57295
978.58        67.04933
978.96        66.83241
979.35         66.9865
979.74        67.43105
980.12        67.97891
980.51         68.1054
980.89        67.81203
981.28        67.18233
981.66        66.51685
982.05        66.39357
982.43         66.9423
982.82        67.91798
983.20        69.05783
983.59        69.80341
983.97        70.09204
984.35        70.01922
984.74        69.68881
985.12        69.27965
985.51        68.89838
985.89        68.55527
986.28        68.30811
986.66        68.31915
987.04        68.57015
987.43        68.99575
987.81        69.56041
988.20        70.09184
988.58        70.53572
988.96        70.88612
989.35        70.97944
989.73        70.67608
990.12        69.91614
990.50        68.67315
990.88        67.22132
991.27        66.27473
991.65        66.13522
992.03        66.69327
992.42        67.37305
992.80        67.67393
993.18        67.35381
993.56        66.51007
993.95        65.51341
994.33        65.07153
994.71        65.56612
995.10        66.55537
995.48        67.52866
995.86        67.84554
996.24        67.43193
996.63        66.37848
997.01        65.12377
997.39        64.57715
997.77        65.10931
998.15        66.47371
998.54        67.84337
998.92        68.10049
999.30        67.04592
999.68        64.98401
1000.06        62.83955
1000.45        62.27234
1000.83        63.77332
1001.21        66.69927
1001.59        69.88479
1001.97        71.66891
1002.35         71.6646
1002.73        70.32835
1003.12        68.31553
1003.50        66.92143
1003.88        66.77922
1004.26        67.36858
1004.64        68.31903
1005.02        69.21066
1005.40        69.89178
1005.78         70.5722
1006.16        71.03237
1006.54        70.80688
1006.92        69.84896
1007.30        68.29117
1007.69        66.67212
1008.07        65.81006
1008.45        66.01251
1008.83        67.02945
1009.21        68.42033
1009.59        69.55338
1009.97        70.21897
1010.35        70.52261
1010.73        70.55301
1011.11        70.50913
1011.49        70.50661
1011.86        70.59711
1012.24        70.43195
1012.62        69.79935
1013.00        68.76154
1013.38        67.49897
1013.76        66.58925
1014.14        66.95583
1014.52         68.8293
1014.90        71.97784
1015.28        75.68638
1015.66        78.44334
1016.04         79.5487
1016.41        79.31946
1016.79        78.12132
1017.17        77.00519
1017.55        76.27163
1017.93        75.69064
1018.31        75.04465
1018.69        73.93422
1019.06        72.33524
1019.44        70.51228
1019.82        68.86287
1020.20        68.18418
1020.58        68.68191
1020.95        69.79428
1021.33        71.21645
1021.71        72.59656
1022.09        73.74448
1022.46        74.78214
1022.84        75.12455
1023.22        73.51913
1023.60        69.66374
1023.97        63.44989
1024.35        56.55669
1024.73        52.74385
