SpectraSmart Spectrum 2.9.0.0
--------- Device Information -----------
Spectrum Name :  反射率_0
Saving Time :  2024/04/27 23:07:54
Spectro-Module Model Name : SE2030-DUVN
Spectro-Module Serial Number : OS361AC55029948
Wavelength Start : 200
Wavelength End : 1025
Wavelength Unit : Wavelength(nm)
Spectrum Unit : Reflectance(%)
-----------Spectrum Setting ------------
Integration Time : 20ms
Average : 10
Boxcar : 0
Background removal :  enabled
linearity correction :  enabled
SC :  disabled
Intensity correction :  disabled
DWT denoise :  enabled
savitzky-golay :  disabled
FFT :  disabled
Running average :  disabled
Kalman :  disabled
High pass :  disabled
---------------BEGIN--------------------
Wavelength(nm)             Reflectance(%)
200.29               0
200.75        44.86504
201.21        71.07904
201.67        86.35901
202.13        86.14745
202.58        75.84275
203.04        60.63145
203.50        46.50732
203.96        42.43619
204.42        48.31961
204.88        58.61998
205.34        68.74597
205.80        75.43693
206.26         78.7369
206.72        79.87727
207.18        78.53077
207.64        74.88171
208.10        71.35956
208.55        69.45837
209.01        67.38127
209.47        63.56462
209.93        55.97415
210.39        37.94492
210.85       -13.21033
211.31       -64.88484
211.77        17.01789
212.23        64.89527
212.69        81.26632
213.14        87.41262
213.60        89.41116
214.06        89.36047
214.52        86.78677
214.98        82.60825
215.44        79.89729
215.90        78.51546
216.36        77.79414
216.81        76.94884
217.27        75.61856
217.73        74.15623
218.19         72.0588
218.65        68.23512
219.11        62.72041
219.57        55.99908
220.02        49.37504
220.48        47.44482
220.94        51.28414
221.40        58.39727
221.86        67.27179
222.32        76.78655
222.77        85.81544
223.23        93.87038
223.69         99.4591
224.15        101.0278
224.61        98.90008
225.06        93.82169
225.52        87.50006
225.98         83.3461
226.44          82.564
226.90          83.663
227.36        85.38297
227.81        86.68324
228.27        87.60629
228.73         88.4157
229.19         88.9927
229.65        88.95442
230.10        88.14955
230.56        86.94521
231.02         85.5098
231.48         84.2683
231.93        83.25706
232.39        82.48999
232.85        82.11864
233.31        82.45011
233.77        83.36904
234.22        84.75008
234.68        85.88772
235.14        85.76976
235.60        84.23589
236.05        81.42042
236.51        78.10356
236.97        76.41104
237.43        77.20422
237.88        80.02624
238.34         83.1573
238.80         84.8381
239.26        84.48179
239.71        82.06067
240.17        76.83005
240.63        71.46219
241.08        70.16283
241.54         71.9178
242.00         74.0271
242.46        74.44475
242.91        72.90392
243.37        68.74857
243.83        60.15853
244.28        49.92484
244.74         50.8977
245.20        61.96854
245.66        71.19998
246.11        74.51911
246.57        73.41287
247.03        68.46399
247.48        59.72022
247.94         53.5797
248.40        56.59064
248.85        64.82533
249.31        73.30421
249.77        78.08012
250.22        79.43273
250.68         79.2924
251.14        78.56184
251.59        77.81971
252.05        77.18121
252.51        75.86751
252.96        73.56473
253.42        71.75144
253.88        71.13409
254.33        71.67206
254.79        72.10474
255.25        70.67329
255.70        67.76936
256.16        64.80349
256.62        63.04299
257.07        63.87032
257.53        66.76147
257.99        69.94147
258.44        72.02419
258.90        72.33846
259.35        70.82828
259.81        68.64883
260.27        66.18536
260.72        63.93074
261.18        62.38451
261.63        61.08015
262.09        60.13088
262.55        59.23305
263.00        58.27714
263.46          57.511
263.91        56.88317
264.37        56.68935
264.83        56.80722
265.28        57.03009
265.74        57.28759
266.19        57.27346
266.65        57.03087
267.11         56.6024
267.56        55.98798
268.02        55.30114
268.47         54.5516
268.93        53.75276
269.38         53.0069
269.84        52.51121
270.30        52.27525
270.75        52.23047
271.21        52.19895
271.66        51.84399
272.12        51.12309
272.57        50.09057
273.03        48.96124
273.48        47.97353
273.94        47.26201
274.39        46.70663
274.85        46.24038
275.31        45.65672
275.76        44.89874
276.22        44.08596
276.67        43.28245
277.13        42.70487
277.58        42.30338
278.04         42.0546
278.49        41.75202
278.95        41.24954
279.40        40.46254
279.86        39.54103
280.31        38.57576
280.77        37.84472
281.22        37.34454
281.68        37.05127
282.13         36.8092
282.59        36.48149
283.04        36.00142
283.50        35.43739
283.95         34.8591
284.41         34.4325
284.86        34.15706
285.32         33.9983
285.77        33.81653
286.22        33.46381
286.68         32.9391
287.13        32.27524
287.59        31.62007
288.04        31.10696
288.50        30.80629
288.95        30.63396
289.41        30.54046
289.86        30.39729
290.32         30.1911
290.77        29.94274
291.22        29.69126
291.68         29.4846
292.13        29.32405
292.59         29.2071
293.04        29.11075
293.50         29.0343
293.95        28.96963
294.40         28.9387
294.86        28.96187
295.31        29.05572
295.77        29.23144
296.22         29.4665
296.68        29.75852
297.13        30.07861
297.58        30.41777
298.04        30.77555
298.49         31.1281
298.95         31.4579
299.40        31.75844
299.85        32.03349
300.31        32.32986
300.76        32.68351
301.21        33.10841
301.67        33.59415
302.12         34.0643
302.58        34.44827
303.03        34.71297
303.48        34.88556
303.94        35.05683
304.39        35.31628
304.84        35.69169
305.30         36.1536
305.75        36.57785
306.20        36.81762
306.66        36.86501
307.11        36.75007
307.57        36.61674
308.02        36.62039
308.47        36.80735
308.93        37.11115
309.38         37.4096
309.83        37.54834
310.29        37.49964
310.74        37.30706
311.19        37.03999
311.65        36.80242
312.10          36.616
312.55        36.45886
313.00         36.3287
313.46        36.22399
313.91        36.13253
314.36        36.06471
314.82        35.99109
315.27        35.85433
315.72        35.64745
316.18        35.39291
316.63        35.12467
317.08         34.9218
317.53        34.80252
317.99         34.7397
318.44        34.70525
318.89        34.63719
319.35        34.51706
319.80        34.36424
320.25        34.19598
320.70         34.0458
321.16        33.91415
321.61         33.7908
322.06        33.65996
322.51        33.50238
322.97        33.30998
323.42         33.1103
323.87        32.89465
324.32        32.65525
324.78        32.39555
325.23        32.12396
325.68        31.88318
326.13         31.7499
326.59        31.72118
327.04        31.79312
327.49        31.87323
327.94        31.81837
328.39        31.59219
328.85        31.22629
329.30        30.81441
329.75        30.50804
330.20        30.36057
330.66        30.31945
331.11        30.34272
331.56        30.30733
332.01        30.17699
332.46        29.98939
332.92         29.7754
333.37        29.61865
333.82        29.53177
334.27        29.48065
334.72        29.44596
335.17        29.40078
335.63        29.32814
336.08        29.26713
336.53        29.18883
336.98        29.05529
337.43        28.87088
337.88        28.64414
338.34         28.4561
338.79        28.44622
339.24        28.63393
339.69        28.97292
340.14        29.33596
340.59        29.51414
341.05        29.45779
341.50        29.23872
341.95        28.95752
342.40        28.78721
342.85        28.77671
343.30          28.863
343.75          29.004
344.20        29.13284
344.66        29.22091
345.11        29.29245
345.56        29.31693
346.01        29.23874
346.46         29.0595
346.91        28.79323
347.36        28.52595
347.81        28.39245
348.26        28.42124
348.72         28.5822
349.17        28.78053
349.62        28.85962
350.07        28.78017
350.52        28.57877
350.97        28.36137
351.42         28.2992
351.87        28.42094
352.32        28.66343
352.77        28.88831
353.22        28.88937
353.67        28.62871
354.13        28.19274
354.58        27.69991
355.03        27.38807
355.48        27.32251
355.93        27.44076
356.38        27.62451
356.83        27.68798
357.28        27.58352
357.73        27.36759
358.18        27.13881
358.63        27.04744
359.08        27.11933
359.53         27.2922
359.98        27.45954
360.43        27.46234
360.88        27.26718
361.33        26.92925
361.78        26.53644
362.23        26.26337
362.68        26.15929
363.13        26.10706
363.58        26.03367
364.03        26.16339
364.48        25.91741
364.93        25.77112
365.38        25.58369
365.83        25.40069
366.28        25.23226
366.73        25.07089
367.18        24.92175
367.63        24.78273
368.08        24.65493
368.53        24.54199
368.98        24.44271
369.43        24.35079
369.88        24.26376
370.33        24.18136
370.78        24.09645
371.23        24.00201
371.68        23.89087
372.13        23.75293
372.58        23.60229
373.03        23.46177
373.48        23.34042
373.93        23.25185
374.38        23.15285
374.83        22.97099
375.28        22.70684
375.72        22.37485
376.17        22.10905
376.62        22.07791
377.07        22.29271
377.52        22.66996
377.97        23.04975
378.42        23.18453
378.87        23.01976
379.32        22.64897
379.77        22.17445
380.22        21.75072
380.67         21.4355
381.11         21.1863
381.56        21.02025
382.01        20.96441
382.46        21.00969
382.91        21.15414
383.36        21.31763
383.81        21.36678
384.26        21.27204
384.71        21.06058
385.15         20.8002
385.60         20.6404
386.05        20.60318
386.50        20.64784
386.95        20.71262
387.40        20.70043
387.85        20.59526
388.29        20.43011
388.74        20.27609
389.19        20.18214
389.64        20.15555
390.09        20.15852
390.54        20.17728
390.98        20.19012
391.43        20.19299
391.88        20.19593
392.33        20.15426
392.78        20.03604
393.23        19.85603
393.67        19.54419
394.12        19.20822
394.57        19.22486
395.02        19.26796
395.47        19.26968
395.91          19.133
396.36           19.08
396.81        19.11075
397.26        19.09241
397.71        19.02422
398.15        18.97618
398.60        18.97064
399.05        18.91009
399.50        18.82391
399.95        18.87694
400.39        19.00968
400.84        18.93767
401.29        18.68007
401.74        18.45584
402.18        18.33296
402.63        18.33907
403.08        18.43457
403.53        18.44852
403.97        18.36574
404.42        18.30533
404.87        18.28464
405.32        18.29269
405.76        18.32798
406.21        18.34175
406.66          18.332
407.11        18.38656
407.55        18.45133
408.00        18.33674
408.45        18.07058
408.90        17.76697
409.34        17.53418
409.79        17.58283
410.24        17.83653
410.68        17.94036
411.13        17.85711
411.58        17.79402
412.03        17.78376
412.47        17.78687
412.92        17.80213
413.37        17.83953
413.81         17.8715
414.26        17.87351
414.71        17.83542
415.15        17.76754
415.60        17.68471
416.05        17.62227
416.49        17.59376
416.94        17.58704
417.39        17.58795
417.83        17.57514
418.28        17.53709
418.73        17.47459
419.17        17.40627
419.62        17.36439
420.07        17.36203
420.51        17.39693
420.96        17.43106
421.41        17.42642
421.85        17.37258
422.30        17.20471
422.74        17.01132
423.19        17.13821
423.64        17.51464
424.08        17.66387
424.53        17.50784
424.98        17.42296
425.42        17.42524
425.87        17.18852
426.31        16.81243
426.76         16.8119
427.21        17.10224
427.65        17.06143
428.10        16.75014
428.54        16.68592
428.99        16.87499
429.44        17.20336
429.88        17.48767
430.33         17.2298
430.77        16.61018
431.22         16.4016
431.66        16.63119
432.11        16.83435
432.56        16.94539
433.00         17.0926
433.45        17.09259
433.89        16.78784
434.34        16.48716
434.78        15.66049
435.23        16.30694
435.67        16.84463
436.12        17.05501
436.57        17.11877
437.01        16.91787
437.46        16.79573
437.90        16.84822
438.35        16.97494
438.79        16.64639
439.24        16.54816
439.68        16.54533
440.13        16.58525
440.57        16.62739
441.02        16.75803
441.46         16.9176
441.91         16.7316
442.35        16.35497
442.80        16.53154
443.24        17.11654
443.69        17.13695
444.13        16.61647
444.58        16.38312
445.02        16.44559
445.47        16.37704
445.91        16.18862
446.36        16.12211
446.80        16.18286
447.24        16.29225
447.69        16.43018
448.13        16.60894
448.58        16.78745
449.02        16.87771
449.47        16.88561
449.91        16.89991
450.36        16.92995
450.80        16.91688
451.25         16.8683
451.69        16.82532
452.13        16.78927
452.58         16.7373
453.02        16.67668
453.47        16.62532
453.91         16.5844
454.36        16.58033
454.80        16.57413
455.24        16.48315
455.69        16.34283
456.13         16.1944
456.58        16.10017
457.02        16.21337
457.46        16.44539
457.91        16.48346
458.35        16.38996
458.79        16.36871
459.24        16.44061
459.68        16.45885
460.13        16.43207
460.57        16.34843
461.01        16.28812
461.46        16.26703
461.90         16.2106
462.34        16.18114
462.79        16.42879
463.23        16.50432
463.68        16.48524
464.12        16.45776
464.56        16.43991
465.01        16.47653
465.45        16.49775
465.89        16.39352
466.34        16.22255
466.78        16.07245
467.22        15.95449
467.67        16.22282
468.11        16.15554
468.55        16.15699
468.99        16.04404
469.44        16.02888
469.88        16.11383
470.32        16.17125
470.77        16.19941
471.21        16.24753
471.65        16.31632
472.10        16.39351
472.54        16.45605
472.98        16.49431
473.42        16.51144
473.87        16.46607
474.31        16.39699
474.75        16.51737
475.20        16.77486
475.64        16.84159
476.08        16.71559
476.52        16.71647
476.97        16.86354
477.41        16.82157
477.85        16.75328
478.29        16.88922
478.74        16.80369
479.18        16.69012
479.62        16.97101
480.06        17.02037
480.50        17.01733
480.95        16.96811
481.39         16.8673
481.83         17.0705
482.27        17.06762
482.72        16.98545
483.16         17.2101
483.60        17.29419
484.04        17.36783
484.48        17.51565
484.93        17.81314
485.37        17.83145
485.81        17.82376
486.25         18.3397
486.69        17.83674
487.14        17.45895
487.58        18.57165
488.02        18.41033
488.46        18.37675
488.90        18.82245
489.34        18.14009
489.79        17.96142
490.23        18.44936
490.67        18.75447
491.11        18.97546
491.55        18.96547
491.99        18.81318
492.43        18.84951
492.88        19.09251
493.32        19.29113
493.76        19.41517
494.20        19.59487
494.64        19.83938
495.08         20.0472
495.52        20.20376
495.96        20.47016
496.41         20.8137
496.85        20.69915
497.29        20.30107
497.73        20.43809
498.17          21.031
498.61        21.36472
499.05         21.3301
499.49        21.28761
499.93        21.29937
500.37        21.30297
500.82        21.31994
501.26        21.43622
501.70        21.67008
502.14        21.55297
502.58        21.83728
503.02        21.92524
503.46        21.94654
503.90        21.94236
504.34        21.91549
504.78         21.9401
505.22        22.01718
505.66        22.08646
506.10        22.15426
506.54        22.29087
506.98        22.49719
507.42        22.64381
507.86        22.86767
508.30        22.96265
508.74        22.97068
509.18        22.90452
509.62        22.81837
510.06        22.79961
510.50        22.86789
510.94        22.99682
511.38        23.14402
511.82        23.24055
512.26        23.26611
512.70         23.2462
513.14        23.20152
513.58        23.15426
514.02        23.11816
514.46        23.10425
514.90        23.12103
515.34        23.10186
515.78        23.17933
516.22         23.2416
516.66        23.32387
517.10        23.41354
517.54         23.5019
517.98        23.58344
518.42        23.63717
518.86        23.63613
519.30        23.57834
519.74        23.47662
520.18        23.35902
520.62        23.26889
521.06         23.2211
521.50        23.20796
521.93        23.22205
522.37        23.23961
522.81         23.2534
523.25        23.26369
523.69        23.26929
524.13        23.26834
524.57        23.25823
525.01        23.23763
525.45        23.19581
525.89        23.11777
526.32        23.00378
526.76        22.87249
527.20        22.74975
527.64        22.67902
528.08        22.66828
528.52          22.699
528.96        22.75134
529.40        22.79327
529.83        22.80947
530.27        22.80994
530.71        22.78121
531.15        22.70468
531.59        22.58403
532.03        22.42738
532.46        22.26972
532.90        22.18059
533.34        22.17181
533.78        22.22748
534.22        22.31056
534.66         22.3618
535.09        22.36337
535.53        22.33462
535.97        22.29798
536.41        22.29336
536.85        22.33004
537.28        22.39484
537.72        22.46384
538.16        22.49684
538.60        22.48897
539.04        22.46327
539.47        22.44174
539.91        22.46993
540.35        22.55063
540.79        22.67078
541.22        22.80947
541.66        22.93499
542.10        23.03455
542.54        23.11869
542.97        23.18643
543.41        23.24976
543.85        23.31172
544.29        23.37277
544.72        23.43955
545.16        23.54078
545.60        23.67284
546.04        23.82664
546.47        23.99391
546.91        24.15479
547.35        24.29918
547.79        24.44369
548.22        24.57219
548.66         24.6545
549.10        24.70792
549.53        24.82664
549.97        25.01565
550.41         25.1979
550.84        25.36719
551.28        25.57518
551.72        25.79485
552.15        25.95166
552.59        26.04235
553.03         26.0813
553.46        26.09989
553.90        26.16653
554.34         26.2911
554.77        26.46461
555.21        26.64969
555.65        26.78686
556.08        26.83583
556.52         26.8766
556.96        26.92565
557.39        27.04719
557.83        27.22696
558.27        27.33017
558.70        27.35398
559.14        27.39763
559.57        27.45678
560.01        27.51109
560.45        27.54736
560.88        27.52993
561.32        27.51878
561.75        27.58446
562.19        27.73242
562.63        27.95484
563.06        28.17713
563.50        28.18932
563.93        28.03599
564.37        28.03762
564.80        28.20316
565.24        28.36824
565.68        28.50815
566.11        28.64792
566.55        28.78508
566.98        28.93387
567.42        29.08166
567.85         29.1272
568.29        29.12608
568.72        29.16918
569.16        29.26966
569.60        29.45545
570.03        29.74938
570.47        29.78703
570.90        29.89568
571.34        30.52201
571.77        30.47836
572.21        30.47033
572.64        30.77324
573.08        30.69234
573.51        30.93007
573.95        31.07822
574.38        31.16114
574.82        31.52149
575.25        31.29148
575.69        31.20723
576.12        31.23791
576.56        31.70132
576.99        31.65637
577.42        31.55229
577.86         31.4354
578.29        31.77736
578.73        31.44811
579.16        31.45661
579.60        31.38361
580.03         31.3314
580.47        31.30002
580.90        31.07641
581.33        31.16337
581.77        31.19107
582.20        30.86798
582.64        30.66945
583.07        30.60024
583.51        30.48513
583.94        30.45278
584.37         30.4012
584.81        30.32255
585.24        30.22436
585.68        30.17661
586.11        29.86395
586.54        29.78729
586.98        29.67426
587.41        30.10087
587.85        29.64145
588.28        29.58306
588.71         29.4814
589.15        29.73167
589.58        29.27206
590.01        29.55758
590.45        29.52934
590.88        29.13923
591.31        29.09169
591.75        29.23473
592.18        29.34143
592.61        29.42331
593.05        29.49755
593.48        29.75438
593.91        29.51747
594.35        29.55855
594.78        29.83781
595.21        30.01666
595.65         30.1275
596.08        29.99892
596.51        30.41908
596.94        30.34586
597.38        30.63012
597.81        31.01458
598.24        30.81432
598.68        31.32903
599.11        31.62814
599.54         31.7499
599.97        32.02765
600.41        32.64982
600.84        33.01871
601.27        33.18633
601.70        33.47601
602.14        33.57495
602.57        34.03305
603.00        34.37329
603.43        34.72804
603.87        35.17421
604.30        35.44926
604.73        35.77111
605.16        36.45569
605.60        36.89244
606.03        37.35809
606.46        37.62345
606.89        37.91355
607.32        38.23856
607.76        38.75759
608.19        38.85131
608.62        39.21276
609.05        39.70341
609.48        39.93669
609.92        39.83449
610.35        40.71101
610.78        40.77908
611.21        40.71355
611.64        41.38147
612.07        41.57692
612.50        41.72362
612.94        41.87757
613.37        42.08273
613.80        42.43293
614.23        42.53595
614.66        42.81737
615.09        43.16913
615.52        43.49107
615.96        43.72979
616.39        44.05613
616.82        44.36296
617.25        44.24306
617.68        44.73442
618.11        44.83215
618.54        44.92315
618.97        45.21527
619.40        45.62748
619.84        46.05224
620.27        46.04578
620.70        45.98824
621.13        45.83319
621.56        46.16641
621.99        46.42301
622.42        46.50616
622.85        46.40562
623.28        46.38255
623.71        46.63027
624.14        46.32775
624.57        46.52631
625.00        46.74291
625.43        46.41266
625.86        46.37192
626.29         46.3699
626.72        46.35862
627.15        46.18483
627.58        46.12424
628.01        46.19759
628.44        45.80013
628.87         45.5693
629.30        45.67166
629.73        45.13673
630.16        44.43973
630.59        44.44402
631.02        44.21959
631.45        44.05103
631.88        43.84181
632.31        43.59922
632.74        43.12956
633.17         42.8651
633.60         42.4712
634.03        42.08079
634.46        41.68372
634.89        41.28902
635.32        40.89703
635.75        40.50673
636.18        40.14648
636.61        39.80487
637.04        39.41292
637.47        38.98895
637.89        38.64858
638.32         38.3661
638.75         38.0409
639.18        37.67347
639.61        37.32755
640.04        37.01315
640.47        36.72567
640.90        36.46986
641.33        36.23252
641.76        36.00687
642.18         35.8701
642.61        35.67816
643.04         35.5447
643.47        35.42881
643.90        35.33329
644.33        35.25805
644.76        35.20459
645.18        35.17683
645.61        35.17514
646.04        35.19962
646.47        35.24682
646.90        35.32363
647.33        35.43481
647.75        35.58968
648.18        35.81001
648.61        36.06808
649.04        36.32712
649.47        36.59087
649.89        36.81175
650.32        37.06047
650.75        37.59476
651.18         38.3264
651.61        38.86814
652.03        39.14717
652.46        39.31622
652.89        39.56147
653.32        39.88179
653.74        40.39375
654.17        41.29992
654.60        41.40753
655.03        41.17517
655.46        41.94973
655.88        43.00626
656.31        43.95535
656.74        44.70744
657.16        44.95147
657.59        45.42038
658.02        44.50954
658.45        44.79561
658.87        45.36356
659.30        45.78282
659.73        45.81497
660.15        45.78397
660.58        45.93311
661.01        46.38998
661.44        47.09737
661.86        47.50383
662.29        47.56905
662.72        47.55473
663.14        47.58028
663.57        47.81341
664.00        48.22272
664.42        48.46966
664.85        48.55124
665.27        48.72444
665.70        48.98563
666.13        49.18913
666.55        49.33098
666.98        49.45377
667.41         49.5874
667.83        49.76954
668.26        50.00194
668.69        50.27704
669.11        50.54766
669.54        50.75278
669.96        50.88848
670.39         50.9118
670.82        50.89713
671.24        51.09735
671.67        51.46679
672.09        51.65343
672.52        51.67597
672.94        51.78014
673.37        51.98957
673.80        52.20091
674.22        52.39083
674.65         52.5055
675.07        52.55015
675.50        52.54926
675.92        52.54998
676.35        52.60041
676.77        52.72162
677.20        52.90555
677.62        53.11932
678.05         53.2907
678.47        53.40117
678.90        53.47662
679.32        53.54981
679.75        53.68391
680.17        53.88868
680.60         54.1458
681.02        54.39483
681.45        54.54165
681.87        54.58114
682.30        54.48144
682.72        54.34229
683.15        54.44537
683.57        54.80367
684.00        54.94585
684.42        54.90017
684.85        55.03642
685.27        55.34814
685.70        55.60868
686.12        55.76853
686.54        55.90025
686.97        55.98753
687.39        55.92566
687.82        55.92887
688.24        55.83477
688.66        55.98508
689.09        56.11853
689.51        56.29971
689.94        56.45656
690.36        56.58015
690.78        56.69033
691.21        56.78322
691.63        56.84558
692.06        56.87912
692.48        56.88073
692.90        56.88893
693.33         56.9272
693.75        57.00459
694.17        57.21313
694.60        57.48111
695.02        57.50142
695.44        57.35281
695.87        57.51135
696.29        57.94831
696.71        58.29922
697.14        58.46973
697.56        58.47194
697.98        58.36155
698.41        58.38148
698.83        58.54009
699.25        58.70294
699.68        58.82878
700.10        58.97732
700.52         59.1296
700.94         59.2697
701.37        59.38515
701.79        59.49062
702.21        59.57064
702.64        59.63391
703.06        59.68474
703.48         59.7491
703.90         59.8417
704.33        59.95776
704.75        60.09254
705.17        60.21554
705.59        60.31467
706.01        60.36995
706.44        60.41483
706.86        60.58552
707.28        60.70906
707.70        60.98388
708.12        61.27985
708.55        61.26099
708.97        61.00048
709.39        61.01595
709.81        61.29998
710.23        61.40394
710.66        61.31133
711.08        61.31347
711.50        61.41209
711.92        61.49554
712.34        61.56489
712.76        61.65124
713.19        61.74756
713.61        61.88075
714.03        62.03178
714.45        62.18845
714.87        62.33983
715.29        62.47599
715.71        62.59296
716.13        62.69272
716.56        62.76945
716.98        62.86066
717.40        62.94653
717.82        63.06326
718.24          63.215
718.66        63.19699
719.08        63.34266
719.50        63.38393
719.92        63.42867
720.34         63.4797
720.76        63.54237
721.19        63.60493
721.61         63.6665
722.03        63.70525
722.45        63.71843
722.87        63.71375
723.29        63.71664
723.71        63.76601
724.13        63.87285
724.55        64.02934
724.97        64.20495
725.39        64.34986
725.81        64.44736
726.23        64.50159
726.65        64.54829
727.07        64.64682
727.49        64.80761
727.91        65.01468
728.33        65.20374
728.75        65.26957
729.17        65.19207
729.59        65.00464
730.01        64.80169
730.43        64.73402
730.85        64.83489
731.27        65.05678
731.69        65.30579
732.10        65.44923
732.52        65.44291
732.94        65.34117
733.36        65.20885
733.78        65.21712
734.20        65.20156
734.62        65.60563
735.04        65.52245
735.46         65.9733
735.88        66.21315
736.30        66.14961
736.72        65.75767
737.13        65.74277
737.55        66.05962
737.97        66.10987
738.39        65.89503
738.81         65.7534
739.23        65.75188
739.65        65.93324
740.06        66.19453
740.48        66.33457
740.90        66.30556
741.32        66.31615
741.74        66.30713
742.16        66.36987
742.57        66.49613
742.99        66.66817
743.41        66.86234
743.83        67.02489
744.25         67.1413
744.67        67.21881
745.08        67.28625
745.50        67.35285
745.92        67.42992
746.34        67.50253
746.75         67.5472
747.17        67.50993
747.59        67.39071
748.01        67.26192
748.42        67.15364
748.84        67.01622
749.26        66.92015
749.68        67.03791
750.09        67.31632
750.51        67.58102
750.93        67.74599
751.35        67.74775
751.76        67.63444
752.18        67.58656
752.60        67.63439
753.01        67.66862
753.43        67.66737
753.85        67.69747
754.27        67.75557
754.68        67.81395
755.10        67.88515
755.52        67.98591
755.93        68.12652
756.35        68.31888
756.77        68.49024
757.18        68.60413
757.60        68.68005
758.02        68.45937
758.43        68.10535
758.85        68.45882
759.26        69.33477
759.68        69.05054
760.10        68.92076
760.51         67.8354
760.93        68.47243
761.34        68.27198
761.76        68.73322
762.18        68.78717
762.59        68.74201
763.01        68.80504
763.42        69.02448
763.84        69.20618
764.26        69.33961
764.67        69.37861
765.09        69.37413
765.50        69.50254
765.92        69.71265
766.33        69.57172
766.75        69.09241
767.16        68.90864
767.58        68.99009
768.00        69.06607
768.41        69.11762
768.83        69.31872
769.24        69.59585
769.66        69.67163
770.07        69.56127
770.49          69.618
770.90        69.83193
771.32        69.87279
771.73        69.76474
772.15         69.7162
772.56        69.74772
772.97        69.82018
773.39        69.89409
773.80         69.8532
774.22        69.74413
774.63        69.97399
775.05        70.43404
775.46        70.66451
775.88        70.58635
776.29         70.4835
776.70        70.42427
777.12        70.42505
777.53        70.53095
777.95        70.70728
778.36        70.90637
778.77        71.03265
779.19        71.06334
779.60        71.04054
780.02         70.9757
780.43        70.93817
780.84        70.93034
781.26        70.85639
781.67        70.81448
782.09        70.98257
782.50        71.14462
782.91        71.64224
783.33        70.69719
783.74         70.6411
784.15        70.96154
784.57        71.19382
784.98        71.29468
785.39         71.4939
785.81        71.73264
786.22         71.8177
786.63        71.74842
787.04        71.58173
787.46        71.41929
787.87        71.46677
788.28        71.66441
788.70        71.71455
789.11        71.59709
789.52        71.41869
789.93        71.27346
790.35        71.46261
790.76        71.89455
791.17         71.9415
791.58        71.68909
792.00        71.70895
792.41        71.99522
792.82        72.63454
793.23        72.72925
793.65        72.72013
794.06        72.49954
794.47        72.64639
794.88         73.0496
795.29        73.19111
795.71        72.85474
796.12        72.57059
796.53        72.37165
796.94        72.32336
797.35        72.42911
797.76        72.53329
798.18        72.62183
798.59        72.78481
799.00        73.00871
799.41         73.1973
799.82        73.31379
800.23        73.36523
800.64        73.34602
801.06        73.23008
801.47        73.08982
801.88        72.97129
802.29        72.89517
802.70        72.85864
803.11         72.8633
803.52        72.85107
803.93        72.80323
804.34        72.85674
804.75        73.01677
805.17        72.82786
805.58         72.7992
805.99        73.02988
806.40        73.54846
806.81        73.75645
807.22        73.62812
807.63        73.56015
808.04        73.61951
808.45        73.68294
808.86        73.75983
809.27        73.93393
809.68        74.12699
810.09        74.15815
810.50        74.00203
810.91        73.71941
811.32        73.42739
811.73        73.33125
812.14        73.48279
812.55        73.77972
812.96        74.13079
813.37        74.45937
813.78        74.66503
814.19        74.60933
814.60        74.36014
815.01        74.18882
815.42        74.13906
815.83        74.06687
816.24        74.00715
816.65        74.08614
817.05        74.31476
817.46        74.62766
817.87        74.94268
818.28        75.07717
818.69        74.99641
819.10        74.74512
819.51        74.44073
819.92        74.30367
820.33        74.39707
820.74         74.6452
821.14        74.93243
821.55        75.11429
821.96        75.12788
822.37        75.03272
822.78        74.86748
823.19        74.69769
823.60        74.56617
824.00        74.47627
824.41        74.41402
824.82        74.45227
825.23         74.5906
825.64        74.80846
826.04        75.08083
826.45        75.31628
826.86        75.49144
827.27         75.6265
827.68        75.69044
828.08        75.67047
828.49         75.5125
828.90        75.26714
829.31        75.04177
829.72        75.02103
830.12        75.26199
830.53        75.65596
830.94        76.09612
831.35        76.36059
831.75        76.39999
832.16        76.23003
832.57        75.91983
832.97        75.56542
833.38        75.22568
833.79        74.89797
834.20        74.64873
834.60        74.56604
835.01        74.66893
835.42        74.93294
835.82        75.29488
836.23        75.54918
836.64        75.65795
837.04        75.67416
837.45        75.60381
837.86        75.57009
838.26        75.62057
838.67        75.70956
839.08        75.81627
839.48        75.89406
839.89        75.92776
840.29        75.92859
840.70        75.94985
841.11        76.07101
841.51        76.32124
841.92        76.64491
842.33        76.93967
842.73        77.03466
843.14        76.84483
843.54        76.44197
843.95        76.00122
844.35        75.83063
844.76        75.98345
845.17        76.37627
845.57        76.79796
845.98         76.8529
846.38        76.48024
846.79        75.79095
847.19        75.03374
847.60        74.56204
848.00        74.51096
848.41        74.73613
848.81        75.13744
849.22        75.47052
849.62        75.68381
850.03        75.82299
850.43        75.92174
850.84        75.94642
851.24         75.9571
851.65        75.87547
852.05        75.82292
852.46        75.91438
852.86        76.15739
853.27        76.51855
853.67        76.80432
854.07        76.93042
854.48        76.83346
854.88        76.59212
855.29        76.17801
855.69        75.76926
856.10         75.3512
856.50        74.99022
856.90        74.68457
857.31         74.4535
857.71        74.34747
858.12        74.31621
858.52        74.38728
858.92        74.46712
859.33        74.50439
859.73        74.53754
860.13        74.52525
860.54        74.43201
860.94        74.29548
861.34         74.1001
861.75        73.85139
862.15        73.62469
862.55        73.41704
862.96         73.2345
863.36        73.09718
863.76        73.01575
864.17        72.98549
864.57         73.0228
864.97        73.10644
865.38        73.18111
865.78        73.27512
866.18        73.36353
866.58        73.43966
866.99        73.51273
867.39        73.60715
867.79        73.67897
868.19         73.7132
868.60        73.65401
869.00         73.4878
869.40        73.26801
869.80        73.03136
870.21        72.85949
870.61         72.8559
871.01          72.925
871.41        73.05112
871.81        73.20889
872.22        73.35296
872.62        73.52957
873.02        73.67313
873.42        73.65359
873.82         73.4613
874.22        73.15429
874.63        72.89232
875.03        72.87954
875.43        73.15669
875.83        73.64337
876.23         74.2178
876.63         74.6724
877.03        74.91936
877.44        74.99131
877.84        74.91386
878.24         74.7087
878.64        74.41396
879.04        74.04365
879.44         73.6582
879.84        73.33513
880.24        73.09725
880.64        72.94619
881.04        72.88179
881.44        72.88908
881.84          72.952
882.24        73.05405
882.65        73.15034
883.05         73.2739
883.45        73.36906
883.85        73.43064
884.25         73.4235
884.65        73.30089
885.05        73.07177
885.45        72.76332
885.85        72.46204
886.25        72.32069
886.65        72.37989
887.05        72.59187
887.45        72.87785
887.85        73.10985
888.25        73.24481
888.65        73.31738
889.04        73.32214
889.44        73.30065
889.84        73.24476
890.24        73.11905
890.64        72.97063
891.04        72.88512
891.44        72.87746
891.84        72.95317
892.24        72.99602
892.64        72.80851
893.04        72.38158
893.44        71.79744
893.83        71.29896
894.23        71.20541
894.63        71.60104
895.03        72.35095
895.43        73.21938
895.83        73.81721
896.23        74.02332
896.63        73.95508
897.02        73.71507
897.42        73.50248
897.82        73.37822
898.22        73.29558
898.62        73.27373
899.01        73.36588
899.41        73.54823
899.81        73.81802
900.21         74.1332
900.61        74.40693
901.00        74.59129
901.40        74.71651
901.80        74.73615
902.20        74.60374
902.59        74.34049
902.99        73.95084
903.39        73.56949
903.79        73.40202
904.18        73.49308
904.58        73.80404
904.98        74.18237
905.38        74.40497
905.77        74.40523
906.17        74.22494
906.57        73.99583
906.96        73.96889
907.36        74.17371
907.76        74.56478
908.15        74.91772
908.55        74.79108
908.95        74.14722
909.34        73.11706
909.74        72.12237
910.14        71.75021
910.53        72.13187
910.93        73.07256
911.33        74.18805
911.72        74.81476
912.12        74.75823
912.52        74.26109
912.91        73.62225
913.31        73.29992
913.70        73.39848
914.10        73.74687
914.49         74.2457
914.89        74.65768
915.29        74.89886
915.68        75.04563
916.08        75.09422
916.47        75.02517
916.87        74.87083
917.26        74.59963
917.66        74.31063
918.05        74.13464
918.45        74.09702
918.84        74.21327
919.24         74.3596
919.64        74.40181
920.03         74.3295
920.42        74.17868
920.82        74.06808
921.21        74.17805
921.61        74.51445
922.00        74.99692
922.40        75.49843
922.79        75.88501
923.19        76.04536
923.58        76.06742
923.98          75.874
924.37        75.39816
924.77        74.66921
925.16        73.73103
925.55        72.84289
925.95        72.45013
926.34        72.66171
926.74        73.32487
927.13        74.21732
927.52        74.86595
927.92        75.14331
928.31        75.15601
928.70        75.00163
929.10        74.82821
929.49        74.70367
929.89        74.54591
930.28        74.44946
930.67        74.47437
931.07        74.61985
931.46        74.90449
931.85        75.23419
932.24        75.48083
932.64        75.60362
933.03        75.62654
933.42        75.58023
933.82        75.51865
934.21         75.4687
934.60        75.41943
934.99        75.36858
935.39        75.29426
935.78        75.22601
936.17        75.16021
936.56         75.1254
936.96        75.14635
937.35        75.27226
937.74        75.46783
938.13        75.65098
938.53        75.70867
938.92        75.62016
939.31        75.38129
939.70        75.10981
940.09        75.02093
940.49        75.12232
940.88        75.37559
941.27        75.56446
941.66        75.35384
942.05        74.71316
942.44        73.81226
942.84        72.89819
943.23        72.31278
943.62         72.1965
944.01        72.41317
944.40        72.93409
944.79         73.6864
945.18        74.53758
945.57        75.45088
945.97        76.11467
946.36        76.15076
946.75        75.48844
947.14        74.24401
947.53        72.77889
947.92        71.76123
948.31        71.42705
948.70        71.63321
949.09        72.13975
949.48        72.53555
949.87        72.68043
950.26        72.68048
950.65        72.63731
951.04        72.70374
951.43        72.91381
951.82        73.19316
952.21        73.39722
952.60        73.31757
952.99        72.92488
953.38        72.30995
953.77        71.70729
954.16        71.45874
954.55        71.62545
954.94        72.09959
955.33        72.65067
955.72        72.89018
956.11        72.70677
956.50        72.21603
956.89        71.59273
957.28        71.14469
957.66         71.0192
958.05         71.1171
958.44        71.35532
958.83        71.60073
959.22         71.7785
959.61        71.87615
960.00        71.95276
960.39        72.09525
960.78        72.29962
961.16        72.57952
961.55         72.6389
961.94        72.10698
962.33        70.98148
962.72        69.47433
963.11        68.08806
963.49        67.53764
963.88        67.96168
964.27        69.15689
964.66         70.7254
965.04        71.92951
965.43        72.40469
965.82        72.38058
966.21        72.08723
966.60        71.92192
966.98        72.00554
967.37        72.12212
967.76         72.2349
968.15        72.27507
968.53        72.23367
968.92        72.24515
969.31        72.19873
969.69        71.85313
970.08        71.22003
970.47        70.37962
970.86        69.81728
971.24        70.38295
971.63        72.06688
972.02        74.44086
972.40         76.8205
972.79        78.16538
973.17        78.36703
973.56        77.67943
973.95        76.42911
974.33         75.1883
974.72        74.22243
975.11        73.37337
975.49        72.73347
975.88        72.47301
976.26        72.61783
976.65        73.22086
977.04        73.96483
977.42        74.22555
977.81        73.78294
978.19        72.69238
978.58        71.54409
978.96         71.3664
979.35        72.36498
979.74        74.26707
980.12        76.25674
980.51        76.80238
980.89         75.6768
981.28        73.20921
981.66        70.40223
982.05        69.11996
982.43         69.8943
982.82        72.10252
983.20        74.74961
983.59        76.13811
983.97        75.93185
984.35        74.60358
984.74         72.7752
985.12        71.54168
985.51        71.28685
985.89        71.64075
986.28        72.32229
986.66        73.04289
987.04        73.63508
987.43        74.20953
987.81        74.71078
988.20        74.88771
988.58        74.75758
988.96        74.36639
989.35        73.78597
989.73         73.2656
990.12        72.84595
990.50         72.4308
990.88        72.21724
991.27        72.56844
991.65        73.47774
992.03        74.79795
992.42        75.84226
992.80        76.01389
993.18        75.12168
993.56        73.22211
993.95        70.87862
994.33        69.54895
994.71        69.95473
995.10        71.43354
995.48        73.10468
995.86        73.93076
996.24        73.80143
996.63        72.99074
997.01        71.87743
997.39        71.20185
997.77        71.31609
998.15        71.93197
998.54        72.69156
998.92        73.16348
999.30        73.23185
999.68        73.09512
1000.06        72.88425
1000.45        72.74998
1000.83        72.82298
1001.21        72.92777
1001.59        73.09864
1001.97        73.41198
1002.35        73.87448
1002.73        74.57047
1003.12        75.16992
1003.50        74.87413
1003.88        73.62939
1004.26        71.74498
1004.64        70.08392
1005.02        69.70847
1005.40        70.72426
1005.78        72.87093
1006.16        75.31001
1006.54        76.49836
1006.92        75.97329
1007.30        74.13895
1007.69        72.03345
1008.07        71.30321
1008.45        72.42587
1008.83        74.80844
1009.21        77.39156
1009.59        78.69737
1009.97        78.31292
1010.35         76.4913
1010.73        73.89545
1011.11        72.25974
1011.49         72.4436
1011.86        74.06429
1012.24         75.8549
1012.62        76.27885
1013.00        75.08948
1013.38        72.89491
1013.76         70.6073
1014.14        69.69977
1014.52        70.62456
1014.90        72.90622
1015.28        75.93729
1015.66        78.46368
1016.04        79.85484
1016.41         80.5213
1016.79        80.42565
1017.17         79.9317
1017.55        79.27085
1017.93        78.37836
1018.31        77.61433
1018.69        77.59022
1019.06        78.48914
1019.44        80.21707
1019.82        82.40557
1020.20        84.11511
1020.58        84.78185
1020.95        84.41508
1021.33        83.31664
1021.71         81.8138
1022.09        80.03677
1022.46         78.0005
1022.84        75.53574
1023.22        72.21098
1023.60        67.99635
1023.97         62.7382
1024.35         57.9298
1024.73        56.39055
