SpectraSmart Spectrum 2.9.0.0
--------- Device Information -----------
Spectrum Name :  反射率_0
Saving Time :  2024/04/27 22:13:00
Spectro-Module Model Name : SE2030-DUVN
Spectro-Module Serial Number : OS361AC55029948
Wavelength Start : 200
Wavelength End : 1025
Wavelength Unit : Wavelength(nm)
Spectrum Unit : Reflectance(%)
-----------Spectrum Setting ------------
Integration Time : 20ms
Average : 10
Boxcar : 0
Background removal :  enabled
linearity correction :  enabled
SC :  disabled
Intensity correction :  disabled
DWT denoise :  enabled
savitzky-golay :  disabled
FFT :  disabled
Running average :  disabled
Kalman :  disabled
High pass :  disabled
---------------BEGIN--------------------
Wavelength(nm)             Reflectance(%)
200.29               0
200.75       -43.46872
201.21       -16.76573
201.67        8.636777
202.13        23.27115
202.58        30.95497
203.04        35.75745
203.50        40.42249
203.96        47.06175
204.42        54.82954
204.88        62.28357
205.34         67.8185
205.80        70.43418
206.26        70.20184
206.72        66.41092
207.18        59.08025
207.64        54.02398
208.10        55.87682
208.55        61.77131
209.01        64.59805
209.47        61.05025
209.93        48.68017
210.39        15.00222
210.85       -88.78169
211.31       -221.0065
211.77        -75.4606
212.23        23.95033
212.69        59.34024
213.14         69.5663
213.60        67.84735
214.06        57.41391
214.52        36.77219
214.98        21.11493
215.44        27.56226
215.90        41.90393
216.36        54.34772
216.81        62.56868
217.27        68.06861
217.73        73.12878
218.19        77.36439
218.65        79.33615
219.11        78.72819
219.57        75.44753
220.02        70.92588
220.48        69.94442
220.94        73.54258
221.40        79.88133
221.86         85.9026
222.32        88.68201
222.77        88.48955
223.23        86.75551
223.69        85.24429
224.15        85.84867
224.61        88.75478
225.06        93.31676
225.52        98.22047
225.98        100.1164
226.44        98.69041
226.90        95.84635
227.36        93.48991
227.81        93.03828
228.27        94.58492
228.73        97.43363
229.19        100.8718
229.65        103.3133
230.10         103.917
230.56        103.3939
231.02        102.1898
231.48        101.0657
231.93        100.1812
232.39        99.48613
232.85        98.86421
233.31        98.35464
233.77        97.93409
234.22        97.64985
234.68         97.4282
235.14        97.04345
235.60        96.45492
236.05        95.72948
236.51        94.87685
236.97        94.21255
237.43        93.86698
237.88        93.83737
238.34        93.80159
238.80        93.81272
239.26        93.78127
239.71         93.9729
240.17         93.4252
240.63        90.65341
241.08         86.2622
241.54        82.10536
242.00        79.50318
242.46        78.00809
242.91        76.87593
243.37        75.48347
243.83        72.86503
244.28         67.4789
244.74        61.55862
245.20        59.24368
245.66        58.58643
246.11        55.82126
246.57        49.47279
247.03         38.7201
247.48        22.94114
247.94        11.76774
248.40        15.89355
248.85        29.26627
249.31        44.10268
249.77        54.62911
250.22        60.35096
250.68        63.09105
251.14        64.03795
251.59        64.05581
252.05        63.58537
252.51         62.2738
252.96        59.60504
253.42        56.79982
253.88        55.33325
254.33        55.86242
254.79        58.03447
255.25        60.94022
255.70        64.13496
256.16         67.7607
256.62        71.57845
257.07        75.24927
257.53        78.70621
257.99        81.43089
258.44        82.87218
258.90        83.12486
259.35        82.10695
259.81        80.73251
260.27         79.2518
260.72        78.01646
261.18        77.50124
261.63        77.17787
262.09        77.17018
262.55         77.0873
263.00        76.79002
263.46        76.57265
263.91        76.34701
264.37        76.46851
264.83        76.79382
265.28        77.10892
265.74        77.36567
266.19        77.18096
266.65        76.64452
267.11        75.80026
267.56        74.74451
268.02        73.76126
268.47        72.87566
268.93        72.06929
269.38        71.29526
269.84        70.53001
270.30        69.74831
270.75        68.96973
271.21        68.20102
271.66        67.36228
272.12        66.48048
272.57        65.52433
273.03        64.57256
273.48        63.63579
273.94        62.79984
274.39        61.98248
274.85        61.24494
275.31        60.52584
275.76        59.77199
276.22        59.05684
276.67        58.28872
277.13        57.51917
277.58        56.66868
278.04        55.81596
278.49        54.89988
278.95        54.02057
279.40        53.11157
279.86        52.24756
280.31        51.36873
280.77         50.5701
281.22        49.79933
281.68        49.13641
282.13        48.49098
282.59        47.84946
283.04        47.15569
283.50         46.4431
283.95         45.7574
284.41        45.25955
284.86        44.92485
285.32        44.73326
285.77        44.50316
286.22        44.04325
286.68        43.35082
287.13        42.46405
287.59        41.57311
288.04        40.86403
288.50        40.42507
288.95        40.14234
289.41        39.95441
289.86        39.69473
290.32        39.35233
290.77        38.96852
291.22        38.57855
291.68        38.21731
292.13        37.88889
292.59        37.59475
293.04         37.3647
293.50        37.29188
293.95        37.36527
294.40        37.56168
294.86        37.80029
295.31        37.93851
295.77        37.95067
296.22        37.86089
296.68        37.73967
297.13        37.67908
297.58        37.71684
298.04        37.82788
298.49        37.96687
298.95        38.08743
299.40        38.16468
299.85        38.21584
300.31        38.28712
300.76        38.41002
301.21        38.59443
301.67         38.8223
302.12        39.00819
302.58        39.07844
303.03        39.00173
303.48        38.82627
303.94        38.64564
304.39        38.54655
304.84         38.5685
305.30        38.68356
305.75        38.80854
306.20        38.86195
306.66        38.83244
307.11        38.71687
307.57        38.58189
308.02        38.46091
308.47        38.38264
308.93        38.33281
309.38        38.25342
309.83        38.08722
310.29        37.83692
310.74        37.51506
311.19        37.18775
311.65        36.95421
312.10        36.81806
312.55        36.75102
313.00        36.70571
313.46        36.60937
313.91        36.43406
314.36        36.20733
314.82        35.93335
315.27        35.61619
315.72        35.27342
316.18        34.91647
316.63         34.5776
317.08        34.32955
317.53         34.1854
317.99        34.12255
318.44        34.10503
318.89        34.05404
319.35        33.94468
319.80        33.79591
320.25        33.62392
320.70        33.46472
321.16        33.32035
321.61        33.17851
322.06        33.02893
322.51         32.8627
322.97        32.67291
323.42        32.48328
323.87        32.27775
324.32        32.03512
324.78        31.75558
325.23        31.45353
325.68        31.17489
326.13        31.00092
326.59        30.93447
327.04        30.97325
327.49        31.03429
327.94        30.98922
328.39        30.80368
328.85        30.50335
329.30        30.17136
329.75        29.94096
330.20        29.85502
330.66          29.862
331.11        29.91386
331.56        29.88115
332.01        29.72979
332.46        29.50172
332.92          29.244
333.37        29.06691
333.82        28.99521
334.27        28.99352
334.72        29.03378
335.17         29.0731
335.63        29.08302
336.08        29.09383
336.53        29.08092
336.98        29.01536
337.43        28.89808
337.88        28.73683
338.34        28.57221
338.79        28.47968
339.24        28.47865
339.69         28.5526
340.14        28.66337
340.59        28.74483
341.05        28.77625
341.50        28.77947
341.95        28.76803
342.40        28.77467
342.85        28.80396
343.30        28.83224
343.75        28.85013
344.20        28.84592
344.66        28.82018
345.11        28.78658
345.56        28.72847
346.01        28.61415
346.46         28.4498
346.91        28.24636
347.36        28.07985
347.81        28.06463
348.26        28.21321
348.72        28.48733
349.17        28.77246
349.62        28.88517
350.07        28.78144
350.52        28.50898
350.97        28.18708
351.42        28.01017
351.87        28.02493
352.32        28.17338
352.77        28.33811
353.22        28.34092
353.67        28.14456
354.13        27.82178
354.58         27.4649
355.03        27.26828
355.48        27.27749
355.93        27.43409
356.38        27.61625
356.83        27.63738
357.28        27.45711
357.73        27.13765
358.18        26.79607
358.63        26.61213
359.08        26.62154
359.53        26.75731
359.98        26.91236
360.43        26.92221
360.88        26.74833
361.33        26.44812
361.78        26.09255
362.23        25.82894
362.68        25.70254
363.13        25.60196
363.58        25.47932
364.03         25.6038
364.48        25.40016
364.93        25.33181
365.38         25.2304
365.83        25.10026
366.28         24.9398
366.73        24.75364
367.18        24.56222
367.63        24.38815
368.08          24.241
368.53         24.1172
368.98        24.00887
369.43        23.89964
369.88        23.78475
370.33        23.66993
370.78        23.55533
371.23        23.44291
371.68        23.32884
372.13        23.20145
372.58        23.06609
373.03        22.93291
373.48         22.8052
373.93        22.69302
374.38        22.56578
374.83        22.37247
375.28        22.11399
375.72         21.7986
376.17        21.52871
376.62        21.42299
377.07        21.49214
377.52        21.67995
377.97        21.87779
378.42         21.9158
378.87        21.75782
379.32        21.47057
379.77        21.12265
380.22        20.81773
380.67        20.59264
381.11        20.41307
381.56        20.29428
382.01        20.26167
382.46        20.30664
382.91        20.42464
383.36        20.54019
383.81        20.53036
384.26         20.3744
384.71        20.10725
385.15        19.80757
385.60        19.63616
386.05        19.61953
386.50        19.71454
386.95        19.85404
387.40         19.9321
387.85        19.91975
388.29        19.83749
388.74        19.75018
389.19        19.70299
389.64        19.70214
390.09        19.71648
390.54        19.71418
390.98        19.64751
391.43        19.52021
391.88        19.35933
392.33        19.17947
392.78         19.0288
393.23        18.92813
393.67        18.78262
394.12        18.62753
394.57        18.73091
395.02        18.75557
395.47        18.65999
395.91        18.41026
396.36         18.3222
396.81        18.41827
397.26        18.53419
397.71         18.6062
398.15        18.61318
398.60        18.56333
399.05        18.39838
399.50        18.19823
399.95        18.19127
400.39        18.33603
400.84        18.33665
401.29        18.17927
401.74        18.02261
402.18         17.9153
402.63         17.9007
403.08        17.96176
403.53        17.96558
403.97        17.90761
404.42        17.89284
404.87        17.91968
405.32        17.95074
405.76        17.97954
406.21        17.96733
406.66         17.9354
407.11        18.00528
407.55        18.12995
408.00        18.10978
408.45        17.93905
408.90        17.67543
409.34         17.4142
409.79        17.38594
410.24        17.54065
410.68        17.56881
411.13        17.44954
411.58        17.37509
412.03        17.37489
412.47        17.40595
412.92        17.45983
413.37        17.54522
413.81        17.62415
414.26        17.65592
414.71        17.62719
415.15         17.5518
415.60        17.44722
416.05        17.35599
416.49         17.2978
416.94        17.26078
417.39         17.2417
417.83         17.2353
418.28        17.23112
418.73        17.22422
419.17        17.21709
419.62        17.21436
420.07        17.22149
420.51        17.24471
420.96        17.25434
421.41        17.22644
421.85        17.15669
422.30        16.97727
422.74        16.78089
423.19        16.91619
423.64        17.31517
424.08        17.50823
424.53        17.40399
424.98        17.35351
425.42        17.36633
425.87         17.1179
426.31        16.72671
426.76        16.73651
427.21        17.07061
427.65        17.10367
428.10        16.85769
428.54        16.79772
428.99        16.92547
429.44        17.14351
429.88        17.32137
430.33        17.04868
430.77        16.51022
431.22        16.43832
431.66        16.81279
432.11        17.07812
432.56         17.1394
433.00        17.15484
433.45        16.98256
433.89        16.55254
434.34        16.20579
434.78        15.39406
435.23        16.07161
435.67        16.67301
436.12         16.9683
436.57        17.13742
437.01        17.03305
437.46        16.95384
437.90        16.98991
438.35        17.05027
438.79        16.63322
439.24         16.4786
439.68        16.46445
440.13        16.52347
440.57        16.60309
441.02        16.76681
441.46        16.94657
441.91        16.77708
442.35        16.40797
442.80        16.57745
443.24        17.14018
443.69        17.11935
444.13        16.55994
444.58        16.31956
445.02        16.41001
445.47        16.39709
445.91        16.26234
446.36        16.20184
446.80        16.21321
447.24        16.23451
447.69        16.27656
448.13        16.39791
448.58        16.56963
449.02        16.69096
449.47        16.74719
449.91        16.79434
450.36        16.83188
450.80        16.81043
451.25        16.74895
451.69        16.70525
452.13        16.68492
452.58        16.65905
453.02        16.62343
453.47        16.57951
453.91        16.52591
454.36        16.49501
454.80        16.46348
455.24        16.37335
455.69        16.26303
456.13        16.16297
456.58         16.1174
457.02        16.25306
457.46        16.47565
457.91        16.48271
458.35        16.34966
458.79        16.29799
459.24        16.35459
459.68         16.3683
460.13        16.34837
460.57        16.28403
461.01        16.25302
461.46        16.27043
461.90         16.2548
462.34        16.25632
462.79        16.52269
463.23        16.60394
463.68        16.58081
464.12        16.54667
464.56        16.52273
465.01          16.553
465.45        16.56814
465.89        16.45888
466.34        16.28398
466.78        16.13102
467.22        16.01132
467.67        16.27928
468.11        16.21031
468.55        16.21184
468.99        16.09599
469.44        16.06948
469.88        16.13365
470.32        16.16011
470.77        16.15878
471.21         16.1981
471.65        16.28058
472.10        16.38734
472.54        16.47404
472.98        16.49815
473.42        16.45852
473.87        16.32729
474.31        16.16767
474.75        16.22679
475.20        16.46144
475.64        16.53798
476.08        16.43843
476.52         16.4523
476.97        16.59141
477.41        16.53384
477.85        16.44451
478.29        16.55678
478.74        16.45727
479.18        16.33278
479.62        16.59688
480.06         16.6405
480.50        16.63668
480.95        16.58518
481.39        16.48149
481.83        16.67582
482.27        16.66845
482.72        16.58425
483.16        16.79226
483.60        16.82698
484.04        16.80684
484.48        16.85527
484.93         17.0975
485.37        16.97071
485.81        17.13528
486.25        17.71978
486.69        16.87711
487.14        16.62158
487.58        17.76254
488.02        17.54325
488.46        17.47076
488.90        17.77769
489.34        17.11871
489.79        16.92672
490.23        17.37987
490.67        17.72308
491.11        18.00701
491.55         17.9556
491.99        17.67672
492.43         17.6513
492.88        17.90925
493.32        18.12065
493.76        18.22937
494.20         18.3583
494.64        18.50808
495.08        18.58372
495.52        18.61145
495.96        18.78885
496.41        19.10055
496.85        19.06708
497.29        18.79274
497.73         18.8812
498.17        19.27208
498.61        19.48558
499.05        19.45203
499.49         19.4009
499.93        19.39559
500.37        19.45046
500.82        19.56002
501.26         19.7198
501.70        19.93357
502.14        19.79456
502.58        20.01606
503.02        20.08345
503.46         20.1235
503.90        20.15746
504.34        20.17104
504.78        20.20716
505.22        20.25971
505.66        20.28569
506.10        20.29736
506.54        20.36835
506.98        20.50536
507.42        20.58637
507.86        20.74957
508.30        20.82949
508.74        20.86547
509.18        20.86364
509.62         20.8448
510.06        20.84069
510.50        20.86065
510.94        20.89663
511.38        20.94264
511.82        20.98941
512.26        21.03135
512.70        21.07253
513.14        21.11036
513.58        21.12988
514.02        21.13072
514.46        21.13493
514.90         21.1497
515.34        21.11331
515.78        21.15049
516.22        21.15612
516.66        21.18058
517.10        21.24297
517.54         21.3406
517.98         21.4626
518.42         21.5624
518.86        21.56917
519.30        21.47213
519.74        21.29768
520.18        21.10506
520.62        20.98586
521.06        20.96642
521.50        21.02561
521.93        21.12515
522.37        21.19171
522.81        21.20527
523.25        21.17961
523.69        21.14535
524.13        21.15101
524.57        21.20213
525.01        21.27725
525.45        21.32857
525.89        21.28414
526.32        21.13266
526.76        20.91459
527.20        20.68819
527.64        20.54723
528.08        20.51512
528.52         20.5575
528.96        20.64048
529.40         20.7098
529.83        20.74138
530.27        20.75235
530.71        20.72865
531.15        20.64858
531.59        20.51724
532.03        20.34302
532.46         20.1661
532.90        20.06624
533.34        20.05778
533.78        20.12092
534.22        20.21846
534.66        20.29008
535.09        20.31583
535.53         20.3147
535.97        20.29897
536.41         20.2924
536.85        20.30174
537.28        20.31689
537.72        20.33107
538.16        20.33295
538.60        20.32348
539.04        20.31751
539.47        20.31666
539.91        20.33313
540.35        20.36473
540.79        20.41027
541.22        20.47183
541.66        20.55363
542.10        20.65212
542.54        20.76592
542.97        20.87524
543.41        20.96216
543.85        21.02127
544.29         21.0604
544.72        21.09874
545.16        21.18325
545.60        21.31539
546.04        21.48033
546.47        21.65594
546.91        21.80193
547.35        21.90471
547.79        21.98587
548.22        22.05077
548.66        22.10228
549.10        22.16175
549.53        22.30743
549.97        22.51819
550.41        22.68352
550.84        22.79037
551.28         22.8979
551.72         23.0192
552.15        23.14636
552.59        23.28694
553.03        23.43298
553.46        23.56663
553.90        23.68095
554.34        23.76999
554.77        23.84539
555.21        23.91468
555.65        23.99178
556.08        24.05667
556.52        24.15931
556.96         24.2752
557.39        24.40322
557.83        24.51982
558.27        24.52672
558.70        24.45904
559.14        24.46325
559.57        24.54885
560.01         24.6751
560.45        24.80126
560.88        24.85312
561.32        24.87088
561.75        24.92987
562.19        25.04416
562.63        25.22132
563.06        25.39868
563.50         25.3816
563.93         25.2081
564.37        25.16456
564.80        25.26139
565.24        25.35925
565.68        25.44206
566.11        25.53829
566.55        25.64778
566.98        25.77984
567.42        25.92691
567.85        26.00416
568.29        26.05698
568.72        26.15952
569.16        26.30335
569.60        26.49418
570.03         26.7533
570.47        26.74287
570.90        26.76431
571.34        27.35117
571.77        27.30916
572.21        27.30085
572.64        27.51183
573.08        27.64154
573.51        27.80337
573.95        27.99769
574.38        28.05929
574.82        28.48606
575.25         28.1677
575.69        27.99672
576.12        27.92778
576.56        28.28797
576.99        28.54239
577.42          28.478
577.86        28.38953
578.29        28.52832
578.73        28.35046
579.16        28.29592
579.60        28.11529
580.03        28.00674
580.47         28.0062
580.90        27.84496
581.33        27.94609
581.77        28.06318
582.20        27.79696
582.64        27.55389
583.07        27.50758
583.51        27.37609
583.94        27.33784
584.37        27.30358
584.81        27.25889
585.24        27.17613
585.68          27.097
586.11        26.87297
586.54        26.62589
586.98        26.66886
587.41        26.93147
587.85        26.76039
588.28        26.29137
588.71        26.43938
589.15        26.53782
589.58        26.34181
590.01        26.67039
590.45        26.65169
590.88        26.00587
591.31        25.95865
591.75         26.3141
592.18        26.52141
592.61        26.51659
593.05        26.62537
593.48        26.77896
593.91        26.35257
594.35        26.51826
594.78         26.7857
595.21        26.98649
595.65        27.01039
596.08        26.76369
596.51        27.19091
596.94        27.32592
597.38        27.68703
597.81        28.02334
598.24        27.93888
598.68        28.13125
599.11        28.83741
599.54        28.68117
599.97        28.77332
600.41         29.5012
600.84        29.82639
601.27         29.9754
601.70         30.2531
602.14        30.40481
602.57        30.93421
603.00        31.36914
603.43        31.76917
603.87        32.22828
604.30        32.41977
604.73        32.80573
605.16        33.60952
605.60        33.97535
606.03        34.36052
606.46        34.51461
606.89        34.95748
607.32        35.54522
607.76        36.23534
608.19        36.31927
608.62        36.58871
609.05        36.91569
609.48        37.33778
609.92        37.80283
610.35        38.12258
610.78        38.36653
611.21        38.45687
611.64        39.07135
612.07         39.3589
612.50        39.50304
612.94        39.76439
613.37         40.1965
613.80        40.26652
614.23        40.68284
614.66        40.96033
615.09        41.29346
615.52        41.62337
615.96        41.96211
616.39        42.03213
616.82        42.60291
617.25        42.60594
617.68        43.04948
618.11        43.22683
618.54         43.4229
618.97        43.75023
619.40        44.13293
619.84        44.53118
620.27        44.67406
620.70        44.67392
621.13        44.47157
621.56        45.04216
621.99        45.25615
622.42        45.15602
622.85        44.90232
623.28        45.06347
623.71        45.38393
624.14        45.02102
624.57        45.41662
625.00         45.4852
625.43        45.25189
625.86        45.14613
626.29        45.07706
626.72         44.9161
627.15        44.76044
627.58        44.64251
628.01        44.59945
628.44        44.18066
628.87        44.06442
629.30        43.62129
629.73         43.2832
630.16        42.69039
630.59        42.46544
631.02        42.21792
631.45        42.03777
631.88        41.79968
632.31        41.48758
632.74        40.94725
633.17        40.60586
633.60        40.15821
634.03        39.73515
634.46        39.31874
634.89        38.90058
635.32        38.45421
635.75         37.9754
636.18        37.50582
636.61        37.04963
637.04        36.56518
637.47        36.07785
637.89        35.68561
638.32        35.37138
638.75        35.05422
639.18        34.73133
639.61         34.4579
640.04        34.21062
640.47        33.93244
640.90        33.61946
641.33        33.27576
641.76         32.9377
642.18        32.74773
642.61        32.59259
643.04         32.5532
643.47        32.55939
643.90        32.55905
644.33        32.53415
644.76        32.50402
645.18        32.48261
645.61        32.48606
646.04        32.52405
646.47        32.58806
646.90        32.69148
647.33        32.85333
647.75        33.08019
648.18        33.38323
648.61        33.72901
649.04        34.06475
649.47        34.38984
649.89        34.68447
650.32        34.99714
650.75        35.52058
651.18         36.1984
651.61        36.71225
652.03        37.03123
652.46        37.39347
652.89        37.89859
653.32        38.33583
653.74        38.89649
654.17        39.79458
654.60        40.07654
655.03        40.53467
655.46        40.98263
655.88        42.19217
656.31        43.47869
656.74        44.55101
657.16        44.40589
657.59        44.27268
658.02         44.2923
658.45        45.03611
658.87        45.47023
659.30        45.81662
659.73        46.35854
660.15        46.45277
660.58        46.84693
661.01        47.41017
661.44        48.22353
661.86        48.71586
662.29        48.87271
662.72        49.03196
663.14        49.26801
663.57        49.55893
664.00        49.89236
664.42        50.14096
664.85        50.31658
665.27        50.55846
665.70        50.85969
666.13        51.12023
666.55        51.33703
666.98        51.54667
667.41        51.76822
667.83        52.01757
668.26        52.28745
668.69        52.57297
669.11         52.8502
669.54        53.07433
669.96        53.24123
670.39        53.36387
670.82        53.47118
671.24        53.58729
671.67        53.72835
672.09        53.92328
672.52        54.16009
672.94        54.30924
673.37        54.40248
673.80        54.60538
674.22        54.90616
674.65        55.10623
675.07        55.20475
675.50        55.28634
675.92        55.38227
676.35        55.49423
676.77        55.63694
677.20        55.80948
677.62        55.99523
678.05        56.15187
678.47          56.269
678.90        56.36519
679.32        56.46014
679.75        56.59456
680.17        56.77491
680.60        57.00011
681.02        57.22376
681.45        57.36054
681.87        57.42156
682.30        57.38898
682.72        57.33732
683.15        57.53355
683.57         57.9187
684.00         58.0057
684.42        57.84914
684.85        57.94505
685.27        58.29977
685.70        58.62822
686.12        58.84247
686.54        59.00525
686.97        59.09861
687.39        59.03128
687.82        58.82836
688.24        58.98269
688.66        58.88953
689.09        59.02967
689.51         59.2086
689.94        59.38602
690.36        59.54168
690.78        59.72735
691.21        59.94822
691.63        60.08056
692.06        60.10026
692.48         60.4016
692.90        60.32917
693.33        60.46378
693.75        60.61778
694.17         60.8462
694.60        61.08563
695.02        61.21001
695.44        61.25323
695.87        61.32367
696.29        61.45594
696.71        61.81828
697.14         62.3054
697.56        62.36287
697.98        62.00876
698.41        62.32372
698.83        62.36755
699.25        62.61061
699.68        62.73605
700.10        62.90919
700.52        63.10798
700.94        63.30436
701.37        63.47131
701.79        63.57459
702.21        63.59245
702.64        63.55206
703.06        63.49092
703.48        63.48466
703.90        63.56043
704.33        63.70145
704.75        63.87555
705.17         64.0036
705.59        64.06618
706.01        64.06326
706.44        64.05688
706.86        64.24599
707.28        64.45974
707.70        64.84544
708.12        65.25675
708.55        65.42165
708.97        65.36375
709.39        65.42173
709.81        65.60816
710.23        65.67793
710.66        65.63249
711.08        65.64917
711.50         65.7157
711.92        65.75224
712.34        65.76166
712.76        65.77502
713.19         65.8034
713.61        65.90385
714.03        66.06198
714.45        66.25456
714.87        66.45681
715.29        66.63625
715.71        66.78114
716.13        66.90002
716.56        66.97296
716.98        67.04075
717.40        67.08974
717.82        67.12058
718.24        67.15846
718.66        67.24467
719.08        67.38618
719.50        67.56946
719.92        67.76765
720.34        67.93417
720.76        68.05415
721.19        68.13184
721.61        68.18852
722.03        68.23042
722.45        68.26354
722.87        68.28181
723.29        68.30219
723.71        68.34629
724.13        68.41178
724.55        68.53346
724.97        68.69275
725.39        68.74843
725.81        68.66917
726.23        68.89511
726.65        68.73672
727.07          68.867
727.49        69.07817
727.91        69.35779
728.33        69.63017
728.75        69.78547
729.17        69.79926
729.59        69.69869
730.01        69.54522
730.43        69.43928
730.85        69.41374
731.27        69.44151
731.69        69.50359
732.10        69.57439
732.52        69.63262
732.94         69.7221
733.36        69.84785
733.78        69.95053
734.20        70.02289
734.62        70.35421
735.04        70.21935
735.46        70.56161
735.88        71.01119
736.30        70.78093
736.72        70.07143
737.13         69.9559
737.55        70.43015
737.97        70.96021
738.39         71.3205
738.81        71.06092
739.23        70.36862
739.65        70.43159
740.06        71.13123
740.48        71.34139
740.90        70.99695
741.32        70.83846
741.74        70.86148
742.16        70.92756
742.57        71.01208
742.99        71.32163
743.41        71.71183
743.83        71.57971
744.25         71.0582
744.67        70.99211
745.08        71.41434
745.50        71.62707
745.92        71.61771
746.34        71.80812
746.75        72.12719
747.17        72.23457
747.59        72.10536
748.01        71.85596
748.42        71.58057
748.84        71.42037
749.26        71.43552
749.68         71.5668
750.09        71.76382
750.51        72.03338
750.93        72.28748
751.35        72.36104
751.76        72.28795
752.18        72.26861
752.60        72.32586
753.01         72.3414
753.43         72.3082
753.85         72.3139
754.27        72.37189
754.68         72.4759
755.10        72.60209
755.52        72.70716
755.93        72.77573
756.35         72.8063
756.77        72.83833
757.18        72.95648
757.60         73.1748
758.02        73.43837
758.43        73.60887
758.85        73.76861
759.26        73.28086
759.68        73.11054
760.10         73.2001
760.51        72.73085
760.93        73.17339
761.34        72.97148
761.76        73.38565
762.18        73.49131
762.59        73.58059
763.01        73.69765
763.42        73.88139
763.84        73.96239
764.26        73.96873
764.67        74.02255
765.09        74.15623
765.50        74.22137
765.92        74.23808
766.33        74.29337
766.75        74.33283
767.16        74.26592
767.58         74.0993
768.00        74.20187
768.41        74.54278
768.83         74.6139
769.24        74.42733
769.66        74.42155
770.07        74.56058
770.49        74.55073
770.90        74.42669
771.32        74.44643
771.73        74.60961
772.15        74.68237
772.56        74.66399
772.97        74.72279
773.39        74.83712
773.80        74.83364
774.22        74.76187
774.63         75.0519
775.05        75.56892
775.46        75.80711
775.88        75.67941
776.29        75.49212
776.70        75.33966
777.12        75.28402
777.53        75.38195
777.95        75.57484
778.36        75.81016
778.77         75.9819
779.19        76.06976
779.60        76.13348
780.02        76.14275
780.43        76.15226
780.84        76.17416
781.26        75.95264
781.67        75.69649
782.09        76.17437
782.50        76.97065
782.91        77.50218
783.33        75.98123
783.74        75.71718
784.15         76.2295
784.57        76.57225
784.98        76.64017
785.39        76.68028
785.81        76.70535
786.22        76.80058
786.63        76.94876
787.04        76.94231
787.46        76.84016
787.87        76.91391
788.28        77.14886
788.70        77.28815
789.11        77.29753
789.52        77.32906
789.93        77.37901
790.35        77.36973
790.76         77.3189
791.17        77.21153
791.58        77.09277
792.00        77.02872
792.41        77.05574
792.82         77.1887
793.23        77.39573
793.65        77.48596
794.06        77.50333
794.47        77.76314
794.88        78.19687
795.29        78.26098
795.71        78.31802
796.12        78.23995
796.53        78.16721
796.94          78.112
797.35        78.07944
797.76        78.00317
798.18        77.91763
798.59         77.9102
799.00        77.99348
799.41        78.12746
799.82        78.26113
800.23         78.3354
800.64        78.32905
801.06        78.22742
801.47        78.12849
801.88        78.11289
802.29        78.20634
802.70         78.3881
803.11        78.58366
803.52        78.66737
803.93        78.61104
804.34        78.44749
804.75        78.28077
805.17        78.27769
805.58         78.5068
805.99        78.86975
806.40        79.24073
806.81        79.45465
807.22         79.4277
807.63        79.12562
808.04        78.69771
808.45        78.50214
808.86        78.61915
809.27        78.90213
809.68        79.23141
810.09        79.43083
810.50        79.44064
810.91        79.32581
811.32        79.16226
811.73        79.08978
812.14        79.14997
812.55        79.23338
812.96        79.32748
813.37        79.53516
813.78        79.77877
814.19        79.81081
814.60        79.62738
815.01        79.44748
815.42        79.29181
815.83        79.01713
816.24        78.72497
816.65        78.68869
817.05        78.96402
817.46        79.43009
817.87        79.95709
818.28        80.29374
818.69        80.37595
819.10        80.26603
819.51        80.06454
819.92        79.95834
820.33        80.00986
820.74        80.15485
821.14        80.31503
821.55        80.40912
821.96        80.39189
822.37         80.3057
822.78        80.18774
823.19        80.09384
823.60        80.05058
824.00        80.06363
824.41         80.0708
824.82        80.07048
825.23        80.05687
825.64        80.04241
826.04        80.06913
826.45        80.15727
826.86        80.31878
827.27        80.53278
827.68         80.7518
828.08        80.93353
828.49        80.98738
828.90        80.96614
829.31        80.90348
829.72         80.8602
830.12        80.88456
830.53         80.9163
830.94        80.95994
831.35        80.98312
831.75        81.00184
832.16        80.97454
832.57        80.95147
832.97        80.97436
833.38        81.03886
833.79        81.13615
834.20        81.22023
834.60        81.22019
835.01        81.13719
835.42        80.97863
835.82        80.82105
836.23        80.71284
836.64        80.70079
837.04        80.78515
837.45        80.85687
837.86        80.83667
838.26        80.72239
838.67        80.54652
839.08        80.38111
839.48        80.32079
839.89        80.39383
840.29        80.55621
840.70        80.80986
841.11        81.16714
841.51        81.61733
841.92        82.10077
842.33        82.51688
842.73        82.69584
843.14        82.55113
843.54        82.16968
843.95        81.68082
844.35          81.325
844.76        81.17161
845.17        81.17956
845.57        81.29828
845.98        81.38759
846.38        81.42795
846.79        81.42758
847.19         81.4397
847.60        81.48193
848.00        81.58639
848.41        81.70462
848.81        81.80935
849.22        81.78812
849.62        81.66331
850.03        81.43296
850.43        81.22685
850.84        81.16354
851.24        81.32066
851.65        81.59492
852.05        81.92938
852.46        82.06953
852.86         81.9524
853.27        81.70152
853.67        81.33692
854.07        81.05637
854.48        80.84809
854.88        80.70515
855.29        80.54633
855.69        80.45856
856.10        80.35345
856.50        80.31818
856.90        80.30141
857.31        80.24883
857.71        80.19868
858.12        80.10062
858.52         80.0261
858.92         79.9687
859.33        79.91184
859.73        79.89114
860.13        79.86866
860.54        79.80855
860.94        79.73933
861.34        79.62992
861.75          79.471
862.15        79.30709
862.55         79.1244
862.96        78.94598
863.36        78.74115
863.76        78.44455
864.17        78.05253
864.57        77.59602
864.97        77.21651
865.38        77.11271
865.78         77.3642
866.18         77.9026
866.58        78.47525
866.99        78.64226
867.39         78.3325
867.79        77.64694
868.19        76.91343
868.60        76.58735
869.00        76.76031
869.40        77.32948
869.80        78.04257
870.21        78.43387
870.61        78.42079
871.01        78.08096
871.41        77.63013
871.81        77.36811
872.22        77.33875
872.62        77.48555
873.02        77.67852
873.42        77.68461
873.82         77.4528
874.22        77.09845
874.63        76.80116
875.03        76.76735
875.43         77.0415
875.83        77.52721
876.23        78.09606
876.63        78.53915
877.03        78.77415
877.44        78.84686
877.84        78.79173
878.24        78.63799
878.64        78.42258
879.04        78.14089
879.44         77.8682
879.84        77.71239
880.24        77.68633
880.64          77.771
881.04        77.89208
881.44        77.91031
881.84        77.78059
882.24        77.52843
882.65        77.19779
883.05        76.97456
883.45        76.87207
883.85        76.87845
884.25        76.91773
884.65        76.87252
885.05         76.7243
885.45         76.4966
885.85        76.33433
886.25        76.47787
886.65        76.95757
887.05        77.68237
887.45        78.38245
887.85         78.6595
888.25        78.42902
888.65        77.78888
889.04        77.02084
889.44        76.64146
889.84         76.7637
890.24        77.24937
890.64        77.79021
891.04        77.89024
891.44        77.45629
891.84        76.68439
892.24        75.88512
892.64        75.53365
893.04        75.74483
893.44        76.34253
893.83        77.13162
894.23        77.74135
894.63        78.06603
895.03        78.19621
895.43        78.18091
895.83        78.09599
896.23        77.99648
896.63        77.87237
897.02        77.73708
897.42        77.66765
897.82        77.66913
898.22        77.73717
898.62        77.90996
899.01        78.24792
899.41        78.70425
899.81        79.24184
900.21        79.71794
900.61        79.90624
901.00        79.75087
901.40        79.34972
901.80        78.82402
902.20        78.38195
902.59        78.12036
902.99         77.9875
903.39        78.01417
903.79        78.22054
904.18        78.57146
904.58        79.05399
904.98        79.56095
905.38        79.94807
905.77        80.15972
906.17        80.20463
906.57        80.12183
906.96        80.01928
907.36        79.90775
907.76        79.80949
908.15        79.66515
908.55        79.29693
908.95        78.73598
909.34        78.02996
909.74        77.45882
910.14        77.37939
910.53        77.85117
910.93        78.74611
911.33        79.71516
911.72        80.16023
912.12        79.92907
912.52        79.23801
912.91        78.43108
913.31        78.04327
913.70        78.18192
914.10        78.67017
914.49        79.33456
914.89        79.78562
915.29        79.90218
915.68        79.79711
916.08        79.57278
916.47        79.37926
916.87         79.2906
917.26        79.23234
917.66         79.1889
918.05        79.11293
918.45        78.98627
918.84         78.8644
919.24        78.76086
919.64        78.76689
920.03        78.91747
920.42        79.18408
920.82        79.48705
921.21        79.69766
921.61         79.7655
922.00        79.71101
922.40        79.65243
922.79        79.88844
923.19        80.40997
923.58        81.14735
923.98        81.75884
924.37         81.7869
924.77        81.14875
925.16        79.98864
925.55        78.70189
925.95         77.9726
926.34        78.00986
926.74        78.61111
927.13        79.46699
927.52        79.96439
927.92         79.9677
928.31        79.65868
928.70        79.28294
929.10        79.20436
929.49        79.50949
929.89        79.99871
930.28        80.58735
930.67        81.01395
931.07         81.1638
931.46        81.16785
931.85        80.98362
932.24        80.57576
932.64        79.98787
933.03         79.2348
933.42        78.54364
933.82        78.27694
934.21        78.51177
934.60        79.17184
934.99        79.96323
935.39        80.35107
935.78        80.22526
936.17        79.69421
936.56        79.05725
936.96        78.83328
937.35        79.19698
937.74        79.92962
938.13        80.70689
938.53         81.0704
938.92        80.92329
939.31        80.40461
939.70        79.76392
940.09        79.43135
940.49        79.50769
940.88        79.87993
941.27        80.31052
941.66        80.44747
942.05        80.22173
942.44        79.79138
942.84        79.33605
943.23        79.08067
943.62        79.13408
944.01        79.40115
944.40        79.85094
944.79        80.42764
945.18        81.04067
945.57         81.6519
945.97        82.09892
946.36        82.22516
946.75        81.96898
947.14        81.36472
947.53        80.52881
947.92        79.69153
948.31        78.98497
948.70        78.43797
949.09        78.02583
949.48        77.67069
949.87        77.36584
950.26        77.13999
950.65        77.11951
951.04        77.49223
951.43         78.2511
951.82        79.29236
952.21        80.30923
952.60        80.79192
952.99        80.59965
953.38         79.8758
953.77        78.92974
954.16        78.24897
954.55        77.97359
954.94        77.98411
955.33        78.12646
955.72        78.13347
956.11        77.92431
956.50        77.60172
956.89        77.27753
957.28        77.11827
957.66        77.20486
958.05        77.45015
958.44        77.75169
958.83        77.95863
959.22        78.01243
959.61        77.91299
960.00        77.78332
960.39        77.81818
960.78        78.04592
961.16        78.45814
961.55         78.7359
961.94         78.4646
962.33        77.59277
962.72        76.31332
963.11        75.08324
963.49        74.55471
963.88        74.86667
964.27        75.85137
964.66        77.11922
965.04        77.97392
965.43        78.08758
965.82        77.67921
966.21        77.11372
966.60        76.96951
966.98        77.40098
967.37        78.20046
967.76        79.04034
968.15        79.30296
968.53        78.82874
968.92        77.83552
969.31        76.76054
969.69        76.22129
970.08        76.36504
970.47        77.03035
970.86        77.94787
971.24        78.66322
971.63        78.95324
972.02        78.96788
972.40        78.92536
972.79        78.99953
973.17        79.30505
973.56        79.68184
973.95        80.00282
974.33        80.02362
974.72        79.66914
975.11        79.04019
975.49        78.29691
975.88        77.71864
976.26        77.43378
976.65        77.38052
977.04        77.48162
977.42        77.57857
977.81        77.55163
978.19        77.40523
978.58        77.35825
978.96        77.72971
979.35        78.51591
979.74        79.63613
980.12        80.66615
980.51        80.71726
980.89        79.74669
981.28        77.89513
981.66        75.89401
982.05        75.09904
982.43        75.86858
982.82         77.7419
983.20        79.93639
983.59        81.06255
983.97        80.87209
984.35        79.73344
984.74        78.14311
985.12        76.99873
985.51        76.63614
985.89        76.78394
986.28        77.26868
986.66        77.93844
987.04        78.64664
987.43        79.40933
987.81        80.13038
988.20        80.48973
988.58        80.45534
988.96        80.09839
989.35        79.38866
989.73        78.40049
990.12        77.14059
990.50          75.538
990.88        74.03606
991.27         73.6297
991.65        74.58168
992.03        76.56057
992.42        78.48846
992.80        79.28497
993.18        78.66786
993.56        76.80762
993.95        74.33076
994.33        72.88868
994.71        73.29638
995.10        74.83365
995.48        76.55497
995.86        77.39491
996.24        77.23658
996.63        76.33917
997.01          75.194
997.39        74.72392
997.77        75.29352
998.15        76.54677
998.54        77.79781
998.92        78.15341
999.30        77.45068
999.68        76.00475
1000.06        74.38181
1000.45        73.58245
1000.83        73.98588
1001.21        75.13454
1001.59        76.55525
1001.97        77.58197
1002.35        78.01363
1002.73        78.11472
1003.12         77.7524
1003.50        76.62154
1003.88        74.91908
1004.26        72.81083
1004.64        71.05642
1005.02        70.57525
1005.40        71.41392
1005.78        73.38129
1006.16        75.64416
1006.54        76.64079
1006.92        75.91999
1007.30        73.88062
1007.69         71.5694
1008.07        70.67425
1008.45        71.67953
1008.83        73.96709
1009.21        76.50522
1009.59        77.84519
1009.97           77.59
1010.35        76.05382
1010.73        73.79161
1011.11        72.26173
1011.49        72.24732
1011.86        73.42329
1012.24        74.93582
1012.62        75.85152
1013.00         75.9783
1013.38        75.72001
1013.76        75.44525
1014.14        75.71027
1014.52        76.69661
1014.90        78.14164
1015.28        79.87328
1015.66        81.55848
1016.04        82.88239
1016.41        83.90676
1016.79        84.24258
1017.17        83.72941
1017.55        82.44308
1017.93        80.58334
1018.31        78.51566
1018.69        76.75968
1019.06         75.5744
1019.44        74.92276
1019.82        74.95004
1020.20        75.83601
1020.58        77.38251
1020.95        79.16971
1021.33        80.86349
1021.71         82.0705
1022.09        82.70495
1022.46        82.88733
1022.84        82.31239
1023.22        80.32984
1023.60        76.77681
1023.97        71.36526
1024.35        65.50308
1024.73        62.24238
