SpectraSmart Spectrum 2.9.0.0
--------- Device Information -----------
Spectrum Name :  反射率_0
Saving Time :  2024/04/27 23:04:45
Spectro-Module Model Name : SE2030-DUVN
Spectro-Module Serial Number : OS361AC55029948
Wavelength Start : 200
Wavelength End : 1025
Wavelength Unit : Wavelength(nm)
Spectrum Unit : Reflectance(%)
-----------Spectrum Setting ------------
Integration Time : 20ms
Average : 10
Boxcar : 0
Background removal :  enabled
linearity correction :  enabled
SC :  disabled
Intensity correction :  disabled
DWT denoise :  enabled
savitzky-golay :  disabled
FFT :  disabled
Running average :  disabled
Kalman :  disabled
High pass :  disabled
---------------BEGIN--------------------
Wavelength(nm)             Reflectance(%)
200.29               0
200.75       -24.02844
201.21        3.995722
201.67        26.18497
202.13        34.79245
202.58        34.86128
203.04        30.34545
203.50        27.94488
203.96        35.91413
204.42        52.01999
204.88        70.54243
205.34        85.50665
205.80        92.18234
206.26        90.47436
206.72        80.03243
207.18        59.65263
207.64        42.13887
208.10        41.60325
208.55        51.52667
209.01          59.114
209.47        59.03663
209.93        49.81144
210.39        22.32736
210.85       -62.87315
211.31       -166.7382
211.77       -42.85872
212.23        38.12588
212.69        66.22087
213.14        74.12327
213.60        72.15588
214.06        62.40012
214.52        43.46308
214.98        29.24053
215.44         35.0395
215.90        48.15861
216.36        58.56134
216.81        63.08152
217.27        63.25658
217.73        61.49293
218.19        58.64602
218.65        55.64285
219.11        53.12492
219.57        50.77803
220.02        48.95949
220.48        49.81326
220.94        53.17157
221.40        57.81936
221.86        62.81815
222.32        67.47362
222.77        71.39662
223.23        74.42741
223.69        76.12754
224.15        75.94803
224.61        74.06766
225.06        70.76827
225.52        66.98006
225.98        64.38254
226.44        63.65015
226.90        63.97892
227.36        64.79676
227.81        65.63759
228.27        66.46345
228.73        67.36848
229.19        67.98431
229.65        67.54571
230.10        65.84258
230.56        63.44427
231.02        60.96388
231.48        59.34686
231.93        58.71165
232.39        58.89419
232.85        59.58041
233.31        60.40379
233.77        61.19667
234.22          62.063
234.68        62.83739
235.14        63.37957
235.60        63.67757
236.05        63.67475
236.51        63.55459
236.97        63.71631
237.43        64.26727
237.88        65.26865
238.34         66.0414
238.80        66.18391
239.26        65.52087
239.71        63.81791
240.17        61.04959
240.63        59.59417
241.08        61.56929
241.54         65.0409
242.00        67.74106
242.46        68.65587
242.91        67.88564
243.37        64.61308
243.83         56.7156
244.28        44.57489
244.74        39.13076
245.20        44.40338
245.66        49.99519
246.11        48.69696
246.57        39.98854
247.03        23.12275
247.48       -1.466629
247.94       -14.63121
248.40       0.7984695
248.85        31.48861
249.31        60.44614
249.77        75.31765
250.22        78.07367
250.68          75.096
251.14        70.47556
251.59        67.22512
252.05        65.64697
252.51        64.07899
252.96        62.32846
253.42        62.07063
253.88        63.32069
254.33         65.7766
254.79        67.34698
255.25        65.90799
255.70        62.31691
256.16        58.36807
256.62        55.83559
257.07        56.66113
257.53        60.11741
257.99        64.04805
258.44         66.9184
258.90        67.89937
259.35         66.9654
259.81        65.35392
260.27        63.34879
260.72        61.29949
261.18        59.75706
261.63        58.34659
262.09        57.39674
262.55        56.88713
263.00        56.65122
263.46        56.74905
263.91        56.88237
264.37        56.99859
264.83        56.95498
265.28        56.73905
265.74        56.42337
266.19        55.87016
266.65        55.17793
267.11        54.33248
267.56        53.40212
268.02        52.61194
268.47        51.96638
268.93        51.44088
269.38        50.97212
269.84        50.48573
270.30        49.93909
270.75        49.34823
271.21        48.69493
271.66        47.89722
272.12        46.98146
272.57        45.93452
273.03        44.88039
273.48        43.91994
273.94         43.1487
274.39        42.50417
274.85        41.97077
275.31        41.41695
275.76        40.79453
276.22        40.17492
276.67        39.57252
277.13        39.12999
277.58        38.79033
278.04        38.55123
278.49        38.25129
278.95        37.79912
279.40        37.12225
279.86        36.34112
280.31        35.51851
280.77        34.88265
281.22        34.42804
281.68        34.15226
282.13         33.9215
282.59        33.61834
283.04        33.18858
283.50        32.68783
283.95        32.19971
284.41        31.90366
284.86        31.79656
285.32        31.83538
285.77        31.84543
286.22        31.62557
286.68         31.1674
287.13        30.51648
287.59        29.86582
288.04        29.42258
288.50        29.26524
288.95        29.28671
289.41        29.37871
289.86        29.32489
290.32        29.10252
290.77        28.77481
291.22        28.44329
291.68        28.24838
292.13        28.21265
292.59        28.29709
293.04        28.44443
293.50        28.60024
293.95        28.73195
294.40        28.87251
294.86        29.03367
295.31         29.2192
295.77        29.44279
296.22        29.68488
296.68        29.96186
297.13        30.27923
297.58        30.63826
298.04        31.02996
298.49        31.42574
298.95        31.79903
299.40        32.13524
299.85        32.43734
300.31        32.73722
300.76        33.04802
301.21        33.38043
301.67        33.73223
302.12        34.04447
302.58        34.27228
303.03         34.3939
303.48        34.43744
303.94        34.48874
304.39        34.62872
304.84         34.8833
305.30         35.2231
305.75        35.53774
306.20        35.69939
306.66        35.69707
307.11        35.55079
307.57        35.37188
308.02        35.26851
308.47        35.28297
308.93         35.3706
309.38        35.44818
309.83        35.41638
310.29        35.26096
310.74        35.00904
311.19        34.71218
311.65        34.44598
312.10        34.22072
312.55        34.02214
313.00        33.84753
313.46        33.69258
313.91        33.54798
314.36        33.42581
314.82        33.29806
315.27        33.11351
315.72        32.86624
316.18        32.57065
316.63        32.27413
317.08        32.07574
317.53        31.99103
317.99        31.98718
318.44        31.99019
318.89        31.86489
319.35        31.58366
319.80        31.19104
320.25        30.77427
320.70         30.4798
321.16        30.33542
321.61        30.29837
322.06        30.29111
322.51         30.1896
322.97        29.95746
323.42        29.65517
323.87        29.31531
324.32        28.99854
324.78        28.72956
325.23        28.48607
325.68        28.29598
326.13         28.2133
326.59        28.22366
327.04        28.33452
327.49         28.4354
327.94        28.35027
328.39        28.03905
328.85        27.53693
329.30        26.98245
329.75        26.61489
330.20        26.50928
330.66        26.59555
331.11        26.76061
331.56        26.76467
332.01        26.54281
332.46        26.16432
332.92        25.74036
333.37        25.48898
333.82        25.46479
334.27        25.59373
334.72        25.77652
335.17         25.8552
335.63        25.77339
336.08        25.60251
336.53        25.37846
336.98        25.16966
337.43        25.01107
337.88        24.87971
338.34        24.79441
338.79        24.79347
339.24        24.87412
339.69        25.02453
340.14        25.18994
340.59        25.27629
341.05         25.2581
341.50        25.16475
341.95        25.02361
342.40        24.89233
342.85        24.79297
343.30        24.70691
343.75        24.64256
344.20        24.61374
344.66        24.61998
345.11        24.65712
345.56        24.69166
346.01        24.66257
346.46        24.56087
346.91        24.40716
347.36         24.2477
347.81        24.15359
348.26        24.14381
348.72        24.19884
349.17        24.28492
349.62        24.34715
350.07        24.36401
350.52         24.3396
350.97        24.30315
351.42        24.30231
351.87        24.34134
352.32        24.40335
352.77          24.425
353.22        24.31429
353.67        24.06381
354.13        23.72368
354.58        23.36791
355.03        23.16278
355.48        23.14867
355.93        23.28424
356.38        23.46929
356.83        23.54412
357.28        23.46908
357.73        23.28885
358.18        23.08768
358.63        22.99941
359.08         23.0455
359.53        23.16658
359.98        23.27842
360.43        23.25498
360.88        23.06838
361.33        22.76855
361.78        22.40486
362.23        22.08968
362.68        21.86921
363.13        21.65261
363.58        21.42757
364.03        21.53516
364.48        21.37926
364.93        21.41982
365.38        21.45629
365.83        21.45877
366.28        21.40551
366.73        21.30761
367.18        21.16045
367.63         20.9483
368.08        20.68238
368.53        20.37454
368.98        20.07214
369.43        19.84912
369.88        19.72575
370.33        19.68864
370.78        19.69678
371.23        19.67834
371.68        19.60703
372.13        19.49231
372.58        19.36263
373.03        19.26637
373.48        19.21582
373.93        19.20062
374.38        19.17388
374.83        19.06419
375.28        18.86522
375.72          18.594
376.17        18.35549
376.62        18.27217
377.07        18.35842
377.52        18.55719
377.97        18.76556
378.42        18.82341
378.87        18.69507
379.32        18.44349
379.77        18.13122
380.22         17.8514
380.67        17.63925
381.11         17.4664
381.56        17.34714
382.01        17.30562
382.46        17.33464
382.91        17.42665
383.36        17.52168
383.81        17.52143
384.26        17.40587
384.71         17.2023
385.15         16.9578
385.60        16.78122
386.05        16.69399
386.50         16.6756
386.95        16.69981
387.40        16.72392
387.85        16.73339
388.29        16.72663
388.74        16.73848
389.19        16.78075
389.64        16.84678
390.09        16.91265
390.54        16.94458
390.98        16.89203
391.43         16.7574
391.88        16.56927
392.33        16.34751
392.78        16.14506
393.23        15.98705
393.67        15.79503
394.12        15.60881
394.57        15.66205
395.02        15.67275
395.47        15.60429
395.91        15.41802
396.36        15.35859
396.81        15.43978
397.26        15.52868
397.71        15.57828
398.15        15.58223
398.60        15.54819
399.05        15.41948
399.50        15.26168
399.95        15.26509
400.39        15.39414
400.84        15.40428
401.29        15.27308
401.74        15.11609
402.18        14.97252
402.63         14.8823
403.08        14.85844
403.53        14.83634
403.97        14.81963
404.42        14.88044
404.87        14.97614
405.32        15.01058
405.76        14.96567
406.21        14.83021
406.66        14.66559
407.11        14.63773
407.55        14.72622
408.00        14.75363
408.45        14.68101
408.90        14.49528
409.34        14.25958
409.79        14.18309
410.24        14.25809
410.68        14.28506
411.13        14.25627
411.58        14.30579
412.03        14.42305
412.47        14.51299
412.92        14.55045
413.37        14.56605
413.81        14.55477
414.26        14.52023
414.71         14.4648
415.15        14.38895
415.60        14.30856
416.05        14.25986
416.49        14.25386
416.94        14.27784
417.39        14.31581
417.83        14.34196
418.28        14.34067
418.73        14.31205
419.17         14.2608
419.62        14.19838
420.07        14.13747
420.51        14.08699
420.96        14.03489
421.41        13.97949
421.85        13.91964
422.30        13.79376
422.74        13.66766
423.19        13.81184
423.64         14.1656
424.08        14.34762
424.53         14.2737
424.98        14.22243
425.42         14.2006
425.87          13.946
426.31        13.56912
426.76        13.53617
427.21        13.78854
427.65         13.8165
428.10        13.62816
428.54        13.58364
428.99        13.67893
429.44        13.84047
429.88        13.96456
430.33        13.72497
430.77        13.27409
431.22        13.20043
431.66        13.48817
432.11        13.69243
432.56        13.73874
433.00        13.75221
433.45        13.62465
433.89        13.30527
434.34        13.06555
434.78         12.4563
435.23         13.0433
435.67        13.53987
436.12        13.75259
436.57        13.83285
437.01        13.68474
437.46        13.58191
437.90        13.60439
438.35        13.67179
438.79        13.35869
439.24        13.22257
439.68        13.15918
440.13         13.1296
440.57        13.11952
441.02        13.22256
441.46        13.39278
441.91        13.31874
442.35        13.09284
442.80        13.27344
443.24        13.74043
443.69        13.72305
444.13        13.25653
444.58         13.0289
445.02        13.05202
445.47        12.97808
445.91        12.81635
446.36        12.76119
446.80        12.81398
447.24        12.91567
447.69         13.0349
448.13        13.15829
448.58        13.25019
449.02        13.24969
449.47        13.18557
449.91        13.16684
450.36         13.2072
450.80        13.24693
451.25        13.26743
451.69        13.26363
452.13        13.22554
452.58        13.14605
453.02        13.04431
453.47        12.95589
453.91        12.88954
454.36        12.86137
454.80        12.83615
455.24        12.74288
455.69        12.60943
456.13        12.47311
456.58        12.39007
457.02         12.4885
457.46        12.70053
457.91        12.77606
458.35        12.75257
458.79        12.77326
459.24        12.85136
459.68        12.87694
460.13        12.85701
460.57        12.78231
461.01        12.71847
461.46        12.67626
461.90         12.6091
462.34        12.58407
462.79        12.79725
463.23        12.89495
463.68        12.91679
464.12        12.89903
464.56        12.85133
465.01        12.82421
465.45        12.78089
465.89        12.66392
466.34        12.52538
466.78        12.42125
467.22        12.35726
467.67        12.60268
468.11        12.59173
468.55        12.63956
468.99         12.5875
469.44        12.57823
469.88         12.6091
470.32        12.58266
470.77        12.52326
471.21        12.51219
471.65        12.56091
472.10        12.65089
472.54        12.73349
472.98        12.75086
473.42        12.69799
473.87        12.56194
474.31        12.41132
474.75        12.46732
475.20        12.70013
475.64        12.83907
476.08        12.83987
476.52        12.88742
476.97        12.98408
477.41         12.8906
477.85        12.75866
478.29        12.80636
478.74        12.72621
479.18        12.65259
479.62        12.89369
480.06        12.95821
480.50        12.97309
480.95        12.94354
481.39         12.8738
481.83        13.04773
482.27         13.0798
482.72        13.06909
483.16         13.2875
483.60        13.34165
484.04        13.32425
484.48        13.31479
484.93          13.455
485.37        13.40018
485.81        13.67717
486.25         14.1706
486.69        13.66837
487.14        13.33607
487.58        14.19865
488.02        13.83813
488.46        14.12427
488.90        13.96946
489.34        13.44078
489.79        13.26661
490.23        13.84145
490.67        14.21653
491.11        14.40577
491.55        14.31962
491.99        14.06429
492.43        14.04668
492.88         14.2991
493.32        14.53342
493.76        14.68963
494.20        14.85462
494.64        15.02347
495.08        15.12574
495.52        15.17385
495.96         15.3177
496.41        15.55925
496.85        15.47582
497.29         15.1936
497.73        15.31036
498.17        15.76356
498.61         16.0255
499.05        16.01314
499.49        15.99444
499.93        16.01606
500.37        16.02765
500.82        16.05411
501.26        16.17282
501.70        16.39951
502.14        16.37505
502.58        16.65016
503.02        16.74023
503.46        16.73825
503.90        16.68349
504.34        16.60498
504.78        16.60405
505.22        16.69151
505.66        16.80821
506.10        16.92795
506.54        17.05441
506.98        17.17767
507.42        17.21687
507.86        17.30455
508.30        17.32934
508.74        17.33568
509.18         17.3176
509.62        17.30045
510.06         17.3249
510.50        17.39682
510.94        17.50658
511.38        17.62234
511.82        17.69144
512.26        17.70133
512.70          17.669
513.14        17.62268
513.58        17.60145
514.02        17.61761
514.46        17.67149
514.90        17.74915
515.34        17.76518
515.78         17.8139
516.22        17.82165
516.66        17.83103
517.10        17.85755
517.54        17.90381
517.98        17.95795
518.42        18.00391
518.86        18.02114
519.30        18.00383
519.74        17.96045
520.18         17.9013
520.62        17.84073
521.06         17.7875
521.50        17.74351
521.93        17.71216
522.37        17.68964
522.81        17.67828
523.25         17.6745
523.69        17.68349
524.13        17.71347
524.57        17.75826
525.01        17.80832
525.45        17.83692
525.89        17.80291
526.32        17.69937
526.76        17.55321
527.20         17.3912
527.64        17.25969
528.08        17.17443
528.52        17.11864
528.96        17.09719
529.40        17.11586
529.83        17.16444
530.27        17.24007
530.71        17.29664
531.15        17.26066
531.59        17.12407
532.03        16.91312
532.46        16.68839
532.90        16.56166
533.34        16.55592
533.78        16.63628
534.22        16.75799
534.66        16.85086
535.09        16.89118
535.53        16.90428
535.97        16.89515
536.41        16.87313
536.85        16.84636
537.28         16.8093
537.72        16.77908
538.16        16.78434
538.60        16.83063
539.04        16.91546
539.47        17.01177
539.91        17.08606
540.35        17.12613
540.79        17.14582
541.22        17.16134
541.66        17.20016
542.10        17.26892
542.54         17.3582
542.97        17.45415
543.41        17.54697
543.85        17.62937
544.29        17.70605
544.72        17.77939
545.16        17.86668
545.60        17.96517
546.04        18.07127
546.47        18.17861
546.91        18.27279
547.35        18.35084
547.79        18.42596
548.22        18.50354
548.66        18.58858
549.10        18.69502
549.53        18.88642
549.97         19.1348
550.41        19.32891
550.84        19.45305
551.28        19.56352
551.72        19.67489
552.15         19.7877
552.59        19.91258
553.03        20.03852
553.46        20.16159
553.90        20.29341
554.34        20.42868
554.77         20.5722
555.21        20.70411
555.65        20.79254
556.08        20.81315
556.52        20.82576
556.96        20.84127
557.39        20.90684
557.83        21.01398
558.27        21.06396
558.70        21.06547
559.14        21.10985
559.57        21.19317
560.01        21.28958
560.45         21.3754
560.88        21.40221
561.32        21.41019
561.75        21.46472
562.19        21.56669
562.63        21.70055
563.06        21.81524
563.50        21.76587
563.93        21.60527
564.37        21.59575
564.80        21.74833
565.24        21.93903
565.68        22.12228
566.11        22.27124
566.55        22.37504
566.98        22.45701
567.42        22.53808
567.85        22.58779
568.29        22.65627
568.72        22.79672
569.16        22.98833
569.60        23.18746
570.03         23.4004
570.47        23.39891
570.90        23.48115
571.34        23.87013
571.77        23.92283
572.21        23.97159
572.64        24.31956
573.08        24.25285
573.51        24.44973
573.95        24.67066
574.38        24.80581
574.82        24.81401
575.25        24.86319
575.69        24.68034
576.12        24.53953
576.56        25.02931
576.99        25.27734
577.42        25.13283
577.86        25.29306
578.29        25.47211
578.73        25.22825
579.16        25.20634
579.60        25.14124
580.03        25.06846
580.47        25.00336
580.90        24.77598
581.33        24.77717
581.77        24.85827
582.20        24.67345
582.64        24.32292
583.07        24.23276
583.51        24.05486
583.94        24.03848
584.37          24.068
584.81        24.08199
585.24        23.95586
585.68        23.78225
586.11        23.46067
586.54        23.42547
586.98        23.45285
587.41        23.54048
587.85        23.36617
588.28         23.0669
588.71        23.35539
589.15        23.38254
589.58        23.01864
590.01        23.30042
590.45        23.33668
590.88        22.92815
591.31        22.91088
591.75        23.12006
592.18        23.17001
592.61        23.02494
593.05        23.36222
593.48        23.29848
593.91        23.09739
594.35        23.19149
594.78        23.43726
595.21        23.59052
595.65        23.63337
596.08        23.46927
596.51        23.82757
596.94        23.88699
597.38        24.16112
597.81        24.44116
598.24        24.41063
598.68        24.70716
599.11         25.0819
599.54         25.4294
599.97        25.28872
600.41        26.06293
600.84        26.32382
601.27        26.48942
601.70         26.7563
602.14        26.89718
602.57        27.35844
603.00        27.75383
603.43        28.22783
603.87        28.78457
604.30        29.10535
604.73        29.42402
605.16        29.92756
605.60        30.28375
606.03        30.83546
606.46        31.41016
606.89        31.54529
607.32        31.94658
607.76        32.49372
608.19        32.65178
608.62        33.00449
609.05        33.36638
609.48        33.71077
609.92        33.99627
610.35        34.52349
610.78        34.71658
611.21         34.9977
611.64        35.44022
612.07        35.68359
612.50        35.81003
612.94        36.06038
613.37        36.49561
613.80        36.62479
614.23        37.08652
614.66         37.4245
615.09        37.78463
615.52        38.12954
615.96        38.48832
616.39        38.50542
616.82        38.85595
617.25          39.199
617.68        39.35516
618.11        39.53696
618.54        39.70283
618.97        40.08217
619.40        40.55862
619.84        41.03257
620.27        41.02329
620.70        40.95691
621.13        40.75934
621.56        41.16423
621.99        41.16963
622.42        41.30765
622.85        41.67252
623.28        41.69908
623.71         41.8311
624.14        42.00047
624.57        41.69622
625.00        41.97887
625.43        41.67892
625.86        41.76243
626.29        41.91543
626.72        41.58112
627.15        41.48546
627.58        41.21326
628.01        41.09044
628.44          40.625
628.87        40.40968
629.30        40.52186
629.73        40.13429
630.16        39.51492
630.59        39.43489
631.02        39.09209
631.45        38.77144
631.88        38.43816
632.31        38.11435
632.74        37.61243
633.17        37.29957
633.60        36.86974
634.03         36.4318
634.46        35.98603
634.89        35.53401
635.32         35.0624
635.75        34.57296
636.18        34.09705
636.61         33.6434
637.04        33.18382
637.47        32.73996
637.89        32.39787
638.32        32.12433
638.75        31.81678
639.18         31.4671
639.61         31.1343
640.04        30.81792
640.47        30.49997
640.90        30.18606
641.33        29.87069
641.76        29.57228
642.18        29.39496
642.61        29.22926
643.04         29.1543
643.47        29.11566
643.90        29.07976
644.33         29.0344
644.76        28.99286
645.18        28.95916
645.61        28.93572
646.04        28.92915
646.47        28.93655
646.90        28.98504
647.33        29.11408
647.75        29.33718
648.18        29.66175
648.61        30.03594
649.04        30.38462
649.47        30.69813
649.89        30.94054
650.32        31.18902
650.75        31.70988
651.18        32.43462
651.61        32.99005
652.03        33.31939
652.46        33.59114
652.89        33.94292
653.32        34.36535
653.74        35.05524
654.17        35.92656
654.60        36.23886
655.03        36.68773
655.46        37.24012
655.88        38.22642
656.31        39.73101
656.74        41.78265
657.16        41.29972
657.59        41.12259
658.02        40.69963
658.45        41.26486
658.87         41.5602
659.30        42.04741
659.73        42.18274
660.15        42.39118
660.58        42.86877
661.01        43.38725
661.44         43.9624
661.86        44.37128
662.29        44.60842
662.72        44.79408
663.14        44.99492
663.57        45.28462
664.00        45.64419
664.42        45.90351
664.85         46.0698
665.27        46.28302
665.70        46.54756
666.13        46.79388
666.55        47.02673
666.98        47.27154
667.41        47.54627
667.83        47.86776
668.26        48.22422
668.69        48.60633
669.11        48.98277
669.54        49.29399
669.96        49.52934
670.39        49.71461
670.82        49.87415
671.24        49.99794
671.67        50.11936
672.09        50.33501
672.52         50.6212
672.94        50.78761
673.37        50.85543
673.80        50.99837
674.22        51.22765
674.65        51.39747
675.07        51.51638
675.50        51.64633
675.92        51.79348
676.35        51.92934
676.77        52.06009
677.20          52.194
677.62        52.34375
678.05        52.51229
678.47         52.7001
678.90        52.91629
679.32        53.14436
679.75          53.353
680.17         53.5115
680.60        53.69156
681.02        53.91337
681.45        53.96019
681.87        53.83091
682.30        54.35283
682.72        54.38777
683.15        54.48583
683.57        54.39155
684.00        54.52349
684.42        54.86732
684.85        55.18305
685.27        55.32506
685.70        55.56972
686.12        55.82706
686.54        56.00719
686.97        56.10385
687.39        56.06765
687.82        55.91412
688.24        56.11887
688.66        56.11924
689.09        56.21189
689.51        56.47139
689.94        56.64978
690.36        56.81401
690.78        56.96276
691.21        57.10532
691.63        57.24899
692.06        57.38153
692.48         57.4418
692.90        57.45622
693.33        57.51302
693.75         57.6295
694.17         57.7757
694.60        57.91723
695.02         58.0437
695.44         58.1419
695.87        58.17938
696.29        58.21108
696.71        58.41063
697.14         58.7281
697.56        58.94062
697.98        59.01468
698.41        59.10376
698.83        59.21211
699.25        59.36007
699.68        59.53405
700.10        59.66946
700.52        59.74334
700.94        60.00695
701.37        60.07834
701.79        60.17911
702.21        60.18505
702.64        60.15021
703.06        60.10847
703.48        60.12502
703.90        60.22921
704.33        60.40545
704.75        60.61845
705.17        60.78564
705.59        60.88057
706.01        60.89394
706.44        60.89462
706.86        61.07979
707.28        61.28614
707.70        61.68633
708.12        62.10111
708.55        62.13982
708.97        61.85491
709.39        61.74805
709.81        61.87613
710.23        61.93357
710.66        61.93295
711.08        62.11174
711.50        62.39592
711.92        62.56652
712.34        62.59694
712.76        62.54912
713.19        62.48162
713.61        62.53362
714.03        62.71346
714.45        62.96819
714.87        63.22731
715.29        63.39038
715.71        63.43324
716.13        63.39366
716.56        63.29876
716.98        63.26166
717.40        63.29509
717.82         63.3777
718.24        63.50384
718.66        63.66553
719.08        63.84896
719.50        64.04889
719.92        64.24689
720.34         64.4107
720.76        64.52902
721.19        64.60113
721.61        64.63323
722.03        64.61157
722.45        64.54533
722.87        64.44321
723.29        64.35684
723.71        64.36616
724.13        64.49066
724.55        64.71574
724.97        64.98109
725.39        65.18137
725.81        65.28807
726.23        65.32603
726.65         65.3512
727.07        65.45663
727.49        65.65871
727.91         65.9208
728.33        66.18314
728.75        66.33068
729.17         66.3306
729.59        66.27522
730.01        66.20353
730.43        66.04453
730.85        65.89082
731.27        66.02193
731.69        66.34644
732.10        66.51508
732.52         66.3986
732.94        66.28542
733.36        66.20475
733.78         66.1828
734.20        66.25031
734.62        66.36515
735.04        66.48169
735.46        66.73079
735.88         66.8558
736.30        66.99728
736.72        67.07368
737.13         67.1603
737.55        67.20943
737.97        67.13489
738.39         66.9798
738.81        66.84499
739.23        66.79145
739.65        66.93798
740.06        67.18356
740.48        67.33042
740.90        67.31988
741.32        67.32391
741.74        67.29475
742.16        67.34011
742.57        67.44341
742.99         67.6769
743.41        67.95308
743.83        67.88046
744.25        67.55292
744.67        67.55934
745.08         67.9017
745.50        68.04485
745.92        67.97849
746.34        68.01387
746.75        68.15343
747.17        68.22775
747.59        68.22713
748.01        68.24537
748.42        68.29207
748.84         68.2476
749.26        68.16838
749.68        68.34615
750.09         68.7002
750.51        68.79006
750.93        68.63981
751.35        68.67374
751.76        68.87865
752.18        68.92459
752.60         68.8036
753.01        68.70431
753.43        68.69035
753.85        68.66819
754.27        68.61929
754.68        68.86876
755.10        69.44658
755.52        68.78095
755.93        69.35643
756.35        69.34971
756.77        69.44267
757.18        69.50797
757.60        69.84485
758.02        69.72544
758.43        69.10294
758.85         70.2534
759.26        70.59366
759.68        69.27073
760.10        70.11523
760.51        69.13619
760.93        69.89036
761.34        69.93533
761.76        70.31656
762.18        70.39819
762.59        70.31037
763.01        70.21225
763.42         70.1936
763.84        70.16327
764.26        70.18413
764.67        70.33344
765.09        70.55785
765.50        70.70274
765.92        70.72771
766.33        70.45625
766.75         69.9222
767.16        69.85877
767.58        69.76083
768.00        70.05207
768.41        70.49367
768.83        70.87707
769.24        71.06614
769.66        71.11623
770.07        71.06364
770.49        70.85787
770.90        70.62132
771.32        71.00945
771.73        71.27354
772.15        71.45009
772.56        71.35379
772.97        70.90401
773.39        70.68682
773.80        70.85792
774.22        71.44105
774.63        71.72198
775.05        71.61669
775.46          71.667
775.88        71.83225
776.29         71.7953
776.70        71.58367
777.12         71.4572
777.53         71.4701
777.95        71.51906
778.36        71.60684
778.77        71.71948
779.19        71.85051
779.60        72.03513
780.02         72.2095
780.43        72.32883
780.84        72.36694
781.26        72.20491
781.67        72.02874
782.09        72.27701
782.50        72.69633
782.91        73.35271
783.33        72.37386
783.74        72.25054
784.15        72.44901
784.57        72.43223
784.98        72.23697
785.39        72.23833
785.81        72.44617
786.22        72.73327
786.63        73.00793
787.04         73.0797
787.46        73.00224
787.87        73.08692
788.28         73.3308
788.70         73.4309
789.11        73.37095
789.52        73.39812
789.93        73.49749
790.35        73.47777
790.76        73.41154
791.17        73.41475
791.58        73.51337
792.00        73.80972
792.41         74.1842
792.82        74.13053
793.23        73.72486
793.65        73.54954
794.06          73.728
794.47        74.05462
794.88        74.35138
795.29        74.67065
795.71        74.36604
796.12        74.14697
796.53        73.92351
796.94         73.7114
797.35        73.59749
797.76        73.78881
798.18        74.20385
798.59         74.4585
799.00         74.5057
799.41        74.51045
799.82        74.50632
800.23        74.49482
800.64        74.49471
801.06        74.47806
801.47        74.47321
801.88        74.45053
802.29        74.40617
802.70        74.35933
803.11        74.34494
803.52        74.32677
803.93        74.29674
804.34        74.44413
804.75          74.782
805.17        74.50752
805.58        74.75665
805.99        75.00465
806.40        75.46695
806.81        75.77332
807.22         75.7886
807.63        75.37736
808.04        74.71342
808.45        74.40297
808.86        74.55328
809.27        74.85263
809.68        75.17226
810.09        75.40659
810.50        75.48934
810.91        75.46014
811.32        75.36397
811.73         75.2943
812.14        75.28374
812.55        75.23866
812.96        75.19462
813.37        75.33189
813.78        75.60061
814.19        75.74644
814.60        75.71539
815.01        75.63764
815.42        75.51365
815.83        75.22544
816.24        74.90348
816.65        74.87177
817.05        75.19666
817.46        75.73083
817.87         76.3095
818.28        76.63488
818.69        76.63237
819.10        76.38744
819.51        76.01797
819.92        75.74133
820.33         75.6483
820.74        75.68021
821.14        75.78069
821.55        75.89884
821.96        75.98814
822.37        76.07292
822.78        76.16555
823.19        76.27212
823.60        76.38791
824.00        76.52161
824.41        76.58004
824.82         76.5161
825.23        76.33112
825.64        76.05948
826.04         75.8259
826.45        75.79283
826.86        76.00726
827.27        76.40932
827.68        76.88677
828.08        77.27933
828.49        77.45269
828.90        77.48881
829.31        77.42195
829.72        77.31839
830.12        77.23922
830.53        77.11978
830.94        77.00769
831.35        76.95174
831.75         76.9847
832.16        77.05065
832.57        77.15228
832.97        77.24152
833.38        77.28648
833.79        77.30698
834.20        77.27995
834.60        77.16785
835.01        76.98891
835.42        76.74682
835.82        76.53625
836.23        76.44035
836.64        76.51685
837.04        76.76569
837.45        77.05686
837.86        77.27258
838.26        77.38293
838.67        77.39465
839.08         77.3885
839.48          77.485
839.89        77.70281
840.29        77.98926
840.70        78.25793
841.11        78.38135
841.51        78.35121
841.92        78.18214
842.33        77.95415
842.73        77.79289
843.14        77.69172
843.54        77.64426
843.95        77.64088
844.35        77.68475
844.76        77.75378
845.17        77.86108
845.57        77.96222
845.98        77.93559
846.38        77.79137
846.79        77.53687
847.19         77.2831
847.60        77.16376
848.00        77.23816
848.41        77.42635
848.81        77.69036
849.22        77.88205
849.62        77.99639
850.03        78.05648
850.43        78.08664
850.84        78.04304
851.24        77.98041
851.65        77.81824
852.05         77.7183
852.46        77.84828
852.86        78.21225
853.27        78.75487
853.67        79.16691
854.07        79.21579
854.48        78.82462
854.88        78.11201
855.29        77.19942
855.69        76.56652
856.10        76.29449
856.50         76.3667
856.90        76.59776
857.31         76.7057
857.71        76.65184
858.12          76.463
858.52        76.28436
858.92        76.21848
859.33        76.27495
859.73        76.43202
860.13        76.57043
860.54        76.52558
860.94        76.30122
861.34        75.93826
861.75         75.5209
862.15         75.2346
862.55        75.10351
862.96        75.09162
863.36        75.15939
863.76        75.22151
864.17         75.2398
864.57        75.25603
864.97        75.28031
865.38        75.30875
865.78        75.38486
866.18        75.46165
866.58        75.51418
866.99        75.52493
867.39        75.51683
867.79        75.46889
868.19        75.37878
868.60         75.1995
869.00        74.92131
869.40        74.59139
869.80        74.27034
870.21        74.08138
870.61        74.13938
871.01        74.34395
871.41        74.61921
871.81        74.85563
872.22        74.99149
872.62          75.078
873.02        75.13233
873.42        75.17963
873.82         75.2271
874.22        75.26443
874.63        75.29501
875.03          75.297
875.43        75.28152
875.83        75.25386
876.23        75.24208
876.63        75.28832
877.03        75.39388
877.44        75.53231
877.84        75.66125
878.24        75.67589
878.64        75.55784
879.04        75.35049
879.44        75.12186
879.84         74.9641
880.24        74.90189
880.64        74.91322
881.04         74.9792
881.44        75.06465
881.84        75.14809
882.24        75.22616
882.65        75.27288
883.05         75.3509
883.45        75.42081
883.85          75.479
884.25        75.49211
884.65        75.41279
885.05        75.24591
885.45         75.0122
885.85        74.79129
886.25         74.7249
886.65        74.83688
887.05        75.06695
887.45        75.31668
887.85        75.43243
888.25        75.37163
888.65        75.19084
889.04        74.90917
889.44        74.60417
889.84        74.30518
890.24        73.99857
890.64         73.7638
891.04        73.72755
891.44        73.90304
891.84        74.25996
892.24         74.6593
892.64        74.87199
893.04        74.84781
893.44        74.64823
893.83        74.43241
894.23         74.3965
894.63        74.61402
895.03        75.00323
895.43        75.43719
895.83        75.71117
896.23        75.76716
896.63        75.67553
897.02        75.51215
897.42        75.42734
897.82        75.44883
898.22        75.54553
898.62        75.67311
899.01        75.77512
899.41        75.80863
899.81        75.79625
900.21         75.7924
900.61        75.88114
901.00        76.06128
901.40        76.31822
901.80        76.53127
902.20        76.52747
902.59        76.29234
902.99        75.87222
903.39        75.43167
903.79          75.228
904.18        75.31461
904.58         75.6124
904.98        75.97539
905.38        76.19389
905.77        76.20401
906.17        76.07571
906.57        75.86949
906.96        75.71394
907.36         75.6264
907.76        75.58373
908.15        75.56432
908.55        75.46013
908.95        75.29028
909.34         75.0869
909.74        74.94151
910.14        74.92476
910.53        75.05804
910.93        75.28605
911.33        75.56898
911.72        75.83838
912.12        76.03372
912.52        76.17431
912.91        76.22716
913.31        76.18803
913.70        76.06537
914.10         75.8595
914.49        75.65466
914.89        75.53643
915.29        75.56165
915.68        75.70425
916.08        75.91673
916.47          76.116
916.87        76.27551
917.26        76.37262
917.66        76.42665
918.05        76.43121
918.45          76.384
918.84        76.33339
919.24        76.20588
919.64         75.9737
920.03        75.67696
920.42        75.33192
920.82        75.10311
921.21        75.23053
921.61        75.72404
922.00        76.50932
922.40        77.35781
922.79         77.9432
923.19        78.11116
923.58        77.99935
923.98        77.66401
924.37        77.26278
924.77        76.85399
925.16        76.36962
925.55        75.94862
925.95          75.828
926.34        76.04041
926.74        76.52663
927.13         77.0424
927.52        77.07475
927.92        76.56455
928.31        75.67047
928.70        74.74293
929.10         74.3148
929.49        74.51676
929.89        75.15411
930.28        76.04465
930.67        76.73235
931.07         77.0295
931.46        77.07709
931.85        76.94006
932.24        76.76568
932.64        76.61293
933.03        76.42156
933.42        76.20658
933.82        76.00768
934.21        75.84258
934.60        75.73901
934.99        75.68959
935.39        75.63013
935.78        75.58945
936.17        75.58394
936.56        75.64037
936.96        75.79076
937.35        76.07682
937.74        76.42159
938.13        76.79704
938.53         77.1848
938.92        77.56737
939.31        77.93088
939.70        78.21138
940.09        78.29719
940.49        78.14481
940.88        77.83333
941.27        77.44977
941.66        77.13174
942.05        76.93272
942.44        76.84809
942.84        76.86119
943.23         76.8779
943.62        76.89166
944.01        76.90199
944.40        76.94913
944.79        77.10153
945.18         77.3391
945.57        77.60184
945.97        77.72317
946.36        77.53403
946.75        76.98758
947.14        76.17108
947.53        75.25961
947.92        74.56297
948.31        74.21568
948.70        74.16964
949.09        74.35841
949.48        74.65652
949.87        74.99886
950.26        75.39307
950.65        75.82878
951.04        76.29366
951.43         76.7589
951.82        77.18427
952.21        77.46891
952.60        77.47617
952.99        77.18286
953.38        76.63863
953.77        76.00088
954.16         75.4993
954.55        75.19897
954.94        75.07073
955.33        74.99683
955.72         74.7689
956.11        74.33501
956.50        73.75085
956.89        73.19239
957.28        72.94846
957.66        73.13116
958.05        73.66544
958.44        74.29681
958.83        74.61876
959.22          74.528
959.61        74.07664
960.00        73.63835
960.39        73.81404
960.78        74.69916
961.16        76.15907
961.55        77.51286
961.94        77.70452
962.33        76.52017
962.72        74.36331
963.11        72.09645
963.49        70.97314
963.88        71.27063
964.27        72.63773
964.66        74.44028
965.04        75.53518
965.43        75.45525
965.82        74.60197
966.21        73.48056
966.60        72.86034
966.98        72.95193
967.37        73.44635
967.76        74.07693
968.15        74.34914
968.53        74.12826
968.92        73.67369
969.31        73.15546
969.69        72.77251
970.08        72.60381
970.47        72.53415
970.86        72.77646
971.24        73.71154
971.63        75.21254
972.02        77.08982
972.40        78.77921
972.79        79.38584
973.17        78.87228
973.56        77.40499
973.95        75.57655
974.33        74.42848
974.72          74.313
975.11        75.00343
975.49        75.98553
975.88        76.38957
976.26        75.97511
976.65        74.97009
977.04        73.87382
977.42        73.50463
977.81        74.02773
978.19        75.15523
978.58        76.46201
978.96        77.15823
979.35        76.96931
979.74        76.21909
980.12        75.26995
980.51        74.45828
980.89         74.0483
981.28        73.79649
981.66        73.84246
982.05        74.44783
982.43        75.55695
982.82        77.07281
983.20        78.47515
983.59        78.77617
983.97        77.91067
984.35        76.06622
984.74        73.96632
985.12        72.93768
985.51        73.33652
985.89        74.77148
986.28        76.54945
986.66        77.72672
987.04        78.03858
987.43        77.75113
987.81        77.20817
988.20        76.89752
988.58        77.03962
988.96         77.4341
989.35        77.79152
989.73        77.80489
990.12          77.335
990.50        76.45177
990.88         75.4773
991.27        75.10798
991.65        75.57594
992.03         76.6699
992.42        77.67188
992.80        77.92653
993.18        77.22228
993.56        75.66937
993.95        73.84538
994.33        73.11786
994.71        74.04089
995.10        75.87786
995.48        77.71017
995.86        78.54771
996.24         78.2973
996.63        77.18252
997.01         75.5919
997.39        74.33504
997.77        73.85191
998.15         73.9269
998.54        74.16564
998.92        74.00175
999.30        73.29532
999.68        72.29152
1000.06        71.31992
1000.45        70.89923
1000.83        71.24673
1001.21        72.05031
1001.59        73.04244
1001.97        73.86611
1002.35        74.44257
1002.73        74.99353
1003.12        75.36301
1003.50        75.11878
1003.88        74.31448
1004.26        73.03531
1004.64          72.084
1005.02        72.52742
1005.40        74.42136
1005.78        77.49512
1006.16        80.64133
1006.54        81.80643
1006.92         80.4227
1007.30        77.08389
1007.69        73.17376
1008.07        70.97541
1008.45        71.20962
1008.83        73.14088
1009.21        75.63329
1009.59        77.02785
1009.97        76.84795
1010.35        75.52927
1010.73        73.53991
1011.11         72.0976
1011.49        71.90147
1011.86         72.6051
1012.24        73.67065
1012.62        74.66893
1013.00        75.44393
1013.38        76.22969
1013.76        76.96959
1014.14        77.49711
1014.52        77.79562
1014.90        77.80681
1015.28        77.75908
1015.66        78.14693
1016.04        79.04296
1016.41        80.34568
1016.79        81.42005
1017.17        81.70042
1017.55        81.10994
1017.93        79.93282
1018.31        78.57189
1018.69        77.62474
1019.06        77.32583
1019.44        77.49529
1019.82        78.05696
1020.20        78.81659
1020.58         79.5136
1020.95        80.00628
1021.33        80.16989
1021.71        79.77316
1022.09        78.79202
1022.46        77.29707
1022.84        75.27012
1023.22        72.55548
1023.60        69.18626
1023.97        64.96246
1024.35        60.87025
1024.73        58.70752
