SpectraSmart Spectrum 2.9.0.0
--------- Device Information -----------
Spectrum Name :  反射率_0
Saving Time :  2024/04/27 22:11:42
Spectro-Module Model Name : SE2030-DUVN
Spectro-Module Serial Number : OS361AC55029948
Wavelength Start : 200
Wavelength End : 1025
Wavelength Unit : Wavelength(nm)
Spectrum Unit : Reflectance(%)
-----------Spectrum Setting ------------
Integration Time : 20ms
Average : 10
Boxcar : 0
Background removal :  enabled
linearity correction :  enabled
SC :  disabled
Intensity correction :  disabled
DWT denoise :  enabled
savitzky-golay :  disabled
FFT :  disabled
Running average :  disabled
Kalman :  disabled
High pass :  disabled
---------------BEGIN--------------------
Wavelength(nm)             Reflectance(%)
200.29               0
200.75       -73.05617
201.21        -34.1371
201.67      -0.8190106
202.13        15.53785
202.58        20.94241
203.04        20.81289
203.50        20.52554
203.96        25.83924
204.42        35.91462
204.88        47.60484
205.34        56.58231
205.80        59.20091
206.26        54.97851
206.72        42.08949
207.18        21.56583
207.64         12.2235
208.10        25.01469
208.55        46.27556
209.01        59.39246
209.47        59.34669
209.93        44.67987
210.39      -0.5927063
210.85        -146.052
211.31       -344.3929
211.77       -149.1284
212.23       -8.510098
212.69        42.41719
213.14        56.66193
213.60        53.20057
214.06        36.26495
214.52        3.577825
214.98       -20.67441
215.44       -9.969687
215.90        12.96764
216.36        31.64248
216.81        41.58787
217.27        45.26337
217.73        46.54467
218.19        46.03255
218.65        43.71751
219.11        39.94483
219.57        34.20166
220.02        27.64008
220.48        25.17507
220.94        27.80971
221.40        33.54092
221.86        39.94556
222.32        44.58535
222.77        47.21198
223.23        48.55724
223.69        48.67899
224.15        47.35987
224.61         44.8828
225.06        41.27039
225.52        37.92131
225.98        37.18171
226.44        39.05212
226.90        41.82612
227.36        44.35488
227.81        45.88696
228.27        46.45895
228.73         46.4494
229.19        45.49242
229.65        42.97103
230.10        39.06892
230.56        34.58389
231.02        30.64317
231.48        28.79174
231.93        29.09179
232.39        30.93915
232.85        33.60601
233.31        36.08783
233.77        37.99617
234.22        39.63963
234.68        40.66456
235.14        40.74183
235.60        39.87151
236.05        37.86887
236.51        35.51324
236.97        34.58921
237.43        35.78832
237.88        38.93615
238.34        42.17338
238.80        43.45883
239.26          42.153
239.71         37.5998
240.17        30.16372
240.63        26.52613
241.08        32.25058
241.54        42.09401
242.00        49.78796
242.46        52.93792
242.91        52.20448
243.37        47.02776
243.83        34.00368
244.28        14.31759
244.74        7.005546
245.20        16.58239
245.66         27.4751
246.11        30.44393
246.57        26.04202
247.03        15.74377
247.48      -0.2845224
247.94        -9.80748
248.40       -1.491894
248.85        15.62546
249.31        32.74934
249.77        44.16338
250.22        49.80802
250.68        52.09533
251.14         51.8422
251.59        49.09471
252.05         43.7418
252.51        34.24598
252.96         20.6494
253.42        11.07574
253.88        11.29799
254.33        18.65988
254.79        26.25805
255.25        29.40242
255.70        29.14562
256.16        27.85279
256.62        27.73283
257.07        30.90782
257.53        36.33805
257.99        41.85469
258.44        45.83992
258.90        47.26163
259.35        46.37339
259.81        44.44413
260.27        42.14455
260.72        40.22392
261.18        39.08287
261.63        38.27142
262.09        37.70596
262.55        37.04297
263.00        36.20356
263.46        35.40651
263.91        34.73965
264.37        34.54415
264.83        34.73006
265.28        35.09151
265.74        35.40179
266.19        35.25974
266.65        34.68293
267.11         33.7991
267.56        32.76955
268.02        31.93425
268.47        31.34801
268.93        30.90705
269.38        30.57399
269.84        30.30492
270.30        30.05168
270.75        29.84502
271.21         29.5472
271.66        28.89956
272.12        27.91388
272.57        26.65862
273.03        25.43966
273.48        24.66458
273.94        24.44686
274.39         24.6033
274.85         24.9014
275.31        24.95605
275.76        24.65919
276.22        24.13885
276.67        23.50732
277.13        22.99384
277.58        22.60847
278.04        22.31891
278.49        21.97852
278.95        21.46637
279.40        20.75202
279.86        19.97702
280.31        19.27353
280.77        18.91305
281.22        18.89365
281.68        19.12156
282.13        19.43186
282.59        19.62723
283.04        19.64167
283.50        19.53078
283.95        19.33112
284.41        19.12362
284.86        18.92897
285.32        18.74287
285.77         18.5386
286.22        18.30194
286.68        18.05265
287.13        17.78432
287.59        17.57549
288.04        17.47472
288.50        17.50705
288.95        17.62586
289.41         17.7645
289.86        17.79041
290.32        17.69445
290.77        17.51458
291.22        17.33284
291.68        17.27126
292.13        17.35178
292.59        17.54207
293.04        17.78896
293.50        18.02813
293.95        18.23179
294.40        18.43448
294.86        18.65093
295.31        18.89594
295.77        19.18263
296.22        19.48486
296.68        19.82117
297.13        20.20377
297.58        20.62873
298.04         21.0795
298.49        21.50929
298.95        21.85039
299.40        22.09373
299.85        22.25992
300.31        22.41504
300.76        22.63079
301.21        22.93248
301.67        23.29248
302.12        23.64652
302.58        23.92222
303.03        24.09161
303.48        24.18299
303.94        24.25472
304.39        24.35843
304.84        24.51908
305.30        24.72248
305.75        24.90453
306.20        24.99521
306.66         24.9919
307.11        24.89345
307.57        24.78877
308.02        24.76221
308.47        24.83922
308.93         24.9846
309.38        25.09536
309.83         25.0271
310.29        24.76984
310.74         24.3724
311.19        23.94832
311.65        23.67729
312.10        23.58763
312.55        23.62085
313.00        23.70947
313.46        23.74975
313.91        23.70011
314.36        23.59504
314.82        23.41736
315.27        23.13513
315.72        22.76266
316.18        22.31901
316.63        21.87593
317.08        21.56915
317.53        21.42702
317.99        21.41121
318.44        21.45327
318.89        21.42103
319.35        21.27451
319.80        21.04852
320.25        20.78275
320.70        20.54845
321.16        20.36167
321.61        20.20197
322.06        20.04345
322.51        19.85124
322.97        19.61624
323.42        19.36623
323.87        19.11709
324.32        18.89536
324.78        18.70975
325.23        18.55081
325.68        18.41722
326.13        18.31029
326.59        18.21403
327.04        18.14228
327.49        18.06036
327.94        17.91774
328.39        17.70425
328.85        17.43101
329.30        17.13962
329.75        16.91282
330.20        16.77768
330.66        16.70728
331.11         16.6715
331.56        16.57975
332.01         16.4071
332.46        16.17808
332.92         15.9336
333.37        15.75613
333.82        15.66535
334.27        15.62978
334.72        15.61214
335.17        15.55337
335.63        15.43053
336.08        15.27871
336.53        15.09778
336.98        14.89374
337.43        14.68295
337.88        14.46867
338.34        14.29404
338.79        14.22692
339.24        14.27825
339.69        14.42084
340.14        14.59468
340.59        14.70154
341.05         14.7064
341.50         14.6338
341.95         14.4988
342.40        14.33799
342.85        14.17066
343.30         13.9905
343.75        13.81075
344.20        13.65318
344.66        13.53054
345.11        13.44429
345.56         13.3917
346.01          13.359
346.46        13.33692
346.91        13.31901
347.36        13.30814
347.81        13.30832
348.26        13.31933
348.72        13.34418
349.17        13.35375
349.62        13.30105
350.07        13.18131
350.52        13.00018
350.97        12.83755
351.42        12.82079
351.87        12.96449
352.32        13.22698
352.77        13.47383
353.22        13.50006
353.67        13.27019
354.13        12.86308
354.58        12.40588
355.03        12.15306
355.48        12.16938
355.93        12.38554
356.38        12.66357
356.83        12.78588
357.28        12.70143
357.73        12.48127
358.18        12.24119
358.63        12.16027
359.08        12.26972
359.53        12.48928
359.98        12.71529
360.43        12.79301
360.88        12.68416
361.33        12.44941
361.78        12.13333
362.23        11.84555
362.68        11.63591
363.13        11.40281
363.58        11.15635
364.03        11.32195
364.48        11.23286
364.93        11.39908
365.38        11.56108
365.83        11.63159
366.28        11.57758
366.73        11.43121
367.18        11.22632
367.63        11.00738
368.08        10.80102
368.53        10.59817
368.98         10.4199
369.43        10.29756
369.88        10.23784
370.33        10.24216
370.78        10.27648
371.23        10.28062
371.68        10.23291
372.13         10.1332
372.58        10.01963
373.03        9.957834
373.48        9.962657
373.93         10.0257
374.38        10.07288
374.83        9.987795
375.28        9.759936
375.72        9.421303
376.17        9.124701
376.62         9.07175
377.07         9.28763
377.52          9.6855
377.97        10.10041
378.42         10.2757
378.87        10.15418
379.32        9.831069
379.77        9.417857
380.22        9.082741
380.67        8.880822
381.11        8.758968
381.56        8.708728
382.01        8.714993
382.46         8.75972
382.91        8.855501
383.36        8.949218
383.81        8.951004
384.26        8.844276
384.71        8.644792
385.15        8.415158
385.60        8.287549
386.05         8.28352
386.50         8.37745
386.95        8.499897
387.40        8.539161
387.85        8.477831
388.29        8.351021
388.74        8.248983
389.19        8.279992
389.64        8.452938
390.09        8.712765
390.54        8.974442
390.98         9.10279
391.43        9.066821
391.88        8.923303
392.33        8.719936
392.78        8.538851
393.23          8.4122
393.67        8.278357
394.12        8.166739
394.57        8.208944
395.02        8.255018
395.47        8.287203
395.91        8.257001
396.36        8.242894
396.81        8.244408
397.26        8.207927
397.71        8.144738
398.15        8.105868
398.60        8.104619
399.05        8.090637
399.50        8.076124
399.95        8.131688
400.39        8.229804
400.84         8.24905
401.29        8.179462
401.74         8.08569
402.18        7.992521
402.63        7.922828
403.08        7.888846
403.53        7.867499
403.97        7.865236
404.42        7.917275
404.87        8.002513
405.32        8.070441
405.76         8.10704
406.21        8.100826
406.66        8.072149
407.11        8.092685
407.55        8.146456
408.00        8.140377
408.45        8.061324
408.90        7.918995
409.34        7.756759
409.79        7.687893
410.24        7.710063
410.68        7.718571
411.13        7.708271
411.58        7.749833
412.03         7.83406
412.47        7.902055
412.92         7.93486
413.37        7.952271
413.81        7.945851
414.26         7.90977
414.71        7.846382
415.15         7.75633
415.60        7.668427
416.05        7.633086
416.49        7.662545
416.94        7.739719
417.39        7.829257
417.83        7.875798
418.28        7.859775
418.73        7.793399
419.17        7.701688
419.62        7.628774
420.07        7.593334
420.51        7.592155
420.96        7.601298
421.41         7.59389
421.85        7.563197
422.30        7.483709
422.74        7.410948
423.19        7.521233
423.64        7.786898
424.08        7.991598
424.53        8.048951
424.98        8.063479
425.42        8.025217
425.87         7.80037
426.31        7.488762
426.76        7.414927
427.21        7.559578
427.65         7.63196
428.10        7.593453
428.54        7.582322
428.99        7.586143
429.44        7.585696
429.88        7.566291
430.33        7.422601
430.77        7.241836
431.22        7.311222
431.66        7.589178
432.11        7.762227
432.56        7.767916
433.00        7.698057
433.45        7.517619
433.89        7.247435
434.34        7.064681
434.78        6.712238
435.23        7.039333
435.67        7.363871
436.12        7.573613
436.57         7.74441
437.01        7.790883
437.46        7.812443
437.90        7.845273
438.35        7.853526
438.79        7.613114
439.24        7.484601
439.68        7.418777
440.13        7.386262
440.57        7.372728
441.02        7.418705
441.46        7.497466
441.91        7.440899
442.35        7.307695
442.80        7.413196
443.24        7.691043
443.69        7.706277
444.13        7.468843
444.58        7.356301
445.02        7.371907
445.47        7.324872
445.91         7.22296
446.36        7.186046
446.80        7.216777
447.24        7.281251
447.69        7.359913
448.13        7.447428
448.58         7.52186
449.02        7.551549
449.47        7.548096
449.91        7.569052
450.36        7.619031
450.80        7.662107
451.25        7.692205
451.69        7.716603
452.13        7.729081
452.58        7.722514
453.02        7.691637
453.47        7.632668
453.91        7.547331
454.36        7.454342
454.80        7.358113
455.24        7.258985
455.69        7.182812
456.13        7.138892
456.58        7.134577
457.02        7.204195
457.46        7.300566
457.91         7.29186
458.35        7.225755
458.79        7.216905
459.24        7.280007
459.68        7.340889
460.13        7.383944
460.57        7.372274
461.01        7.337659
461.46        7.294429
461.90        7.235156
462.34        7.228024
462.79        7.390316
463.23        7.508755
463.68        7.579596
464.12        7.589821
464.56        7.536277
465.01        7.463297
465.45        7.369153
465.89        7.252162
466.34         7.15122
466.78        7.090559
467.22         7.06088
467.67        7.194087
468.11        7.162403
468.55        7.153546
468.99        7.096763
469.44        7.101628
469.88        7.170357
470.32        7.236786
470.77        7.288322
471.21        7.328676
471.65        7.354356
472.10        7.367217
472.54         7.36319
472.98        7.344981
473.42        7.319026
473.87        7.266562
474.31        7.212767
474.75        7.266959
475.20        7.405653
475.64        7.479678
476.08        7.468384
476.52        7.485396
476.97        7.534745
477.41        7.473608
477.85        7.391177
478.29        7.416933
478.74        7.373262
479.18        7.338777
479.62        7.488021
480.06        7.528924
480.50        7.533383
480.95         7.50399
481.39         7.45148
481.83        7.558298
482.27        7.604023
482.72         7.63816
483.16        7.804712
483.60        7.853619
484.04        7.825388
484.48        7.782273
484.93        7.863999
485.37        7.837493
485.81        7.913293
486.25        8.466592
486.69        7.966006
487.14        7.488736
487.58        8.485495
488.02        8.402685
488.46        8.434066
488.90        8.456529
489.34         7.94208
489.79        7.836619
490.23        8.200508
490.67        8.437657
491.11         8.55763
491.55        8.592916
491.99        8.582515
492.43        8.651722
492.88        8.803365
493.32        8.904024
493.76        8.946409
494.20        9.022941
494.64        9.144673
495.08        9.256685
495.52        9.354689
495.96        9.501066
496.41        9.712611
496.85        9.709507
497.29        9.575551
497.73        9.687099
498.17        10.00698
498.61        10.19884
499.05        10.20322
499.49        10.18523
499.93        10.17657
500.37        10.14973
500.82        10.13578
501.26        10.20309
501.70        10.36764
502.14         10.3957
502.58        10.62216
503.02        10.71607
503.46        10.73065
503.90         10.6993
504.34        10.64756
504.78        10.65225
505.22        10.72454
505.66        10.82011
506.10        10.92464
506.54        11.04623
506.98        11.17625
507.42        11.25895
507.86        11.36645
508.30        11.40197
508.74        11.39113
509.18        11.33997
509.62        11.28012
510.06        11.26318
510.50        11.30142
510.94         11.3803
511.38        11.47804
511.82        11.55815
512.26        11.60718
512.70        11.63588
513.14        11.64717
513.58        11.64073
514.02        11.62118
514.46        11.59778
514.90        11.58131
515.34        11.54982
515.78        11.57476
516.22        11.59872
516.66        11.64106
517.10        11.69684
517.54        11.76111
517.98        11.83107
518.42        11.89025
518.86         11.9155
519.30        11.90159
519.74        11.85351
520.18        11.79116
520.62        11.74597
521.06        11.72852
521.50        11.73632
521.93        11.75334
522.37        11.74499
522.81        11.70649
523.25        11.64236
523.69        11.58326
524.13        11.57697
524.57        11.62711
525.01        11.71605
525.45        11.78845
525.89        11.75778
526.32        11.60892
526.76        11.38124
527.20        11.14119
527.64        10.99658
528.08        10.97364
528.52        11.03464
528.96        11.13383
529.40        11.19878
529.83        11.20436
530.27        11.17215
530.71        11.10806
531.15        11.01916
531.59        10.91592
532.03         10.7977
532.46        10.68344
532.90        10.61639
533.34        10.60328
533.78        10.63595
534.22        10.69745
534.66        10.75873
535.09        10.80747
535.53        10.84724
535.97        10.87784
536.41         10.9009
536.85        10.91746
537.28        10.92733
537.72         10.9276
538.16        10.91406
538.60        10.89121
539.04        10.86707
539.47         10.8558
539.91        10.88434
540.35         10.9523
540.79        11.05169
541.22        11.16177
541.66        11.24817
542.10        11.30152
542.54        11.33371
542.97        11.35322
543.41        11.38142
543.85        11.42416
544.29        11.47484
544.72          11.537
545.16        11.62849
545.60        11.74449
546.04        11.88252
546.47        12.02427
546.91        12.13334
547.35        12.20311
547.79        12.24917
548.22        12.29012
548.66        12.35711
549.10        12.46497
549.53         12.6488
549.97        12.87912
550.41        13.06412
550.84        13.18798
551.28        13.29529
551.72        13.40053
552.15        13.51113
552.59        13.63522
553.03        13.75803
553.46        13.87749
553.90        14.00349
554.34        14.13229
554.77        14.27024
555.21        14.39121
555.65        14.45316
556.08        14.43834
556.52          14.395
556.96        14.35961
557.39        14.40781
557.83        14.54138
558.27        14.68073
558.70        14.79348
559.14        14.88097
559.57        14.92797
560.01        14.93635
560.45        14.93147
560.88        14.94555
561.32         15.0174
561.75        15.16495
562.19        15.35093
562.63         15.5138
563.06        15.60073
563.50        15.51892
563.93         15.3304
564.37        15.27018
564.80         15.3581
565.24        15.48735
565.68        15.62459
566.11        15.75204
566.55        15.85862
566.98        15.96464
567.42        16.07163
567.85        16.13506
568.29        16.18774
568.72        16.26841
569.16        16.38061
569.60        16.54999
570.03        16.79357
570.47        16.88298
570.90        16.98518
571.34        17.46447
571.77        17.43768
572.21        17.43195
572.64        17.58546
573.08        17.60723
573.51        17.98843
573.95        18.10581
574.38        18.00724
574.82        18.18897
575.25        18.00718
575.69         18.0049
576.12        18.07923
576.56         18.5778
576.99        18.81344
577.42        18.41824
577.86        18.43283
578.29        18.51052
578.73        18.26292
579.16         18.2754
579.60        18.27889
580.03          18.261
580.47        18.20161
580.90        18.04372
581.33        18.06785
581.77        18.06662
582.20        17.81083
582.64        17.61832
583.07        17.48004
583.51        17.39609
583.94        17.43391
584.37        17.40591
584.81        17.27279
585.24        17.11586
585.68        17.03069
586.11        16.73979
586.54        16.75106
586.98        16.77518
587.41        16.88704
587.85        16.54286
588.28        16.56327
588.71         16.5789
589.15        16.61597
589.58        16.39856
590.01         16.5482
590.45        16.52102
590.88        16.13356
591.31        16.12635
591.75         16.3651
592.18        16.45848
592.61        16.36066
593.05        16.48825
593.48        16.58745
593.91        16.24572
594.35        16.47604
594.78        16.72651
595.21        16.97201
595.65        17.03855
596.08        16.87893
596.51        17.17849
596.94        17.33264
597.38        17.62719
597.81        17.90651
598.24         17.8306
598.68        18.13227
599.11        18.60077
599.54        18.67485
599.97        18.81292
600.41        19.34768
600.84        19.66438
601.27        19.91583
601.70        20.15851
602.14        20.41587
602.57        20.91767
603.00        21.39716
603.43        21.80517
603.87        22.20528
604.30         22.4899
604.73        22.98272
605.16        23.59691
605.60        24.01637
606.03        24.44368
606.46        24.74398
606.89        25.22049
607.32        25.67717
607.76        26.23743
608.19         26.4606
608.62        26.79792
609.05        27.21642
609.48        27.63267
609.92        27.94851
610.35        28.69799
610.78         28.7965
611.21        28.79257
611.64        29.50098
612.07        29.78054
612.50        29.97387
612.94        30.23079
613.37        30.59163
613.80        30.99592
614.23        31.32644
614.66        31.69615
615.09        32.04475
615.52        32.42587
615.96        32.85457
616.39        32.94705
616.82        33.27654
617.25         33.6965
617.68        33.82252
618.11        34.09335
618.54        34.37336
618.97        34.75961
619.40        35.15286
619.84         35.5592
620.27        35.58837
620.70         35.5729
621.13         35.4302
621.56         35.8684
621.99        36.02164
622.42         36.0895
622.85         36.1172
623.28        36.46155
623.71        36.46177
624.14        36.28337
624.57        36.41774
625.00        36.57717
625.43         36.2197
625.86        36.10493
626.29        36.02268
626.72        35.80565
627.15        35.63869
627.58        35.40375
628.01        35.17738
628.44        35.02075
628.87        34.53356
629.30        34.52428
629.73        34.06101
630.16          33.422
630.59        33.26713
631.02        32.92357
631.45        32.60802
631.88        32.22158
632.31        31.77336
632.74        31.13041
633.17        30.63914
633.60        30.11236
634.03        29.65759
634.46        29.25594
634.89        28.87047
635.32        28.42815
635.75        27.91297
636.18        27.36821
636.61        26.83215
637.04        26.33139
637.47        25.89547
637.89        25.57683
638.32        25.31952
638.75        24.99817
639.18        24.59757
639.61         24.1816
640.04         23.7819
640.47        23.43322
640.90         23.1511
641.33        22.91499
641.76        22.71135
642.18        22.57509
642.61        22.41022
643.04        22.29321
643.47        22.20135
643.90        22.13921
644.33        22.10736
644.76        22.10535
645.18        22.13039
645.61        22.17559
646.04         22.2423
646.47        22.33413
646.90        22.46608
647.33        22.65734
647.75        22.91422
648.18        23.24075
648.61        23.61184
649.04        23.98857
649.47        24.36739
649.89         24.7383
650.32         25.1317
650.75        25.66614
651.18        26.31259
651.61        26.88078
652.03        27.32694
652.46        27.79849
652.89        28.38054
653.32        28.82434
653.74        29.33175
654.17        30.39106
654.60        31.03716
655.03        31.51072
655.46        32.31611
655.88        33.24118
656.31        34.73333
656.74        35.96222
657.16        36.01355
657.59         36.2319
658.02        36.15995
658.45        36.89892
658.87        37.75098
659.30        38.13946
659.73        38.66339
660.15        38.81353
660.58        39.20122
661.01        39.73861
661.44        40.48625
661.86        41.02875
662.29        41.34028
662.72        41.64314
663.14        41.99136
663.57        42.38296
664.00        42.81171
664.42        43.17648
664.85         43.4879
665.27        43.85669
665.70        44.25774
666.13        44.57938
666.55        44.81357
666.98        44.99933
667.41        45.17896
667.83        45.40697
668.26        45.69091
668.69        46.02376
669.11        46.35667
669.54        46.61523
669.96        46.79642
670.39        46.89775
670.82        46.93919
671.24        47.22269
671.67        47.69652
672.09        47.95452
672.52        48.02195
672.94        48.31139
673.37        48.76641
673.80        48.91299
674.22        48.80114
674.65        48.84354
675.07        49.08514
675.50        49.29549
675.92        49.46793
676.35        49.67199
676.77        49.90469
677.20        50.15397
677.62        50.39342
678.05        50.56073
678.47        50.64538
678.90        50.67537
679.32        50.69995
679.75        50.79261
680.17        50.96272
680.60        51.23115
681.02        51.52936
681.45        51.61754
681.87        51.51447
682.30        51.52778
682.72        51.69709
683.15        51.73453
683.57        51.66385
684.00        52.07475
684.42        52.26837
684.85         52.5648
685.27        52.73779
685.70        52.88948
686.12        52.99826
686.54        53.10025
686.97        53.21609
687.39        53.19468
687.82         53.0284
688.24        53.29597
688.66        53.40866
689.09        53.31073
689.51        53.69572
689.94        53.81355
690.36         53.9164
690.78        53.94099
691.21        53.93887
691.63        54.03811
692.06        54.21912
692.48        54.31781
692.90        54.34364
693.33        54.43075
693.75        54.57926
694.17         54.7299
694.60        54.87129
695.02        54.96399
695.44        55.01524
695.87        55.21228
696.29        55.50206
696.71        55.53894
697.14        55.38874
697.56         55.5257
697.98        55.87583
698.41         56.2136
698.83        56.13272
699.25        56.18396
699.68        56.27953
700.10        56.40411
700.52        56.55276
700.94        56.73676
701.37        56.89569
701.79        56.95642
702.21         56.9005
702.64        56.74634
703.06        56.55758
703.48        56.52557
703.90        56.69992
704.33        56.74424
704.75        57.12027
705.17         57.3171
705.59        57.43039
706.01        57.51859
706.44        57.42207
706.86        57.56401
707.28        57.72928
707.70        58.02693
708.12        58.32592
708.55        58.40764
708.97        58.29844
709.39        58.28899
709.81        58.41367
710.23        58.49403
710.66        58.53407
711.08        58.67679
711.50        58.86246
711.92        58.94674
712.34        58.91813
712.76        58.81796
713.19        58.70475
713.61        58.73244
714.03        58.91673
714.45        59.13808
714.87        59.45664
715.29        59.67328
715.71        59.79733
716.13        59.85349
716.56        59.85735
716.98         59.8983
717.40        59.97582
717.82        60.06894
718.24        60.16543
718.66        60.25034
719.08        60.31651
719.50        60.37138
719.92        60.41722
720.34        60.45209
720.76        60.47926
721.19        60.49673
721.61        60.51559
722.03        60.52723
722.45        60.53351
722.87        60.53366
723.29        60.55432
723.71        60.63609
724.13        60.78476
724.55        60.99327
724.97        61.20916
725.39        61.33535
725.81          61.351
726.23        61.29797
726.65        61.25667
727.07        61.25198
727.49        61.47729
727.91        61.75212
728.33        62.03719
728.75        62.17629
729.17        62.13317
729.59        61.96229
730.01        61.73684
730.43        61.58072
730.85        61.53331
731.27        61.55123
731.69        61.62566
732.10        61.74758
732.52        61.88541
732.94        62.08537
733.36        62.30532
733.78         62.3712
734.20        62.25653
734.62        62.43666
735.04        61.97851
735.46        62.20232
735.88        62.70013
736.30        62.55614
736.72        61.90781
737.13        62.04968
737.55        62.85211
737.97        63.01893
738.39        62.56188
738.81         62.3743
739.23         62.5451
739.65        62.80722
740.06        63.02808
740.48        63.10173
740.90        62.98008
741.32        62.85371
741.74        62.69591
742.16        62.63393
742.57        62.67646
742.99        62.80519
743.41        62.98378
743.83        63.12724
744.25        63.21468
744.67        63.27276
745.08        63.32331
745.50        63.36432
745.92        63.40708
746.34         63.4317
746.75        63.45257
747.17        63.47158
747.59         63.4858
748.01        63.56764
748.42         63.6675
748.84        63.53028
749.26        63.22584
749.68        63.16623
750.09        63.34031
750.51        63.38821
750.93        63.31618
751.35        63.40183
751.76        63.61711
752.18        63.73384
752.60        63.73432
753.01        63.70957
753.43        63.69059
753.85         63.7277
754.27        63.83095
754.68        64.02999
755.10        64.22852
755.52        64.29861
755.93         64.2538
756.35        64.30944
756.77        64.45373
757.18        64.54385
757.60        64.59723
758.02        64.58446
758.43        64.55048
758.85        64.78273
759.26        65.11643
759.68        64.98115
760.10        64.59699
760.51        63.77808
760.93        64.58622
761.34        64.64108
761.76        64.93163
762.18        64.74374
762.59        64.40535
763.01        64.55096
763.42        65.15322
763.84        65.45911
764.26        65.38414
764.67        65.12893
765.09        64.87325
765.50        64.89567
765.92         65.1671
766.33        65.26929
766.75        65.09828
767.16        64.89834
767.58        64.73251
768.00        64.68369
768.41        64.81415
768.83        65.19353
769.24         65.6484
769.66         65.7031
770.07        65.38321
770.49        65.23549
770.90        65.31204
771.32        65.30254
771.73        65.24168
772.15        65.26676
772.56        65.39348
772.97        65.65726
773.39        65.96426
773.80         66.0512
774.22         65.9301
774.63         66.0304
775.05        66.29104
775.46        66.35002
775.88         66.1665
776.29        65.99021
776.70        65.88506
777.12        65.86761
777.53        65.97243
777.95        66.16637
778.36        66.39584
778.77        66.54848
779.19        66.60232
779.60        66.61819
780.02        66.58826
780.43        66.56504
780.84        66.57548
781.26         66.4643
781.67        66.35912
782.09        66.78767
782.50        67.41982
782.91        67.84222
783.33         66.3921
783.74        66.56636
784.15        66.63838
784.57        66.96011
784.98        67.05539
785.39        67.02621
785.81        66.92896
786.22        67.07742
786.63        67.40613
787.04        67.48361
787.46        67.30531
787.87        67.09647
788.28        66.95405
788.70        66.91302
789.11        66.97953
789.52        67.17712
789.93        67.43946
790.35        67.57289
790.76        67.58969
791.17         67.6563
791.58        67.76512
792.00        67.73904
792.41        67.60074
792.82        67.51725
793.23        67.51465
793.65        67.42794
794.06         67.3744
794.47        67.72066
794.88        68.29079
795.29         68.7413
795.71        68.47536
796.12        68.38954
796.53        68.34613
796.94        67.95061
797.35        67.37378
797.76        67.41427
798.18        68.00875
798.59        68.31869
799.00        68.29237
799.41        68.26179
799.82        68.46307
800.23        68.45275
800.64        68.30036
801.06        68.04612
801.47        67.79394
801.88        67.64438
802.29        67.62331
802.70        67.70587
803.11        67.89115
803.52        67.99783
803.93        67.96972
804.34        68.20113
804.75        68.74452
805.17        67.96811
805.58         68.4826
805.99        68.47478
806.40        68.69523
806.81        69.07302
807.22        69.43739
807.63        69.28351
808.04        68.69725
808.45        68.41709
808.86        68.52699
809.27        68.60873
809.68        68.61043
810.09         68.6527
810.50        68.71452
810.91        68.74143
811.32        68.76592
811.73        68.84692
812.14        68.96906
812.55        69.13139
812.96        69.26266
813.37        69.12574
813.78        68.79311
814.19        68.67617
814.60        68.79929
815.01        68.85832
815.42        68.85722
815.83        69.00954
816.24        69.27294
816.65        69.44099
817.05        69.47407
817.46          69.384
817.87        69.26862
818.28        69.23338
818.69         69.3037
819.10        69.45023
819.51        69.59315
819.92         69.6031
820.33        69.46015
820.74        69.19169
821.14        68.91028
821.55        68.90206
821.96        69.15464
822.37        69.41652
822.78        69.64753
823.19        69.94661
823.60        70.27351
824.00        70.55624
824.41        70.68637
824.82          70.637
825.23        70.40996
825.64        70.01777
826.04        69.62746
826.45        69.48727
826.86        69.66585
827.27         70.0987
827.68        70.61726
828.08        70.95708
828.49        70.96547
828.90        70.75031
829.31         70.4313
829.72        70.21653
830.12        70.19427
830.53        70.25903
830.94        70.34478
831.35        70.31397
831.75        70.15051
832.16        69.86644
832.57         69.5755
832.97        69.42455
833.38        69.45375
833.79         69.6286
834.20        69.85725
834.60        70.00145
835.01        70.04238
835.42        70.00636
835.82        70.00239
836.23        70.14215
836.64        70.46921
837.04        70.94334
837.45        71.38893
837.86        71.62448
838.26        71.61343
838.67        71.40647
839.08        71.12398
839.48         70.9492
839.89        70.94191
840.29        71.04195
840.70        71.21241
841.11        71.39595
841.51        71.57742
841.92        71.74487
842.33        71.86739
842.73        71.87897
843.14        71.73215
843.54        71.48141
843.95        71.20605
844.35        71.06384
844.76        71.08047
845.17        71.19862
845.57        71.38303
845.98        71.52969
846.38        71.62118
846.79        71.67966
847.19        71.65638
847.60        71.42164
848.00        71.00171
848.41        70.40009
848.81        69.85085
849.22        69.66803
849.62        69.94965
850.03        70.58081
850.43         71.3145
850.84        71.66725
851.24        71.56403
851.65        71.06508
852.05        70.46988
852.46         70.2403
852.86        70.49678
853.27        71.06408
853.67        71.61246
854.07        71.87852
854.48        71.76292
854.88        71.41302
855.29        70.84962
855.69        70.31548
856.10        69.83968
856.50        69.45004
856.90        69.15478
857.31        68.99279
857.71        69.00538
858.12        69.14368
858.52        69.38187
858.92        69.53574
859.33         69.5387
859.73        69.44988
860.13        69.28751
860.54         69.1282
860.94        69.03624
861.34        68.95435
861.75        68.85197
862.15        68.74806
862.55        68.61452
862.96        68.48222
863.36        68.33463
863.76        68.12574
864.17        67.85438
864.57        67.55396
864.97        67.30505
865.38        67.21448
865.78        67.34748
866.18        67.65285
866.58         68.0114
866.99        68.22228
867.39         68.2426
867.79         68.0787
868.19        67.84874
868.60        67.70461
869.00        67.66906
869.40         67.7307
869.80        67.77706
870.21        67.61844
870.61        67.30157
871.01        66.86424
871.41        66.47011
871.81        66.33379
872.22        66.46811
872.62         66.8279
873.02        67.30093
873.42        67.65859
873.82        67.80758
874.22        67.81534
874.63        67.74912
875.03        67.69138
875.43        67.68202
875.83        67.68063
876.23        67.70908
876.63        67.81271
877.03        67.98637
877.44        68.21289
877.84        68.42564
878.24        68.47892
878.64        68.34175
879.04        68.06123
879.44        67.73001
879.84         67.4758
880.24        67.33205
880.64        67.27518
881.04        67.25641
881.44        67.19202
881.84         67.0558
882.24        66.85945
882.65        66.65552
883.05        66.62568
883.45        66.75871
883.85        67.01883
884.25        67.25391
884.65        67.24104
885.05        66.94607
885.45        66.42587
885.85        65.89723
886.25        65.73344
886.65        66.02271
887.05        66.65729
887.45        67.34858
887.85        67.65383
888.25        67.47795
888.65        66.94545
889.04        66.33331
889.44        66.15238
889.84        66.49422
890.24        67.17677
890.64        67.90217
891.04        68.20678
891.44        67.98368
891.84        67.41946
892.24        66.71896
892.64        66.19025
893.04        65.95105
893.44        65.91348
893.83        66.08083
894.23        66.39593
894.63        66.82898
895.03        67.36678
895.43        67.91362
895.83         68.3003
896.23        68.47359
896.63        68.46868
897.02        68.30707
897.42        68.07307
897.82        67.80294
898.22        67.49969
898.62        67.24425
899.01        67.17938
899.41        67.31145
899.81        67.60595
900.21        67.96991
900.61        68.23604
901.00        68.33464
901.40        68.32649
901.80        68.20938
902.20        68.00225
902.59        67.74698
902.99        67.43095
903.39        67.15414
903.79         67.0715
904.18        67.20561
904.58        67.51118
904.98        67.87746
905.38         68.1393
905.77        68.24089
906.17        68.22597
906.57        68.13121
906.96        68.04728
907.36        67.98492
907.76        67.93652
908.15        67.88131
908.55         67.7205
908.95        67.47636
909.34        67.16776
909.74        66.91917
910.14        66.85587
910.53        66.99612
910.93        67.27066
911.33        67.56306
911.72        67.67474
912.12        67.54789
912.52        67.29282
912.91        66.97491
913.31        66.70528
913.70        66.52032
914.10        66.35548
914.49        66.31893
914.89         66.5483
915.29        67.05408
915.68        67.78312
916.08        68.47166
916.47        68.69819
916.87        68.40862
917.26        67.71582
917.66        66.94278
918.05        66.57241
918.45        66.71917
918.84        67.26449
919.24        67.95238
919.64        68.43457
920.03        68.60758
920.42        68.56672
920.82        68.43893
921.21        68.41034
921.61        68.51878
922.00        68.69426
922.40        68.86487
922.79        68.99407
923.19         69.0248
923.58        69.03413
923.98         68.9676
924.37        68.78953
924.77        68.49345
925.16        68.06905
925.55        67.65805
925.95        67.50027
926.34        67.64538
926.74        68.03124
927.13        68.47305
927.52        68.56774
927.92        68.26994
928.31        67.69614
928.70        67.13807
929.10        67.04356
929.49        67.49797
929.89         68.3121
930.28        69.26827
930.67        69.86851
931.07        69.92895
931.46        69.62106
931.85         69.0556
932.24        68.44527
932.64        67.89005
933.03        67.33771
933.42        66.86478
933.82        66.59411
934.21        66.55196
934.60        66.75078
934.99        67.07388
935.39        67.27568
935.78        67.31744
936.17         67.2299
936.56        67.14973
936.96        67.30972
937.35        67.79095
937.74        68.45548
938.13        69.10439
938.53        69.47311
938.92        69.51276
939.31        69.28896
939.70        68.95629
940.09        68.78323
940.49        68.82167
940.88        69.02388
941.27        69.23164
941.66        69.20626
942.05        68.90699
942.44        68.44183
942.84        67.96402
943.23        67.65192
943.62        67.59107
944.01        67.70538
944.40        67.93926
944.79        68.19125
945.18        68.39806
945.57        68.58111
945.97        68.65445
946.36        68.57072
946.75         68.2961
947.14        67.83386
947.53        67.31244
947.92        66.96823
948.31        66.87922
948.70        67.01984
949.09        67.22897
949.48        67.23722
949.87        66.99577
950.26        66.58102
950.65         66.2134
951.04         66.2455
951.43        66.73602
951.82        67.55535
952.21        68.40588
952.60        68.78168
952.99        68.54039
953.38        67.84367
953.77        66.96889
954.16        66.33723
954.55        66.07228
954.94        66.06242
955.33        66.16794
955.72        66.15999
956.11        65.96024
956.50        65.63738
956.89        65.30245
957.28        65.12506
957.66        65.17937
958.05        65.40464
958.44        65.63579
958.83        65.62086
959.22        65.31095
959.61        64.75797
960.00        64.23933
960.39        64.19038
960.78        64.68387
961.16        65.62492
961.55        66.55085
961.94        66.75808
962.33         66.0893
962.72        64.81133
963.11        63.45183
963.49        62.77996
963.88        62.98146
964.27        63.85031
964.66        65.03288
965.04        65.89989
965.43        66.14265
965.82        65.97118
966.21        65.67093
966.60        65.69355
966.98        66.14942
967.37        66.84219
967.76        67.51089
968.15        67.67824
968.53        67.22762
968.92         66.3715
969.31        65.40517
969.69        64.72669
970.08        64.46489
970.47        64.53253
970.86        64.92854
971.24        65.64881
971.63        66.53501
972.02        67.53541
972.40        68.52477
972.79        69.19656
973.17        69.58719
973.56         69.6864
973.95        69.55662
974.33        69.29358
974.72        68.95216
975.11        68.50451
975.49         68.0244
975.88        67.66985
976.26        67.49129
976.65        67.48759
977.04         67.5311
977.42        67.35831
977.81        66.86707
978.19        66.09697
978.58        65.39061
978.96         65.2729
979.35        65.82932
979.74        66.90816
980.12         68.0886
980.51        68.47445
980.89        67.97314
981.28        66.75456
981.66         65.3053
982.05        64.58057
982.43        64.84571
982.82        65.74845
983.20        66.92519
983.59        67.63887
983.97         67.7804
984.35        67.56059
984.74        67.06556
985.12        66.42872
985.51        65.78213
985.89        65.11013
986.28        64.67114
986.66         64.9501
987.04        65.92812
987.43        67.43056
987.81        69.03714
988.20        69.89182
988.58        69.78741
988.96        68.96159
989.35        67.68051
989.73        66.46931
990.12        65.46805
990.50        64.45804
990.88        63.63134
991.27        63.41681
991.65        63.88292
992.03        65.00921
992.42        66.03967
992.80        66.25973
993.18        65.43333
993.56         63.6193
993.95        61.53936
994.33        60.84042
994.71        62.19246
995.10         64.6855
995.48        67.15285
995.86         68.3259
996.24        68.10098
996.63        66.75726
997.01        64.87746
997.39         63.7308
997.77        63.89886
998.15        65.03841
998.54        66.26844
998.92        66.37785
999.30        65.13232
999.68        62.91533
1000.06        60.66136
1000.45        60.01697
1000.83        61.46145
1001.21        64.30487
1001.59        67.40743
1001.97        69.16167
1002.35        69.18229
1002.73        67.94118
1003.12        65.95776
1003.50        64.27026
1003.88        63.51173
1004.26        63.29695
1004.64        63.60578
1005.02        64.42798
1005.40        65.66955
1005.78        67.47344
1006.16        69.25925
1006.54        69.90325
1006.92        69.10811
1007.30        67.04415
1007.69        64.75969
1008.07        63.96431
1008.45        65.11577
1008.83        67.70484
1009.21        70.40825
1009.59        71.26755
1009.97        69.79752
1010.35        66.32193
1010.73        62.01903
1011.11        59.94308
1011.49        61.47186
1011.86        65.69508
1012.24        70.49378
1012.62        73.25651
1013.00        73.43113
1013.38        71.87024
1013.76        69.47785
1014.14        67.72374
1014.52        67.15835
1014.90        67.29546
1015.28        67.89967
1015.66        68.56597
1016.04        69.04803
1016.41        69.65912
1016.79        70.13216
1017.17        70.34324
1017.55        70.30693
1017.93        70.06422
1018.31        69.73788
1018.69        69.58712
1019.06        69.68867
1019.44        69.88607
1019.82        70.24915
1020.20        70.87738
1020.58        71.64307
1020.95         72.4451
1021.33         72.7611
1021.71        71.82859
1022.09        69.61284
1022.46        66.28642
1022.84        62.67258
1023.22        60.10727
1023.60         59.1338
1023.97        59.51696
1024.35        60.97371
1024.73        61.84261
