SpectraSmart Spectrum 2.9.0.0
--------- Device Information -----------
Spectrum Name :  反射率_0
Saving Time :  2024/04/27 22:42:44
Spectro-Module Model Name : SE2030-DUVN
Spectro-Module Serial Number : OS361AC55029948
Wavelength Start : 200
Wavelength End : 1025
Wavelength Unit : Wavelength(nm)
Spectrum Unit : Reflectance(%)
-----------Spectrum Setting ------------
Integration Time : 20ms
Average : 10
Boxcar : 0
Background removal :  enabled
linearity correction :  enabled
SC :  disabled
Intensity correction :  disabled
DWT denoise :  enabled
savitzky-golay :  disabled
FFT :  disabled
Running average :  disabled
Kalman :  disabled
High pass :  disabled
---------------BEGIN--------------------
Wavelength(nm)             Reflectance(%)
200.29               0
200.75       -59.72679
201.21        -4.60293
201.67         36.3381
202.13        51.45314
202.58        50.31074
203.04        40.88613
203.50        30.60399
203.96        29.25282
204.42        36.87012
204.88        48.12824
205.34        58.13291
205.80        63.06923
206.26        62.61863
206.72        56.76722
207.18        45.54292
207.64         37.5878
208.10        40.18333
208.55        48.34504
209.01        52.97964
209.47        50.48937
209.93        38.87072
210.39        6.708512
210.85       -91.65877
211.31       -211.4492
211.77       -68.75597
212.23        24.87696
212.69        58.21926
213.14         69.3661
213.60        70.95381
214.06        66.91778
214.52        56.17093
214.98        45.29712
215.44        44.47225
215.90        48.19824
216.36        52.38525
216.81        55.65683
217.27        58.05895
217.73        60.84612
218.19        62.99046
218.65        62.15931
219.11        57.93598
219.57        50.68571
220.02        42.63462
220.48        40.70277
220.94        46.41502
221.40         56.2761
221.86        66.53254
222.32        73.85951
222.77        77.88476
223.23        79.73666
223.69        79.98569
224.15        79.03627
224.61        77.23151
225.06        74.56255
225.52        71.58703
225.98        69.32864
226.44        68.36154
226.90        68.21021
227.36         68.7744
227.81        69.99525
228.27        71.81377
228.73        74.19213
229.19        76.31486
229.65        76.44749
230.10        74.13307
230.56        70.38966
231.02        66.50594
231.48        64.34792
231.93        64.14151
232.39        65.26179
232.85        67.13638
233.31        69.07091
233.77        70.71073
234.22        72.27087
234.68         73.3422
235.14        73.34739
235.60        72.25807
236.05        70.08265
236.51        67.46012
236.97        66.12198
237.43        66.78313
237.88        69.15187
238.34        71.86321
238.80         73.6376
239.26        74.11816
239.71         73.4687
240.17        71.26093
240.63        68.62241
241.08        67.59465
241.54        67.70754
242.00        67.97095
242.46        67.30275
242.91        65.22426
243.37        60.63491
243.83        51.23623
244.28        38.55005
244.74          35.821
245.20        44.82568
245.66         53.1228
246.11        54.34042
246.57        48.94456
247.03        36.86322
247.48        17.66747
247.94         4.05827
248.40        9.600119
248.85        26.41067
249.31        44.57839
249.77        56.56922
250.22        62.29135
250.68        64.79202
251.14        65.42091
251.59        65.11228
252.05        64.25688
252.51        61.86534
252.96        58.15775
253.42        56.73113
253.88        58.80758
254.33        62.97201
254.79        66.01124
255.25        65.35117
255.70        62.04288
256.16        58.18213
256.62        55.91835
257.07        57.46439
257.53        61.94177
257.99        66.98876
258.44        70.70912
258.90        72.01994
259.35         70.9956
259.81        69.06438
260.27          66.842
260.72        65.05249
261.18        64.16694
261.63         63.5492
262.09        63.21672
262.55          62.774
263.00        62.08931
263.46        61.45554
263.91        60.82055
264.37        60.49069
264.83        60.36948
265.28        60.29066
265.74        60.20389
266.19        59.79985
266.65        59.14787
267.11        58.30183
267.56         57.3448
268.02        56.51957
268.47        55.84385
268.93        55.27491
269.38        54.79082
269.84        54.39656
270.30        54.04882
270.75        53.72985
271.21        53.33838
271.66        52.65976
272.12        51.69414
272.57        50.46744
273.03        49.17236
273.48        48.01358
273.94        47.12431
274.39        46.41009
274.85        45.83185
275.31        45.21429
275.76        44.49554
276.22        43.76784
276.67        43.05684
277.13        42.52798
277.58        42.12209
278.04        41.83499
278.49        41.48115
278.95        40.94418
279.40        40.15235
279.86        39.24913
280.31        38.32707
280.77        37.66651
281.22        37.25831
281.68        37.07012
282.13        36.93934
282.59        36.72068
283.04        36.34217
283.50        35.87396
283.95        35.37224
284.41        34.98274
284.86        34.70837
285.32        34.52936
285.77        34.33201
286.22        34.00877
286.68        33.56316
287.13        33.00687
287.59         32.4767
288.04        32.08607
288.50        31.89656
288.95        31.83544
289.41        31.82953
289.86        31.71136
290.32        31.47471
290.77        31.15662
291.22        30.86081
291.68        30.73436
292.13        30.78849
292.59        30.98132
293.04         31.2189
293.50        31.38841
293.95        31.45238
294.40        31.47215
294.86        31.50239
295.31        31.61494
295.77        31.84417
296.22        32.14572
296.68        32.53234
297.13         32.9998
297.58        33.53161
298.04        34.11856
298.49        34.68491
298.95        35.13678
299.40        35.45527
299.85        35.67099
300.31        35.87769
300.76        36.18939
301.21        36.63802
301.67        37.18169
302.12        37.71837
302.58         38.1454
303.03         38.4133
303.48        38.56824
303.94        38.68639
304.39        38.82687
304.84        39.02776
305.30        39.27679
305.75        39.49823
306.20        39.62554
306.66        39.66059
307.11         39.5982
307.57        39.54086
308.02        39.57306
308.47        39.72297
308.93        39.95621
309.38        40.14952
309.83        40.14866
310.29          39.941
310.74        39.57105
311.19        39.16541
311.65        38.92176
312.10        38.86898
312.55        38.94593
313.00         39.0675
313.46          39.103
313.91        39.00601
314.36         38.8253
314.82        38.57549
315.27        38.27462
315.72        37.94794
316.18        37.60054
316.63        37.26922
317.08        37.03785
317.53         36.9208
317.99        36.89299
318.44        36.91279
318.89        36.88967
319.35        36.79419
319.80        36.64862
320.25        36.46769
320.70        36.28535
321.16        36.10661
321.61        35.92346
322.06        35.73506
322.51        35.54768
322.97        35.35835
323.42        35.18703
323.87         35.0139
324.32        34.81115
324.78        34.57199
325.23        34.30973
325.68        34.05969
326.13        33.88752
326.59        33.79307
327.04        33.78089
327.49          33.777
327.94         33.6701
328.39        33.43344
328.85        33.08849
329.30        32.72667
329.75        32.48901
330.20         32.4174
330.66        32.45732
331.11        32.54418
331.56        32.51711
332.01        32.33551
332.46        32.05024
332.92        31.72229
333.37        31.49378
333.82         31.3976
334.27        31.38483
334.72        31.42742
335.17        31.48168
335.63        31.51279
336.08        31.55622
336.53        31.55768
336.98        31.43803
337.43        31.19458
337.88         30.8531
338.34        30.50904
338.79        30.33188
339.24        30.35955
339.69        30.53942
340.14        30.78385
340.59        30.94447
341.05        30.97103
341.50        30.91268
341.95        30.78616
342.40        30.62808
342.85        30.46329
343.30        30.27857
343.75        30.11187
344.20        30.02923
344.66        30.04468
345.11        30.14054
345.56        30.26512
346.01        30.32579
346.46        30.29695
346.91        30.20045
347.36        30.07966
347.81        30.00223
348.26        29.98782
348.72        30.02001
349.17        30.06007
349.62        30.04967
350.07        29.97312
350.52         29.8396
350.97        29.71113
351.42        29.68368
351.87        29.76916
352.32        29.93827
352.77        30.07837
353.22        30.02001
353.67        29.73851
354.13        29.30175
354.58         28.8354
355.03        28.59237
355.48        28.62901
355.93        28.87267
356.38        29.16241
356.83        29.24546
357.28        29.06432
357.73        28.69981
358.18         28.2929
358.63        28.06264
359.08        28.05489
359.53        28.18623
359.98        28.33841
360.43        28.33167
360.88        28.12206
361.33        27.77584
361.78        27.36572
362.23        27.03778
362.68        26.84308
363.13        26.67756
363.58        26.50305
364.03        26.59906
364.48        26.40138
364.93        26.36041
365.38        26.30979
365.83        26.25309
366.28        26.18073
366.73        26.09066
367.18        25.97973
367.63        25.83546
368.08        25.66043
368.53        25.46124
368.98        25.25428
369.43        25.06401
369.88        24.90046
370.33        24.76282
370.78        24.64156
371.23        24.52034
371.68        24.38935
372.13        24.24312
372.58        24.09599
373.03        23.96961
373.48        23.86999
373.93         23.8046
374.38        23.72499
374.83        23.55439
375.28        23.28903
375.72        22.94008
376.17        22.64002
376.62        22.55619
377.07        22.70146
377.52        22.99737
377.97        23.28623
378.42        23.32203
378.87        23.05807
379.32        22.59622
379.77        22.04935
380.22         21.5864
380.67        21.26465
381.11         21.0295
381.56        20.89564
382.01          20.885
382.46        20.98093
382.91        21.18403
383.36        21.38332
383.81        21.39945
384.26        21.20198
384.71        20.83361
385.15        20.42531
385.60        20.22635
386.05        20.27506
386.50        20.49586
386.95        20.75345
387.40        20.83521
387.85        20.69822
388.29        20.41382
388.74        20.10982
389.19        19.91348
389.64        19.85133
390.09        19.86347
390.54        19.90452
390.98        19.90467
391.43        19.85109
391.88        19.77452
392.33         19.6673
392.78        19.54579
393.23        19.42843
393.67        19.22573
394.12        19.00146
394.57        19.07078
395.02        19.10053
395.47        19.04127
395.91        18.83682
396.36        18.77214
396.81         18.8614
397.26        18.94746
397.71        18.99177
398.15        19.01096
398.60        19.01589
399.05        18.92919
399.50        18.79984
399.95        18.81796
400.39        18.93284
400.84        18.85438
401.29          18.599
401.74        18.38107
402.18        18.26599
402.63        18.28278
403.08        18.39487
403.53        18.43406
403.97        18.38324
404.42        18.35904
404.87         18.3658
405.32        18.37391
405.76        18.37972
406.21         18.3397
406.66        18.27346
407.11        18.30181
407.55        18.37845
408.00        18.30795
408.45        18.09293
408.90         17.8034
409.34        17.53889
409.79         17.5252
410.24        17.71366
410.68        17.79495
411.13        17.74254
411.58         17.7478
412.03        17.81796
412.47         17.8699
412.92        17.88729
413.37        17.89199
413.81         17.8789
414.26        17.85599
414.71        17.82233
415.15         17.7824
415.60        17.73057
416.05        17.66782
416.49        17.60146
416.94        17.53018
417.39        17.47681
417.83        17.47658
418.28        17.52506
418.73         17.6015
419.17        17.67272
419.62        17.68747
420.07        17.64203
420.51        17.56631
420.96         17.4689
421.41        17.38429
421.85        17.32115
422.30        17.18809
422.74        17.05583
423.19        17.24729
423.64        17.68376
424.08        17.89605
424.53        17.78785
424.98        17.71361
425.42        17.68549
425.87        17.37271
426.31        16.91387
426.76        16.88688
427.21        17.21936
427.65        17.27468
428.10        17.05895
428.54        17.01536
428.99        17.13966
429.44        17.34288
429.88        17.50067
430.33         17.2098
430.77        16.66336
431.22        16.59824
431.66        16.99543
432.11        17.29868
432.56        17.41033
433.00        17.48426
433.45         17.3758
433.89        17.00792
434.34        16.72005
434.78        15.94429
435.23        16.68063
435.67        17.27371
436.12         17.4833
436.57        17.51011
437.01        17.26158
437.46         17.1298
437.90        17.22043
438.35        17.41738
438.79        17.14567
439.24        17.06138
439.68        17.01852
440.13        16.98132
440.57        16.94236
441.02        17.04379
441.46        17.23704
441.91        17.11794
442.35        16.81529
442.80        17.06072
443.24        17.70183
443.69        17.74456
444.13        17.21427
444.58        16.97336
445.02        17.03298
445.47        16.94248
445.91        16.72383
446.36        16.64547
446.80        16.71344
447.24        16.84319
447.69        16.98871
448.13        17.12114
448.58         17.1953
449.02        17.14029
449.47        17.00252
449.91        16.93238
450.36        16.95392
450.80        16.98925
451.25        17.01962
451.69        17.04403
452.13        17.04875
452.58        17.02066
453.02        16.97261
453.47        16.93264
453.91        16.90434
454.36         16.9065
454.80        16.89866
455.24        16.79813
455.69        16.64291
456.13        16.48065
456.58        16.37311
457.02        16.47115
457.46        16.68619
457.91        16.70308
458.35        16.59828
458.79        16.59693
459.24        16.71961
459.68        16.80733
460.13         16.8477
460.57        16.79687
461.01        16.72976
461.46        16.67223
461.90        16.56103
462.34        16.48292
462.79        16.70043
463.23        16.75009
463.68        16.71091
464.12        16.66843
464.56        16.64046
465.01        16.67735
465.45        16.70214
465.89        16.59245
466.34        16.40644
466.78        16.23286
467.22         16.0966
467.67        16.37875
468.11        16.35426
468.55        16.42296
468.99        16.37214
469.44        16.37675
469.88        16.43056
470.32         16.4135
470.77         16.3539
471.21        16.35155
471.65        16.41988
472.10        16.53244
472.54        16.63655
472.98        16.67663
473.42        16.64667
473.87        16.52164
474.31         16.3689
474.75        16.44274
475.20        16.69986
475.64        16.79971
476.08        16.71482
476.52        16.72827
476.97        16.85103
477.41        16.75917
477.85         16.6361
478.29        16.74311
478.74        16.66766
479.18        16.59152
479.62        16.91467
480.06        16.98577
480.50        16.97412
480.95        16.88987
481.39        16.75306
481.83        16.95425
482.27        16.99603
482.72        16.99833
483.16        17.30656
483.60        17.40207
484.04        17.41006
484.48        17.40738
484.93        17.55998
485.37        17.48176
485.81         17.8855
486.25        18.24851
486.69        17.86691
487.14        17.39938
487.58        18.35625
488.02        18.41506
488.46        18.22925
488.90        18.58503
489.34        18.07931
489.79        17.93968
490.23        18.43979
490.67        18.63676
491.11        18.70314
491.55        18.74267
491.99        18.79996
492.43        18.89571
492.88        19.02516
493.32        19.12436
493.76        19.18788
494.20        19.29441
494.64        19.46349
495.08         19.6154
495.52        19.73829
495.96        19.98909
496.41        20.33627
496.85        20.25029
497.29        19.89982
497.73        20.08667
498.17        20.73091
498.61        21.12493
499.05        21.13894
499.49        21.10121
499.93        21.07141
500.37        20.99822
500.82        20.93176
501.26        21.00346
501.70        21.24446
502.14         21.1825
502.58        21.53484
503.02        21.67951
503.46        21.73112
503.90        21.73673
504.34        21.70765
504.78         21.7312
505.22        21.81284
505.66        21.89004
506.10        21.95601
506.54        22.06142
506.98          22.207
507.42        22.27326
507.86        22.42549
508.30        22.50852
508.74        22.57025
509.18        22.60539
509.62        22.62714
510.06        22.65586
510.50        22.69526
510.94        22.74242
511.38        22.78477
511.82        22.80196
512.26        22.79073
512.70        22.76079
513.14        22.73091
513.58         22.7203
514.02        22.73557
514.46        22.78899
514.90        22.86845
515.34        22.87276
515.78        22.92685
516.22        22.92888
516.66        22.93831
517.10        22.98458
517.54        23.07032
517.98        23.17831
518.42        23.27232
518.86         23.2993
519.30        23.24901
519.74        23.14346
520.18        23.01626
520.62        22.91847
521.06        22.86803
521.50        22.85293
521.93        22.86613
522.37        22.88611
522.81         22.9052
523.25        22.92348
523.69        22.93639
524.13        22.93614
524.57        22.91869
525.01        22.88382
525.45         22.8236
525.89        22.72801
526.32        22.59852
526.76        22.45218
527.20        22.31331
527.64        22.22255
528.08        22.18826
528.52        22.19534
528.96        22.22562
529.40        22.24858
529.83         22.2508
530.27        22.24227
530.71        22.21299
531.15        22.14964
531.59        22.05501
532.03        21.93275
532.46        21.81003
532.90         21.7448
533.34        21.74356
533.78        21.79089
534.22        21.85241
534.66        21.87322
535.09        21.83935
535.53        21.77385
535.97        21.69756
536.41        21.64749
536.85         21.6351
537.28        21.64797
537.72        21.67981
538.16        21.71753
538.60        21.75694
539.04        21.80991
539.47         21.8642
539.91        21.91302
540.35        21.95086
540.79        21.98236
541.22        22.02158
541.66        22.09403
542.10        22.20173
542.54        22.33583
542.97         22.4721
543.41        22.58607
543.85        22.66865
544.29        22.73168
544.72         22.7877
545.16        22.87332
545.60        22.98997
546.04        23.12615
546.47        23.27584
546.91        23.42471
547.35        23.56441
547.79        23.71032
548.22        23.84872
548.66        23.95216
549.10        24.03567
549.53        24.18985
549.97        24.41014
550.41        24.60552
550.84        24.76846
551.28        24.95655
551.72        25.15657
552.15        25.31736
552.59        25.44021
553.03        25.52884
553.46        25.60726
553.90        25.73335
554.34        25.91034
554.77        26.13045
555.21          26.346
555.65        26.48085
556.08        26.49543
556.52        26.47806
556.96        26.46343
557.39        26.54209
557.83         26.7085
558.27        26.82503
558.70        26.88336
559.14        26.96972
559.57        27.07351
560.01        27.17544
560.45        27.25784
560.88        27.27926
561.32        27.29597
561.75        27.37543
562.19        27.52434
562.63         27.7388
563.06         27.9466
563.50        27.94145
563.93        27.76671
564.37        27.73735
564.80        27.86486
565.24        27.99108
565.68        28.10166
566.11        28.23548
566.55        28.39107
566.98        28.57513
567.42        28.76479
567.85        28.84406
568.29        28.86274
568.72        28.91306
569.16         29.0026
569.60        29.17703
570.03        29.46067
570.47        29.46143
570.90        29.51111
571.34        30.24861
571.77        30.05156
572.21         30.2572
572.64        30.52301
573.08        30.43507
573.51         30.7232
573.95        30.83244
574.38        30.92542
574.82        30.90593
575.25        30.89058
575.69        30.79662
576.12        30.91149
576.56        31.22139
576.99        31.35436
577.42        31.23546
577.86        31.54542
578.29        31.35886
578.73        31.21403
579.16        31.14052
579.60        31.15215
580.03        31.07585
580.47         30.8851
580.90        30.81454
581.33        30.85701
581.77         30.8165
582.20        30.51181
582.64        30.38994
583.07        30.33995
583.51        30.26313
583.94        30.22321
584.37        30.12448
584.81        29.96859
585.24        29.82093
585.68        29.76929
586.11        29.49349
586.54        29.25037
586.98        29.37276
587.41        29.81457
587.85        29.22405
588.28         29.0111
588.71        29.17221
589.15        29.26032
589.58        28.94704
590.01        29.28615
590.45        29.33793
590.88        28.76665
591.31        28.69445
591.75        28.93167
592.18        28.99956
592.61        28.85604
593.05        29.21194
593.48        29.32459
593.91        28.88568
594.35         29.1403
594.78        29.45846
595.21        29.68776
595.65        29.77254
596.08        29.59504
596.51         29.8949
596.94        29.92705
597.38        30.24329
597.81        30.69387
598.24        30.51225
598.68        30.93805
599.11        31.59688
599.54        31.64849
599.97        31.72079
600.41        32.46619
600.84        32.79594
601.27        32.97673
601.70        33.24792
602.14        33.34414
602.57        33.94534
603.00        34.51669
603.43        34.98882
603.87        35.43133
604.30        35.60035
604.73        35.91469
605.16        36.69305
605.60        36.95688
606.03        37.54072
606.46        38.07595
606.89        38.22968
607.32        38.68526
607.76        39.26457
608.19        39.40558
608.62        39.76287
609.05        40.17749
609.48        40.58715
609.92        40.64486
610.35        41.68732
610.78        41.48508
611.21        41.68842
611.64         42.2449
612.07        42.46006
612.50         42.5205
612.94        42.71458
613.37        43.12272
613.80        43.30264
614.23        43.73521
614.66        44.01955
615.09        44.26266
615.52        44.53336
615.96        44.88682
616.39        44.83834
616.82        45.17276
617.25        45.68093
617.68        45.79818
618.11        46.06264
618.54        46.26515
618.97        46.51251
619.40        46.75925
619.84        47.08905
620.27        47.13518
620.70        47.22456
621.13        47.25674
621.56        47.40649
621.99        47.65969
622.42        47.53628
622.85        47.51711
623.28        47.68831
623.71        47.79274
624.14        47.59292
624.57        47.68752
625.00        48.00013
625.43        47.67171
625.86        47.71697
626.29        47.82443
626.72        47.57841
627.15         47.4584
627.58        47.21601
628.01        47.09753
628.44        46.62458
628.87        46.48776
629.30        46.51555
629.73        46.10584
630.16        45.53815
630.59        45.47487
631.02        45.15448
631.45        44.81426
631.88        44.48762
632.31        44.19658
632.74        43.69033
633.17        43.39623
633.60        42.97155
634.03        42.54388
634.46        42.11019
634.89        41.67426
635.32        41.21887
635.75        40.74634
636.18        40.30261
636.61        39.88815
637.04         39.4414
637.47        38.98604
637.89        38.64182
638.32        38.37273
638.75        38.05672
639.18        37.68743
639.61        37.33099
640.04        37.00687
640.47        36.72618
640.90        36.49564
641.33        36.29681
641.76        36.10327
642.18        35.96191
642.61        35.72428
643.04        35.51593
643.47        35.32767
643.90         35.2122
644.33        35.18216
644.76        35.22665
645.18        35.31845
645.61        35.40682
646.04        35.47825
646.47        35.54194
646.90        35.63173
647.33        35.79819
647.75        36.05779
648.18        36.41005
648.61        36.79752
649.04        37.14015
649.47        37.43272
649.89        37.64765
650.32        37.87573
650.75        38.41328
651.18        39.20326
651.61        39.82151
652.03        40.18847
652.46        40.57852
652.89        41.08166
653.32        41.32462
653.74        41.60332
654.17         42.4747
654.60        43.13097
655.03          43.345
655.46        43.73478
655.88        44.64551
656.31        45.41409
656.74         46.8315
657.16        47.01712
657.59        47.34241
658.02        46.71779
658.45        47.63899
658.87        47.75491
659.30        47.98934
659.73        48.13335
660.15        48.43689
660.58        48.80927
661.01        49.30767
661.44        49.82523
661.86        50.11868
662.29         50.2159
662.72         50.3871
663.14        50.68068
663.57        50.97336
664.00         51.2436
664.42        51.46652
664.85        51.64693
665.27        51.83237
665.70        52.02234
666.13        52.18619
666.55        52.32839
666.98        52.45987
667.41        52.60184
667.83        52.77911
668.26        52.99009
668.69        53.23738
669.11        53.48802
669.54        53.69845
669.96        53.86858
670.39        53.95037
670.82        54.00108
671.24        54.24562
671.67        54.63758
672.09        54.82349
672.52        54.82447
672.94        54.94271
673.37        55.16986
673.80        55.24651
674.22        55.20315
674.65        55.22546
675.07        55.34723
675.50        55.47038
675.92        55.59767
676.35        55.75317
676.77        55.93451
677.20        56.13389
677.62         56.3368
678.05        56.50036
678.47        56.61737
678.90        56.71292
679.32        56.79776
679.75        56.90161
680.17        57.03074
680.60        57.17782
681.02        57.33708
681.45        57.48809
681.87        57.63508
682.30        57.75359
682.72        57.84901
683.15        57.98874
683.57        58.15295
684.00        58.15431
684.42        58.05812
684.85        58.13112
685.27        58.38477
685.70         58.6865
686.12        58.96335
686.54        59.17679
686.97        59.28591
687.39        59.30622
687.82        59.28931
688.24        59.20526
688.66        59.36832
689.09        59.50425
689.51        59.67231
689.94        59.80973
690.36        59.91441
690.78        59.95279
691.21        59.96105
691.63        60.10715
692.06        60.34633
692.48        60.39447
692.90        60.28754
693.33        60.29554
693.75        60.43423
694.17        60.57332
694.60        60.67757
695.02         60.7056
695.44        60.76882
695.87        60.76154
696.29        60.77079
696.71        60.88212
697.14        61.08887
697.56        61.34631
697.98         61.5885
698.41        61.80488
698.83        61.96407
699.25        62.07079
699.68         62.1285
700.10        62.21068
700.52        62.31991
700.94        62.43606
701.37        62.53469
701.79        62.61181
702.21        62.64789
702.64         62.6673
703.06        62.67636
703.48        62.70067
703.90        62.75459
704.33        62.82559
704.75        62.91987
705.17        63.02725
705.59        63.13951
706.01         63.2331
706.44        63.30994
706.86        63.47329
707.28         63.5402
707.70        63.69218
708.12        63.85218
708.55         63.8616
708.97        63.76216
709.39        63.82916
709.81        64.05185
710.23        64.17503
710.66        64.18047
711.08        64.23566
711.50        64.32239
711.92        64.35995
712.34        64.35171
712.76        64.32563
713.19        64.30166
713.61        64.35649
714.03        64.48399
714.45        64.65789
714.87        64.85695
715.29        65.04906
715.71        65.21866
716.13        65.38067
716.56        65.49917
716.98        65.56545
717.40        65.56908
717.82        65.56317
718.24        65.57793
718.66        65.62681
719.08        65.71889
719.50        65.85602
719.92        66.02094
720.34        66.17068
720.76        66.28839
721.19        66.38027
721.61        66.43321
722.03        66.39632
722.45        66.27062
722.87        66.07336
723.29        65.88134
723.71         65.8054
724.13        65.87348
724.55        66.08662
724.97        66.37798
725.39        66.48869
725.81         66.6086
726.23        66.59019
726.65        66.56226
727.07        66.62026
727.49        66.78895
727.91         67.0275
728.33        67.27419
728.75        67.43686
729.17        67.48604
729.59        67.45151
730.01         67.3782
730.43        67.33632
730.85        67.34793
731.27        67.39188
731.69        67.44234
732.10        67.47351
732.52        67.46571
732.94        67.45174
733.36        67.43336
733.78        67.49571
734.20        67.37655
734.62        67.72618
735.04        67.37123
735.46        67.88631
735.88        68.22205
736.30        68.15015
736.72        67.62885
737.13        67.63061
737.55        68.07116
737.97        68.41682
738.39        68.13809
738.81        67.93063
739.23        67.78461
739.65        68.06142
740.06         68.5836
740.48        68.77115
740.90        68.55946
741.32        68.35823
741.74        68.19564
742.16        68.19073
742.57        68.35571
742.99        68.72825
743.41        69.15279
743.83        69.22287
744.25        68.95601
744.67         68.7451
745.08        68.70049
745.50        68.67012
745.92         68.7049
746.34        68.94439
746.75        69.27488
747.17        69.43716
747.59        69.38404
748.01        69.13703
748.42        68.84945
748.84        68.83936
749.26        69.08864
749.68        69.38075
750.09        69.58559
750.51        69.45135
750.93        69.10245
751.35        69.16761
751.76        69.61192
752.18        69.77061
752.60        69.60643
753.01        69.61275
753.43        69.75088
753.85         69.6787
754.27        69.75587
754.68        69.90992
755.10        70.22234
755.52        69.80898
755.93        69.78442
756.35        69.66803
756.77        69.76444
757.18        69.89448
757.60        70.10235
758.02        70.24052
758.43        70.14211
758.85        70.95585
759.26        70.35287
759.68        70.08696
760.10        70.33851
760.51        69.57353
760.93        70.34838
761.34        69.72262
761.76        70.88078
762.18        70.77692
762.59        70.33453
763.01        70.43468
763.42        71.06937
763.84        71.29827
764.26        71.10162
764.67        70.87686
765.09        70.76624
765.50        71.07533
765.92        71.65202
766.33        71.53171
766.75        70.71929
767.16        70.66615
767.58        70.72555
768.00        70.96759
768.41        71.12846
768.83        71.23862
769.24        71.28035
769.66        71.38961
770.07        71.51811
770.49        71.48788
770.90        71.32587
771.32        71.20218
771.73        71.15147
772.15         71.1093
772.56        71.10972
772.97        71.15152
773.39        71.13758
773.80        71.52374
774.22        71.14859
774.63         71.4083
775.05        71.86098
775.46        72.11525
775.88         72.0905
776.29        72.06873
776.70        72.08667
777.12        72.07799
777.53        72.07977
777.95        72.08247
778.36        72.09798
778.77         72.1426
779.19        72.19101
779.60        72.28166
780.02        72.36765
780.43        72.44502
780.84          72.504
781.26        72.42928
781.67        72.33212
782.09        72.54723
782.50        72.89473
782.91        73.14668
783.33        72.48309
783.74        72.36348
784.15        72.56281
784.57        72.67582
784.98        72.67866
785.39        72.73689
785.81        72.84411
786.22        72.94388
786.63        73.03139
787.04        73.13356
787.46        73.25947
787.87        73.38597
788.28        73.49037
788.70        73.54683
789.11        73.54076
789.52        73.44965
789.93        73.33505
790.35         73.4076
790.76         73.6296
791.17        73.65921
791.58        73.53989
792.00        73.49197
792.41        73.51907
792.82        73.88869
793.23        74.01998
793.65        73.83939
794.06        73.42513
794.47        73.71688
794.88        74.50594
795.29        75.11843
795.71        74.70559
796.12        74.59291
796.53        74.60082
796.94        74.42717
797.35        74.14538
797.76        74.13875
798.18        74.39454
798.59        74.53753
799.00        74.54498
799.41        74.60346
799.82        74.70219
800.23        74.74305
800.64        74.71862
801.06        74.63197
801.47        74.53569
801.88        74.44044
802.29         74.3655
802.70        74.31189
803.11        74.29451
803.52        74.33556
803.93        74.43167
804.34        74.56615
804.75        74.72818
805.17        74.86833
805.58        74.99638
805.99        75.15044
806.40        75.28242
806.81        75.20001
807.22        74.94701
807.63        74.78808
808.04        74.78182
808.45        74.79827
808.86        74.84313
809.27         75.0465
809.68        75.29923
810.09        75.32856
810.50        75.09402
810.91        74.68073
811.32        74.25861
811.73          74.125
812.14        74.35384
812.55         74.8037
812.96        75.32398
813.37        75.76397
813.78        75.97865
814.19         75.7969
814.60         75.3535
815.01        75.07413
815.42        75.03047
815.83        75.01861
816.24        75.03429
816.65        75.15241
817.05         75.3598
817.46        75.60503
817.87        75.84466
818.28        75.95073
818.69        75.90112
819.10        75.72876
819.51         75.5033
819.92        75.36343
820.33        75.35964
820.74        75.44259
821.14        75.57443
821.55        75.74851
821.96        75.91534
822.37        76.04656
822.78        76.12008
823.19         76.1312
823.60        76.07636
824.00        75.96381
824.41        75.78263
824.82        75.62722
825.23        75.52558
825.64         75.4687
826.04        75.49099
826.45        75.59978
826.86        75.79581
827.27         76.0668
827.68        76.35129
828.08        76.57704
828.49        76.64663
828.90         76.6115
829.31        76.51208
829.72        76.42975
830.12        76.41379
830.53          76.393
830.94        76.37186
831.35         76.3184
831.75        76.25003
832.16        76.14838
832.57        76.04139
832.97        75.93176
833.38        75.82645
833.79        75.73598
834.20        75.69992
834.60        75.77379
835.01         75.9711
835.42        76.25812
835.82         76.5934
836.23        76.82028
836.64        76.91906
837.04           76.94
837.45        76.87034
837.86        76.79945
838.26        76.76776
838.67        76.73859
839.08        76.73007
839.48        76.75262
839.89        76.80417
840.29        76.88765
840.70        76.98656
841.11        77.07187
841.51        77.15023
841.92          77.184
842.33         77.1854
842.73        77.17521
843.14        77.10802
843.54        77.00793
843.95        76.87804
844.35        76.74521
844.76        76.61095
845.17        76.48676
845.57        76.37833
845.98        76.24672
846.38         76.1214
846.79          75.999
847.19        75.93025
847.60         75.9408
848.00        76.05554
848.41        76.21417
848.81        76.42438
849.22        76.62144
849.62         76.8157
850.03        76.99364
850.43        77.12576
850.84        77.08909
851.24        76.91602
851.65        76.55418
852.05         76.2085
852.46        76.13389
852.86        76.38055
853.27        76.88395
853.67        77.30992
854.07         77.3813
854.48        77.01178
854.88        76.32922
855.29        75.48517
855.69        75.00107
856.10        74.95699
856.50        75.30358
856.90        75.78825
857.31        76.03186
857.71        75.97424
858.12        75.66977
858.52        75.32324
858.92        75.13905
859.33        75.16247
859.73        75.34837
860.13        75.55309
860.54        75.56391
860.94        75.36103
861.34         74.9984
861.75        74.56696
862.15        74.25816
862.55        74.10101
862.96        74.06138
863.36        74.08179
863.76        74.05623
864.17        73.94569
864.57        73.79171
864.97        73.66605
865.38        73.65826
865.78        73.82935
866.18          74.125
866.58        74.40443
866.99        74.44182
867.39         74.2182
867.79        73.77421
868.19        73.30237
868.60         73.0508
869.00        73.06158
869.40        73.29498
869.80        73.60043
870.21        73.70181
870.61        73.59731
871.01         73.3292
871.41        73.03549
871.81        72.90622
872.22        72.95633
872.62        73.14233
873.02        73.41302
873.42        73.66233
873.82        73.83692
874.22        73.98383
874.63        74.09759
875.03        74.13498
875.43        74.11902
875.83        74.04722
876.23         74.0064
876.63        74.15505
877.03         74.5009
877.44        74.95499
877.84        75.38615
878.24        75.54119
878.64        75.35529
879.04        74.93647
879.44        74.36845
879.84        73.74913
880.24        73.14569
880.64        72.56667
881.04        72.11143
881.44        71.95345
881.84        72.12166
882.24        72.53387
882.65        73.07803
883.05        73.65198
883.45        74.11806
883.85        74.49158
884.25        74.63947
884.65        74.37889
885.05        73.73135
885.45         72.7749
885.85        71.80338
886.25        71.34066
886.65         71.5208
887.05        72.17706
887.45        73.04472
887.85         73.6982
888.25        74.00143
888.65        74.07962
889.04        73.95634
889.44        73.72357
889.84        73.42406
890.24         73.0112
890.64        72.62193
891.04        72.49426
891.44        72.66742
891.84        73.10418
892.24        73.59193
892.64        73.76768
893.04        73.56355
893.44        73.09096
893.83        72.60695
894.23        72.46844
894.63        72.77197
895.03        73.35651
895.43        74.01069
895.83        74.38998
896.23        74.40202
896.63        74.19994
897.02        73.84548
897.42        73.46079
897.82        73.10064
898.22        72.72414
898.62        72.48501
899.01        72.65965
899.41        73.24946
899.81        74.17686
900.21        75.13679
900.61        75.61263
901.00        75.46788
901.40        74.87044
901.80        74.08183
902.20        73.54612
902.59        73.41212
902.99         73.5381
903.39        73.83125
903.79        74.11935
904.18         74.3223
904.58        74.51034
904.98        74.66763
905.38        74.76641
905.77        74.79401
906.17        74.73427
906.57        74.61153
906.96        74.51124
907.36         74.4339
907.76        74.39931
908.15        74.36375
908.55        74.17093
908.95        73.83929
909.34        73.39912
909.74        73.03838
910.14        72.98444
910.53        73.27568
910.93        73.81374
911.33        74.39708
911.72        74.67958
912.12        74.56606
912.52        74.20724
912.91        73.76285
913.31        73.49181
913.70        73.45913
914.10         73.5668
914.49        73.83181
914.89        74.21308
915.29        74.67361
915.68        75.20274
916.08        75.66216
916.47        75.83467
916.87        75.69521
917.26        75.27022
917.66        74.72871
918.05         74.3141
918.45        74.09206
918.84        74.04394
919.24        74.03819
919.64        73.93047
920.03        73.71185
920.42        73.44915
920.82        73.25628
921.21        73.28726
921.61        73.55493
922.00        73.99383
922.40        74.51691
922.79        75.05737
923.19        75.50342
923.58        75.88636
923.98        76.08241
924.37         75.9724
924.77        75.55032
925.16        74.85518
925.55        74.08638
925.95        73.59476
926.34        73.49046
926.74        73.67976
927.13        74.04626
927.52        74.27676
927.92         74.3088
928.31        74.22872
928.70        74.12373
929.10        74.11578
929.49        74.23697
929.89        74.38343
930.28        74.59892
930.67        74.85033
931.07        75.09361
931.46        75.36673
931.85        75.54096
932.24        75.45345
932.64        75.09193
933.03        74.50573
933.42         73.9007
933.82        73.60366
934.21        73.70094
934.60         74.1312
934.99        74.67032
935.39        74.90839
935.78        74.77322
936.17         74.3529
936.56        73.91484
936.96        73.90706
937.35        74.45889
937.74         75.3493
938.13        76.23663
938.53        76.64555
938.92        76.47807
939.31        75.87613
939.70        75.08388
940.09        74.53174
940.49        74.34963
940.88        74.45508
941.27        74.67097
941.66        74.72871
942.05        74.56234
942.44         74.2788
942.84        74.01514
943.23        73.92194
943.62        74.06313
944.01         74.3569
944.40        74.69521
944.79        74.90239
945.18        74.91231
945.57        74.77852
945.97        74.53172
946.36        74.28693
946.75        74.05447
947.14        73.81453
947.53        73.58984
947.92         73.4277
948.31        73.33958
948.70        73.32163
949.09        73.34892
949.48        73.36514
949.87        73.35979
950.26        73.36275
950.65        73.36207
951.04        73.34585
951.43        73.31135
951.82        73.22604
952.21        73.17141
952.60        73.29444
952.99        73.59894
953.38        74.03666
953.77        74.38361
954.16        74.29641
954.55        73.72647
954.94        72.78287
955.33        71.75885
955.72         71.1447
956.11        71.08236
956.50        71.45944
956.89        72.01871
957.28        72.28459
957.66        72.13796
958.05        71.70447
958.44        71.21405
958.83        71.03144
959.22        71.22688
959.61        71.61156
960.00        72.03269
960.39         72.2712
960.78        72.24454
961.16        72.08348
961.55        71.68049
961.94        70.96815
962.33        70.02386
962.72        68.94271
963.11        68.02876
963.49        67.71694
963.88        68.07962
964.27        68.99741
964.66        70.20458
965.04        71.20263
965.43        71.70598
965.82        71.86249
966.21        71.80029
966.60        71.76578
966.98        71.84122
967.37        71.87234
967.76        71.86824
968.15        71.83801
968.53        71.80371
968.92        71.85259
969.31        71.87086
969.69        71.63014
970.08        71.11614
970.47        70.38973
970.86        69.86699
971.24        70.27245
971.63        71.61086
972.02        73.56837
972.40        75.52052
972.79        76.49444
973.17        76.40759
973.56        75.45619
973.95        74.12735
974.33        73.26344
974.72        73.14793
975.11        73.55277
975.49        74.11471
975.88        74.24472
976.26        73.78949
976.65        72.95971
977.04        72.04813
977.42          71.505
977.81        71.42387
978.19        71.60628
978.58        72.01691
978.96        72.53921
979.35        73.03515
979.74        73.58335
980.12        73.98963
980.51         73.6988
980.89        72.76731
981.28        71.25807
981.66        69.71704
982.05         69.1922
982.43        69.94213
982.82            71.6
983.20        73.60277
983.59        74.90475
983.97        75.30674
984.35        75.02589
984.74        74.28838
985.12         73.5237
985.51        72.93234
985.89        72.42517
986.28        72.04323
986.66        71.92463
987.04         72.0389
987.43        72.36925
987.81        72.83549
988.20        73.15997
988.58        73.29862
988.96        73.29118
989.35        73.10534
989.73        72.81319
990.12        72.40437
990.50         71.8072
990.88        71.19006
991.27        70.95888
991.65        71.22058
992.03        71.88778
992.42        72.46322
992.80        72.54839
993.18        71.95596
993.56        70.75492
993.95        69.32977
994.33        68.54705
994.71         68.8828
995.10        69.87975
995.48        71.02258
995.86        71.67175
996.24        71.76617
996.63        71.46267
997.01         71.0219
997.39        70.88905
997.77        71.22137
998.15        71.78941
998.54        72.30074
998.92        72.41346
999.30        72.04484
999.68        71.36752
1000.06        70.49894
1000.45        69.61389
1000.83        68.92402
1001.21        68.34026
1001.59        68.01332
1001.97        68.13295
1002.35        68.73373
1002.73        69.90106
1003.12        71.24142
1003.50        71.73408
1003.88        71.15314
1004.26        69.73647
1004.64        68.39388
1005.02        68.32685
1005.40        69.66328
1005.78        72.09532
1006.16        74.62532
1006.54        75.44048
1006.92        74.05192
1007.30        70.99747
1007.69        67.60197
1008.07        65.99887
1008.45        66.79758
1008.83        69.24854
1009.21        72.09522
1009.59        73.52076
1009.97        73.02837
1010.35        71.06854
1010.73        68.21938
1011.11          66.077
1011.49        65.58441
1011.86          66.338
1012.24        67.76138
1012.62        69.32982
1013.00        70.80252
1013.38        72.42749
1013.76        73.92673
1014.14        74.74905
1014.52        74.78826
1014.90        74.05466
1015.28        73.02721
1015.66        72.76859
1016.04        73.54897
1016.41        75.07023
1016.79        76.52627
1017.17        77.07431
1017.55        76.53363
1017.93        75.34231
1018.31        73.77788
1018.69        72.17346
1019.06        70.80247
1019.44        69.62196
1019.82        69.04912
1020.20        69.93293
1020.58        72.20054
1020.95        75.07183
1021.33        77.91505
1021.71        79.99797
1022.09          81.134
1022.46        81.61863
1022.84        80.86724
1023.22        77.67939
1023.60        71.79012
1023.97        62.89988
1024.35        53.26404
1024.73        48.09611
