SpectraSmart Spectrum 2.9.0.0
--------- Device Information -----------
Spectrum Name :  反射率_0
Saving Time :  2024/04/27 22:17:00
Spectro-Module Model Name : SE2030-DUVN
Spectro-Module Serial Number : OS361AC55029948
Wavelength Start : 200
Wavelength End : 1025
Wavelength Unit : Wavelength(nm)
Spectrum Unit : Reflectance(%)
-----------Spectrum Setting ------------
Integration Time : 20ms
Average : 10
Boxcar : 0
Background removal :  enabled
linearity correction :  enabled
SC :  disabled
Intensity correction :  disabled
DWT denoise :  enabled
savitzky-golay :  disabled
FFT :  disabled
Running average :  disabled
Kalman :  disabled
High pass :  disabled
---------------BEGIN--------------------
Wavelength(nm)             Reflectance(%)
200.29               0
200.75        61.49464
201.21        48.69904
201.67        38.91648
202.13        35.48444
202.58        36.11264
203.04        39.19133
203.50        44.27447
203.96        50.14565
204.42        55.69212
204.88        60.84011
205.34        65.34611
205.80        69.71444
206.26        74.52486
206.72        80.03584
207.18        86.14948
207.64        88.21005
208.10        83.77453
208.55        78.25957
209.01         72.4911
209.47        64.64682
209.93        50.93496
210.39         18.2762
210.85       -75.97958
211.31       -178.1862
211.77       -33.44807
212.23        55.15218
212.69        84.98468
213.14        92.89842
213.60        90.19925
214.06        78.37016
214.52        54.31559
214.98        32.05118
215.44        32.32253
215.90        43.35663
216.36        54.11721
216.81        60.42873
217.27        63.28011
217.73        65.35497
218.19        66.25952
218.65        64.55182
219.11        60.08842
219.57         52.5897
220.02        44.19831
220.48        41.92762
220.94        47.28297
221.40        57.05749
221.86        66.89692
222.32        72.67565
222.77        74.35684
223.23        73.62761
223.69        71.87354
224.15        70.35926
224.61        69.37988
225.06        68.47298
225.52        67.62851
225.98        66.62755
226.44        65.61472
226.90        64.67406
227.36        64.13351
227.81         64.1611
228.27        64.65408
228.73        65.47153
229.19        65.78203
229.65        64.08418
230.10        60.17621
230.56        55.11851
231.02        50.42186
231.48        48.13108
231.93        48.40768
232.39        50.53676
232.85        53.47086
233.31        55.82386
233.77        57.20745
234.22        58.08001
234.68        58.57378
235.14        58.96087
235.60        59.38028
236.05        59.66002
236.51        60.00245
236.97        60.79584
237.43        62.06517
237.88        63.81638
238.34        65.38618
238.80        66.53613
239.26        67.26662
239.71        67.64799
240.17        67.53048
240.63        67.11134
241.08        66.88489
241.54        66.77779
242.00        66.60024
242.46        65.85933
242.91        64.31175
243.37        61.05266
243.83        55.35665
244.28        51.83254
244.74        60.03405
245.20        74.01615
245.66        82.81998
246.11         85.3268
246.57        83.57996
247.03        77.12696
247.48         64.8911
247.94        52.50393
248.40        48.94062
248.85        52.57314
249.31         59.9633
249.77         67.4127
250.22        73.37147
250.68           78.34
251.14        81.80605
251.59        83.37244
252.05        83.40889
252.51        81.54002
252.96        77.53899
253.42        73.93502
253.88        72.64767
254.33        73.36282
254.79        74.52415
255.25        74.16135
255.70        72.46655
256.16        70.77113
256.62        70.13759
257.07        71.65204
257.53          74.887
257.99        78.27275
258.44        80.43529
258.90        80.77417
259.35        79.27261
259.81        77.16622
260.27        74.94746
260.72        73.24583
261.18        72.49442
261.63        71.98946
262.09        71.75301
262.55        71.32889
263.00        70.56526
263.46        69.80542
263.91        68.93678
264.37         68.2382
264.83        67.65238
265.28        67.06868
265.74        66.56762
266.19        65.97012
266.65        65.35281
267.11        64.68544
267.56        63.96613
268.02        63.31417
268.47         62.6903
268.93        62.08615
269.38        61.45515
269.84          60.773
270.30        60.02015
270.75        59.21024
271.21        58.33477
271.66        57.31824
272.12        56.19277
272.57        54.93283
273.03        53.69538
273.48        52.61415
273.94        51.78441
274.39        51.11999
274.85        50.52476
275.31        49.73214
275.76        48.68947
276.22        47.53933
276.67        46.41574
277.13        45.65455
277.58        45.21601
278.04        45.03897
278.49        44.84892
278.95        44.40704
279.40        43.60596
279.86        42.63602
280.31        41.61923
280.77        40.88671
281.22        40.44274
281.68        40.24323
282.13        40.11745
282.59        39.92445
283.04        39.58551
283.50        39.17356
283.95        38.74425
284.41        38.44513
284.86        38.27081
285.32        38.20259
285.77         38.1039
286.22        37.84286
286.68        37.42686
287.13         36.8772
287.59        36.36287
288.04        36.04186
288.50        35.98103
288.95        36.07747
289.41        36.24018
289.86        36.26593
290.32        36.14358
290.77        35.93211
291.22        35.72017
291.68        35.62744
292.13        35.67802
292.59        35.85099
293.04        36.13185
293.50        36.53632
293.95        37.03609
294.40        37.63535
294.86        38.28746
295.31        38.90419
295.77        39.47358
296.22        39.99474
296.68        40.51398
297.13        41.08426
297.58        41.72041
298.04        42.40105
298.49        43.08075
298.95         43.7268
299.40        44.32289
299.85        44.89065
300.31        45.47531
300.76        46.09828
301.21        46.76739
301.67         47.4724
302.12        48.13617
302.58        48.71413
303.03        49.16985
303.48        49.54156
303.94        49.90788
304.39        50.32028
304.84        50.81189
305.30        51.36393
305.75        51.89106
306.20        52.32628
306.66        52.66869
307.11        52.91247
307.57        53.12384
308.02        53.31733
308.47        53.52319
308.93        53.73122
309.38        53.90481
309.83        54.04096
310.29        54.14624
310.74        54.20879
311.19        54.23616
311.65        54.22808
312.10        54.16708
312.55        54.06363
313.00        53.93738
313.46        53.82067
313.91        53.71202
314.36        53.61146
314.82        53.49333
315.27        53.31142
315.72        53.06248
316.18        52.77466
316.63        52.47611
317.08        52.23652
317.53        52.06945
317.99        51.94534
318.44        51.84096
318.89        51.70022
319.35        51.50624
319.80        51.28199
320.25        51.02919
320.70        50.75855
321.16        50.46756
321.61         50.1528
322.06        49.83769
322.51        49.56713
322.97        49.34126
323.42        49.17674
323.87        48.99892
324.32        48.69301
324.78        48.23695
325.23        47.67738
325.68        47.13198
326.13        46.80837
326.59        46.73377
327.04        46.86809
327.49        47.04605
327.94         47.0079
328.39        46.68079
328.85        46.12686
329.30        45.49081
329.75        44.98743
330.20        44.70022
330.66         44.5525
331.11        44.50563
331.56        44.42889
332.01        44.27822
332.46        44.09611
332.92        43.88866
333.37         43.7135
333.82        43.56783
334.27        43.42463
334.72        43.28074
335.17        43.14251
335.63        42.99699
336.08        42.87215
336.53        42.73567
336.98        42.54882
337.43        42.31075
337.88        42.03745
338.34        41.77268
338.79         41.6012
339.24        41.53699
339.69        41.55389
340.14        41.60376
340.59        41.60637
341.05        41.53902
341.50        41.43498
341.95        41.30485
342.40        41.17708
342.85        41.06248
343.30        40.93904
343.75        40.83304
344.20        40.78929
344.66        40.81276
345.11        40.89428
345.56        40.95522
346.01        40.86586
346.46         40.6087
346.91        40.22271
347.36        39.83662
347.81        39.64763
348.26        39.69173
348.72        39.91005
349.17        40.15614
349.62        40.19725
350.07        39.97997
350.52        39.57497
350.97        39.13145
351.42        38.88877
351.87         38.8992
352.32        39.07798
352.77        39.28273
353.22        39.29852
353.67         39.0763
354.13        38.70692
354.58        38.27327
355.03        37.95675
355.48        37.81176
355.93        37.78484
356.38        37.80968
356.83        37.78611
357.28        37.68181
357.73        37.52749
358.18        37.35894
358.63        37.22818
359.08        37.14165
359.53        37.06967
359.98        36.97147
360.43        36.79034
360.88        36.51806
361.33        36.18081
361.78        35.80951
362.23        35.48244
362.68        35.22827
363.13        34.97373
363.58         34.7045
364.03        34.69492
364.48        34.45061
364.93        34.36375
365.38        34.26487
365.83        34.12683
366.28         33.9364
366.73        33.70113
367.18         33.4527
367.63        33.23376
368.08        33.05642
368.53        32.91045
368.98         32.7644
369.43        32.56554
369.88        32.30671
370.33        32.01078
370.78        31.71892
371.23        31.49732
371.68        31.35883
372.13        31.27423
372.58        31.21489
373.03        31.13245
373.48         31.0121
373.93        30.88076
374.38        30.72465
374.83        30.52073
375.28        30.27672
375.72        29.98378
376.17        29.73943
376.62        29.65542
377.07        29.73603
377.52        29.92579
377.97        30.10597
378.42        30.09061
378.87        29.84342
379.32        29.43933
379.77        28.96281
380.22        28.53973
380.67        28.21595
381.11        27.95775
381.56        27.77561
382.01        27.68725
382.46        27.68222
382.91         27.7558
383.36        27.84386
383.81         27.8395
384.26        27.72051
384.71        27.51521
385.15        27.26786
385.60          27.091
386.05        27.00252
386.50        26.97303
386.95        26.98383
387.40        27.00567
387.85        27.02235
388.29        27.02378
388.74        27.02774
389.19        26.99671
389.64        26.92329
390.09        26.80219
390.54         26.6533
390.98         26.5091
391.43         26.3993
391.88        26.32354
392.33        26.24281
392.78        26.14294
393.23        26.03253
393.67        25.80081
394.12        25.54103
394.57         25.6883
395.02        25.79328
395.47         25.7831
395.91        25.54285
396.36        25.40169
396.81        25.37823
397.26         25.2907
397.71        25.15958
398.15        25.10811
398.60         25.1633
399.05        25.18178
399.50        25.17154
399.95        25.30667
400.39        25.49854
400.84        25.38121
401.29        24.98848
401.74        24.63232
402.18        24.41332
402.63        24.35614
403.08        24.43072
403.53        24.44683
403.97        24.38642
404.42        24.40254
404.87        24.46373
405.32        24.46737
405.76        24.39996
406.21        24.22592
406.66        24.01975
407.11        24.01678
407.55         24.1736
408.00        24.20818
408.45         24.0796
408.90        23.80366
409.34        23.48702
409.79        23.45337
410.24        23.65878
410.68        23.72335
411.13        23.62431
411.58        23.60466
412.03        23.67373
412.47        23.72143
412.92        23.73072
413.37        23.74145
413.81        23.73962
414.26        23.72213
414.71        23.68429
415.15        23.62642
415.60        23.56453
416.05        23.54393
416.49        23.57498
416.94        23.64075
417.39        23.70388
417.83        23.70718
418.28        23.63229
418.73         23.4875
419.17        23.32229
419.62         23.2209
420.07        23.21218
420.51        23.28135
420.96        23.36083
421.41        23.37176
421.85        23.29378
422.30        23.05167
422.74        22.77248
423.19        22.92822
423.64        23.42957
424.08        23.63522
424.53        23.44573
424.98        23.36921
425.42        23.42547
425.87        23.16578
426.31        22.72239
426.76        22.78398
427.21        23.23853
427.65        23.24308
428.10        22.85193
428.54        22.74455
428.99        22.93227
429.44        23.23173
429.88        23.45846
430.33        23.12029
430.77        22.43009
431.22        22.23358
431.66        22.53915
432.11        22.82858
432.56        23.00927
433.00        23.10125
433.45        22.91568
433.89         22.5865
434.34         22.4628
434.78        21.38736
435.23        22.11324
435.67        22.81491
436.12        23.21009
436.57        23.33911
437.01        23.03469
437.46        22.85819
437.90        22.93943
438.35        23.11563
438.79        22.66313
439.24        22.50793
439.68        22.46887
440.13        22.48541
440.57        22.50781
441.02        22.65746
441.46        22.85779
441.91        22.60349
442.35         22.1115
442.80        22.40056
443.24        23.27672
443.69        23.41098
444.13        22.80215
444.58        22.54252
445.02        22.63704
445.47         22.5022
445.91        22.17486
446.36        22.01835
446.80        22.05133
447.24        22.16123
447.69        22.30712
448.13         22.4775
448.58        22.61747
449.02        22.62214
449.47        22.53153
449.91         22.5089
450.36        22.57323
450.80        22.62509
451.25        22.64503
451.69        22.64054
452.13          22.601
452.58        22.51316
453.02        22.39503
453.47        22.28409
453.91        22.19202
454.36        22.14781
454.80        22.12112
455.24        22.03617
455.69        21.93926
456.13        21.87115
456.58        21.87326
457.02        22.09001
457.46        22.38721
457.91        22.35979
458.35        22.12922
458.79        22.02813
459.24        22.09757
459.68        22.12393
460.13        22.10138
460.57        21.98869
461.01        21.88584
461.46        21.82627
461.90        21.71766
462.34        21.65452
462.79        21.97683
463.23        22.07818
463.68         22.0609
464.12        22.03539
464.56         22.0249
465.01        22.08819
465.45        22.13549
465.89        22.02149
466.34        21.82404
466.78        21.66027
467.22        21.53686
467.67        21.91938
468.11        21.82911
468.55        21.81421
468.99        21.63946
469.44        21.61097
469.88        21.73561
470.32        21.83477
470.77        21.89001
471.21        21.94245
471.65        21.98785
472.10         22.0208
472.54        22.02697
472.98        22.01948
473.42        22.00997
473.87        21.93575
474.31        21.84121
474.75        21.99615
475.20        22.32754
475.64          22.404
476.08        22.22711
476.52        22.22725
476.97        22.43062
477.41        22.38832
477.85        22.31601
478.29        22.51965
478.74        22.43137
479.18        22.31005
479.62        22.71528
480.06        22.80391
480.50        22.81131
480.95        22.74126
481.39        22.60312
481.83        22.89021
482.27        22.92812
482.72        22.90334
483.16        23.29452
483.60        23.40862
484.04        23.41709
484.48        23.43136
484.93        23.65867
485.37        23.54589
485.81         24.1649
486.25        24.70859
486.69        24.49155
487.14        24.05523
487.58         24.7497
488.02        24.46785
488.46        24.57966
488.90        25.43353
489.34        24.63775
489.79         24.3329
490.23        24.81431
490.67        25.20204
491.11         25.6448
491.55        25.69944
491.99        25.46397
492.43        25.49475
492.88        25.81826
493.32        26.05986
493.76        26.18468
494.20        26.38821
494.64        26.68611
495.08        26.93656
495.52        27.13549
495.96        27.52019
496.41        28.02389
496.85        27.97522
497.29        27.55468
497.73        27.72327
498.17        28.39891
498.61        28.81542
499.05        28.84137
499.49        28.81521
499.93        28.82341
500.37        28.87991
500.82        28.99234
501.26        29.19495
501.70        29.50212
502.14        29.30039
502.58        29.64407
503.02        29.76901
503.46        29.86024
503.90         29.9531
504.34        30.01652
504.78        30.09597
505.22        30.17757
505.66        30.20103
506.10         30.2061
506.54        30.31346
506.98        30.53405
507.42        30.72714
507.86        31.08847
508.30        31.11002
508.74        31.23026
509.18        31.15804
509.62        31.06773
510.06        31.04238
510.50        31.10809
510.94        31.23428
511.38        31.37717
511.82        31.47783
512.26        31.51616
512.70        31.51468
513.14        31.49644
513.58        31.48333
514.02        31.48516
514.46        31.51617
514.90        31.57154
515.34        31.53379
515.78        31.58179
516.22        31.57433
516.66        31.58187
517.10        31.62304
517.54        31.70003
517.98        31.80024
518.42        31.89193
518.86        31.93047
519.30        31.90592
519.74        31.83318
520.18        31.74334
520.62        31.68501
521.06        31.67215
521.50        31.69198
521.93        31.72561
522.37        31.73255
522.81         31.7039
523.25        31.64637
523.69        31.57632
524.13        31.51859
524.57        31.47766
525.01        31.44673
525.45        31.40043
525.89        31.29918
526.32        31.13761
526.76        30.94368
527.20        30.75815
527.64        30.64844
528.08        30.62763
528.52        30.66842
528.96        30.73571
529.40        30.77434
529.83        30.76235
530.27        30.71898
530.71        30.64215
531.15        30.53206
531.59        30.39742
532.03        30.24043
532.46        30.08559
532.90        29.98835
533.34        29.95601
533.78        29.97629
534.22        30.02183
534.66        30.04753
535.09         30.0367
535.53         30.0072
535.97        29.96679
536.41        29.93438
536.85        29.91744
537.28        29.91261
537.72        29.91677
538.16        29.92127
538.60        29.92881
539.04        29.95305
539.47        29.99606
539.91        30.07742
540.35        30.19001
540.79        30.32965
541.22        30.48208
541.66        30.62697
542.10        30.75557
542.54        30.87501
542.97        30.98117
543.41        31.08704
543.85        31.19362
544.29        31.30143
544.72        31.41939
545.16         31.5824
545.60        31.78479
546.04        32.01468
546.47        32.25264
546.91        32.46234
547.35         32.6297
547.79        32.78092
548.22        32.91302
548.66        33.01099
549.10        33.10305
549.53        33.30731
549.97        33.61117
550.41        33.87616
550.84        34.08741
551.28        34.32811
551.72        34.58104
552.15         34.7776
552.59        34.91954
553.03        35.01014
553.46        35.08353
553.90        35.22137
554.34        35.42973
554.77        35.70126
555.21        35.96848
555.65        36.12306
556.08         36.1117
556.52        36.05528
556.96        36.01492
557.39        36.13213
557.83          36.403
558.27        36.63931
558.70        36.79613
559.14        36.94581
559.57        37.06549
560.01         37.1068
560.45         37.0893
560.88        37.10688
561.32        37.20646
561.75        37.27612
562.19        37.33604
562.63        37.55431
563.06        37.83845
563.50        37.80536
563.93        37.52737
564.37        37.49567
564.80        37.72636
565.24        37.98325
565.68        38.21376
566.11        38.42487
566.55        38.60696
566.98        38.77485
567.42        38.93085
567.85        38.99603
568.29        39.03596
568.72        39.10616
569.16        39.21865
569.60        39.43991
570.03        39.79876
570.47        39.80457
570.90        39.91158
571.34        40.66704
571.77        40.65094
572.21        40.63449
572.64        41.04343
573.08        40.98283
573.51        41.29934
573.95        41.42009
574.38        41.50863
574.82        41.46255
575.25        41.63502
575.69        41.53079
576.12        41.35397
576.56         41.6919
576.99        41.74387
577.42        41.82925
577.86        41.76277
578.29        42.06262
578.73        41.83857
579.16        41.77319
579.60        41.56263
580.03        41.36279
580.47        41.17202
580.90        41.23128
581.33        41.24627
581.77        41.23679
582.20        41.08729
582.64        41.10974
583.07        40.70847
583.51        40.48829
583.94        40.43213
584.37         40.3457
584.81        40.24263
585.24         40.1785
585.68        40.18289
586.11        39.94278
586.54        39.90636
586.98        39.59323
587.41         39.8352
587.85        39.57339
588.28         39.4612
588.71         39.4128
589.15        39.60714
589.58        39.09091
590.01        39.40691
590.45        39.37949
590.88        38.66194
591.31        38.67228
591.75         39.1178
592.18         39.3163
592.61        39.26888
593.05        39.32623
593.48        40.00483
593.91        39.21169
594.35        39.54975
594.78        39.70887
595.21        39.72161
595.65        39.85461
596.08        39.81278
596.51        40.42643
596.94        40.26176
597.38        40.62352
597.81        41.16612
598.24        40.93596
598.68        41.30166
599.11        41.93339
599.54        42.05319
599.97        42.31625
600.41        42.99154
600.84        43.34982
601.27        43.54181
601.70        43.71506
602.14        43.71925
602.57        44.31773
603.00        44.90229
603.43        45.41963
603.87         45.9553
604.30        46.06941
604.73        46.44673
605.16        47.19196
605.60        47.48463
606.03        47.98076
606.46        48.31852
606.89        48.65366
607.32        48.68511
607.76        49.40746
608.19        49.35123
608.62        49.64906
609.05        49.93363
609.48        50.28667
609.92        50.62896
610.35        50.96722
610.78         51.1727
611.21        51.02102
611.64        51.79005
612.07         52.0257
612.50        52.10916
612.94        52.34359
613.37        52.79426
613.80        52.79826
614.23          53.256
614.66        53.39278
615.09        53.47198
615.52        53.70419
615.96        54.12305
616.39        53.95031
616.82        54.13829
617.25        54.48378
617.68        54.66511
618.11        54.77597
618.54        54.72644
618.97        55.05427
619.40        55.64798
619.84        55.91816
620.27        55.73586
620.70        55.68486
621.13        55.76744
621.56        55.87239
621.99         56.1048
622.42         56.0145
622.85        56.15872
623.28        56.44347
623.71        56.29898
624.14        56.15174
624.57        56.43719
625.00        56.39687
625.43        56.17432
625.86        56.09671
626.29        56.21774
626.72        55.72803
627.15        55.80364
627.58        55.63619
628.01        55.65217
628.44        55.23557
628.87        55.18453
629.30        55.30471
629.73        54.96026
630.16        54.24955
630.59         54.3618
631.02        54.06523
631.45         53.7635
631.88        53.49607
632.31        53.28946
632.74        52.90391
633.17        52.71263
633.60        52.40266
634.03        52.08227
634.46        51.74618
634.89        51.39647
635.32        51.01872
635.75        50.61346
636.18        50.21997
636.61        49.84266
637.04        49.42844
637.47        49.00818
637.89        48.71524
638.32        48.51173
638.75        48.25573
639.18        47.93619
639.61        47.63633
640.04         47.3505
640.47         47.0441
640.90        46.72314
641.33        46.38243
641.76        46.04616
642.18        45.86881
642.61         45.6803
643.04        45.60903
643.47        45.58287
643.90        45.57005
644.33        45.55659
644.76        45.55676
645.18         45.5685
645.61        45.58018
646.04        45.59584
646.47        45.61245
646.90        45.66642
647.33        45.81474
647.75        46.07245
648.18        46.43927
648.61        46.84958
649.04        47.20646
649.47        47.50284
649.89        47.70933
650.32         47.9066
650.75        48.41372
651.18        49.15989
651.61        49.61199
652.03        49.72509
652.46        50.04212
652.89        50.66825
653.32        50.86094
653.74        50.91005
654.17        52.12398
654.60        52.36618
655.03        52.54374
655.46          52.783
655.88        53.77735
656.31        55.16996
656.74        57.28126
657.16        57.03912
657.59         56.7781
658.02        55.50838
658.45        56.26553
658.87        56.36163
659.30        56.45198
659.73        56.11938
660.15        56.52983
660.58        56.82766
661.01         57.1935
661.44        57.35656
661.86         57.5743
662.29         57.8318
662.72        58.05902
663.14        58.25626
663.57        58.35508
664.00        58.38997
664.42        58.46664
664.85        58.60949
665.27        58.77113
665.70        58.92906
666.13         59.0709
666.55        59.19265
666.98        59.29146
667.41        59.39701
667.83          59.555
668.26        59.75973
668.69              60
669.11        60.23144
669.54        60.38111
669.96        60.44749
670.39        60.43885
670.82        60.41038
671.24        60.50192
671.67         60.7218
672.09        60.88228
672.52        60.99386
672.94        61.25199
673.37        61.58537
673.80        61.63033
674.22        61.43545
674.65        61.35555
675.07        61.44102
675.50         61.4768
675.92        61.47199
676.35        61.52107
676.77        61.62986
677.20        61.78029
677.62        61.96267
678.05         62.0973
678.47        62.16416
678.90        62.26733
679.32        62.44382
679.75        62.36564
680.17        62.67253
680.60        62.84518
681.02        63.03328
681.45        63.15029
681.87        63.19732
682.30        63.15184
682.72        63.07302
683.15        63.13464
683.57        63.33454
684.00        63.45008
684.42        63.47247
684.85        63.55733
685.27        63.69094
685.70        63.77676
686.12         63.8138
686.54        63.87889
686.97        63.95779
687.39        64.02755
687.82        64.08397
688.24        64.02808
688.66         64.1185
689.09        64.12762
689.51        64.15376
689.94        64.19032
690.36        64.24918
690.78        64.32533
691.21        64.40485
691.63        64.45992
692.06        64.48917
692.48        64.49891
692.90        64.51272
693.33        64.55623
693.75        64.64308
694.17        64.77267
694.60        64.90681
695.02         65.0361
695.44        65.15556
695.87        65.17014
696.29        65.12254
696.71        65.34908
697.14        65.80845
697.56        65.64216
697.98         65.7365
698.41        65.69901
698.83        65.78378
699.25        65.80134
699.68        65.76756
700.10        65.83471
700.52        65.99427
700.94        66.21435
701.37        66.42276
701.79        66.53757
702.21         66.5206
702.64        66.41805
703.06        66.28595
703.48        66.23378
703.90          66.296
704.33        66.42236
704.75        66.60229
705.17         66.7468
705.59        66.83647
706.01        66.86727
706.44        66.86392
706.86        66.98152
707.28        67.04154
707.70        67.18763
708.12        67.33261
708.55        67.38005
708.97        67.33209
709.39        67.30531
709.81        67.32884
710.23        67.36658
710.66          67.425
711.08        67.55966
711.50        67.70776
711.92         67.7671
712.34        67.72588
712.76        67.61601
713.19        67.49741
713.61        67.51662
714.03        67.68153
714.45        67.94396
714.87         68.2317
715.29        68.43661
715.71        68.52792
716.13        68.53828
716.56         68.4822
716.98        68.45985
717.40        68.47677
717.82        68.51609
718.24        68.57527
718.66        68.65285
719.08         68.7427
719.50        68.84277
719.92         68.9509
720.34        69.05858
720.76        69.15855
721.19        69.24287
721.61        69.30089
722.03        69.28692
722.45        69.20057
722.87        69.05892
723.29        68.92101
723.71        68.88072
724.13        68.96317
724.55        69.14694
724.97        69.37549
725.39        69.55185
725.81        69.64526
726.23        69.67517
726.65        69.68425
727.07        69.74543
727.49        69.87113
727.91        70.02891
728.33        70.16684
728.75        70.20271
729.17        70.12073
729.59        69.95923
730.01        69.76107
730.43        69.61016
730.85         69.5367
731.27        69.48419
731.69        69.45448
732.10        69.62059
732.52         69.6945
732.94        69.92124
733.36        70.16514
733.78        70.26501
734.20         70.1863
734.62        70.28516
735.04        69.89311
735.46        70.06012
735.88        70.45973
736.30        70.40141
736.72        69.96673
737.13        69.92134
737.55        70.25555
737.97        70.56897
738.39        70.75078
738.81        70.64612
739.23        70.34549
739.65        70.41809
740.06        70.76886
740.48        70.82986
740.90        70.55188
741.32        70.35579
741.74        70.21236
742.16        70.16171
742.57          70.204
742.99        70.37025
743.41        70.59205
743.83        70.68928
744.25        70.65471
744.67        70.61588
745.08        70.64159
745.50        70.70763
745.92        70.83836
746.34        71.06405
746.75        71.27758
747.17        71.29047
747.59        71.08601
748.01        70.68971
748.42        70.25955
748.84        70.16831
749.26        70.41971
749.68        70.63403
750.09        70.75079
750.51         70.9826
750.93        71.25932
751.35        71.35774
751.76        71.28169
752.18        71.17879
752.60        71.07085
753.01        70.89425
753.43        70.72963
753.85        70.67282
754.27         70.7315
754.68        71.10316
755.10        71.72961
755.52        71.43366
755.93        71.76987
756.35          71.754
756.77        71.87336
757.18        71.94166
757.60        71.97854
758.02        72.05643
758.43        72.14229
758.85        72.11734
759.26         71.9353
759.68        71.85451
760.10        71.99304
760.51        71.05575
760.93        71.46899
761.34        71.25175
761.76        72.09026
762.18        72.23078
762.59        72.05055
763.01        71.84015
763.42        72.07205
763.84        72.09451
764.26        72.04807
764.67        72.19433
765.09        72.48716
765.50        72.50334
765.92        72.31266
766.33         72.2984
766.75         72.3946
767.16        72.38769
767.58        72.25685
768.00        72.12196
768.41        72.08337
768.83        72.44225
769.24        73.01019
769.66         73.0176
770.07        72.52608
770.49        72.36425
770.90        72.58348
771.32        72.69984
771.73        72.65755
772.15        72.63171
772.56        72.62112
772.97        72.61772
773.39        72.60761
773.80        72.56368
774.22        72.50189
774.63        72.63614
775.05        72.89185
775.46        73.05338
775.88         73.0602
776.29        73.06239
776.70        73.09277
777.12        73.16444
777.53        73.30822
777.95        73.49465
778.36         73.6804
778.77        73.77646
779.19        73.76604
779.60        73.68841
780.02        73.58886
780.43        73.56859
780.84        73.62801
781.26        73.72504
781.67        73.89458
782.09        74.02771
782.50        73.95866
782.91         74.4597
783.33        73.65331
783.74        73.55582
784.15        73.62442
784.57         73.6726
784.98        73.68082
785.39        73.73751
785.81        73.85014
786.22        74.00388
786.63        74.17267
787.04        74.31261
787.46        74.42686
787.87        74.52435
788.28        74.57683
788.70        74.56617
789.11        74.48589
789.52        74.24863
789.93        73.97115
790.35        74.09305
790.76         74.5424
791.17        74.63214
791.58        74.37262
792.00        74.32345
792.41        74.51746
792.82        74.63278
793.23        74.66715
793.65        74.68597
794.06        74.74364
794.47        75.02505
794.88        75.44342
795.29        75.49378
795.71        75.49534
796.12        75.36205
796.53        75.24237
796.94        75.10635
797.35        75.00518
797.76        75.05557
798.18        75.21874
798.59        75.29529
799.00         75.2659
799.41         75.2223
799.82        75.19009
800.23        75.18114
800.64        75.20637
801.06        75.23634
801.47        75.28568
801.88        75.30529
802.29         75.2807
802.70        75.20837
803.11        75.12431
803.52        75.08925
803.93        75.13219
804.34        75.25462
804.75        75.38106
805.17        75.44978
805.58        75.49081
805.99        75.26829
806.40        74.95048
806.81        75.39397
807.22        76.33548
807.63        76.41476
808.04        75.72688
808.45        75.57186
808.86        76.02792
809.27        76.31732
809.68        76.35093
810.09        76.35567
810.50        76.31629
810.91        76.17057
811.32        75.97918
811.73        75.84734
812.14        75.80615
812.55        75.83735
812.96        75.89832
813.37        75.93218
813.78        75.90278
814.19        75.76931
814.60        75.60246
815.01        75.56654
815.42         75.6857
815.83        75.89138
816.24        76.11612
816.65        76.25824
817.05        76.28295
817.46        76.18362
817.87        76.05888
818.28        76.00919
818.69        76.05929
819.10        76.17575
819.51        76.32032
819.92        76.42003
820.33        76.45239
820.74        76.45247
821.14        76.42548
821.55        76.41247
821.96        76.40836
822.37        76.39302
822.78        76.40658
823.19        76.52067
823.60        76.74052
824.00        77.06974
824.41        77.34977
824.82        77.41544
825.23        77.23161
825.64        76.85058
826.04        76.45364
826.45        76.30167
826.86        76.47803
827.27        76.91404
827.68          77.437
828.08        77.78623
828.49        77.80961
828.90         77.6124
829.31        77.35326
829.72         77.3015
830.12        77.54723
830.53         77.9548
830.94        78.36185
831.35        78.47021
831.75        78.22691
832.16        77.67691
832.57        77.04044
832.97        76.65598
833.38        76.62039
833.79        76.84434
834.20        77.16252
834.60         77.3177
835.01         77.2625
835.42        77.07523
835.82        76.88966
836.23        76.84765
836.64        77.02111
837.04        77.35473
837.45        77.71346
837.86        77.99086
838.26         78.1543
838.67        78.22949
839.08        78.24563
839.48        78.23015
839.89        78.20338
840.29        78.14988
840.70        78.11525
841.11        78.18256
841.51        78.37522
841.92         78.6295
842.33        78.87167
842.73        78.96642
843.14        78.83051
843.54        78.54362
843.95        78.17886
844.35        77.87976
844.76        77.68678
845.17        77.57055
845.57        77.52905
845.98        77.51057
846.38         77.5241
846.79        77.56838
847.19        77.63642
847.60        77.65557
848.00        77.63103
848.41        77.52158
848.81        77.41099
849.22        77.36726
849.62        77.44139
850.03         77.5969
850.43        77.74649
850.84        77.65977
851.24        77.35329
851.65        76.82828
852.05        76.35942
852.46         76.3206
852.86        76.78042
853.27        77.58627
853.67        78.36167
854.07        78.80731
854.48        78.81533
854.88        78.52099
855.29        77.96741
855.69        77.47561
856.10        77.07937
856.50        76.80174
856.90        76.57655
857.31        76.32555
857.71        76.08146
858.12        75.84184
858.52        75.70911
858.92        75.69651
859.33        75.78578
859.73        75.98944
860.13        76.20592
860.54        76.29381
860.94        76.24639
861.34        76.05653
861.75        75.78065
862.15        75.57916
862.55        75.46571
862.96          75.423
863.36        75.37989
863.76        75.20289
864.17        74.86543
864.57        74.43168
864.97        74.03668
865.38        73.86591
865.78        74.00397
866.18        74.37376
866.58        74.78867
866.99        74.93295
867.39        74.74921
867.79        74.29582
868.19         73.7798
868.60        73.47234
869.00        73.42994
869.40        73.61286
869.80        73.87334
870.21         73.9464
870.61        73.83981
871.01        73.59274
871.41        73.37267
871.81        73.41396
872.22        73.72995
872.62        74.26057
873.02        74.86861
873.42        75.28465
873.82        75.40575
874.22        75.32586
874.63        75.14191
875.03        74.96355
875.43        74.84689
875.83        74.74212
876.23        74.69115
876.63        74.76857
877.03        74.97237
877.44        75.28452
877.84        75.58475
878.24        75.62878
878.64        75.37286
879.04        74.89617
879.44         74.3794
879.84        74.08084
880.24        74.04787
880.64        74.20683
881.04        74.42815
881.44        74.48368
881.84        74.31282
882.24        73.99559
882.65         73.6243
883.05        73.45619
883.45        73.51364
883.85        73.71655
884.25        73.98776
884.65        74.22279
885.05        74.38029
885.45        74.48722
885.85        74.53963
886.25        74.52814
886.65        74.46521
887.05        74.36436
887.45        74.24159
887.85        74.12586
888.25        74.02856
888.65        73.93983
889.04         73.8989
889.44        74.00439
889.84        74.23965
890.24        74.57211
890.64        74.87734
891.04         74.9614
891.44        74.79402
891.84        74.44572
892.24        74.05136
892.64        73.82674
893.04        73.83253
893.44        74.00554
893.83        74.29926
894.23        74.56458
894.63        74.77514
895.03        74.96366
895.43        75.11745
895.83        75.21409
896.23        75.25191
896.63        75.21874
897.02        75.14279
897.42        75.12216
897.82        75.15405
898.22        75.22325
898.62        75.27879
899.01        75.23894
899.41        75.07404
899.81        74.84401
900.21        74.60732
900.61        74.45854
901.00        74.41855
901.40        74.46331
901.80        74.58932
902.20         74.8013
902.59         75.0863
902.99        75.42709
903.39         75.7228
903.79        75.79631
904.18        75.62363
904.58        75.27582
904.98        74.91431
905.38        74.79356
905.77        74.94576
906.17        75.28763
906.57        75.67911
906.96        75.89857
907.36        75.84846
907.76        75.63708
908.15        75.31989
908.55        74.91125
908.95        74.50407
909.34         74.0858
909.74        73.82926
910.14         73.9442
910.53        74.45434
910.93        75.26265
911.33        76.16257
911.72        76.78654
912.12        76.99103
912.52        76.87933
912.91        76.55574
913.31        76.21943
913.70         75.9313
914.10        75.63336
914.49          75.368
914.89        75.15144
915.29        75.02426
915.68        75.01026
916.08         75.0909
916.47        75.20683
916.87        75.34549
917.26        75.47766
917.66        75.61658
918.05        75.75307
918.45        75.87386
918.84        76.00774
919.24        76.08051
919.64        76.06715
920.03        75.98528
920.42        75.83027
920.82        75.71096
921.21        75.78391
921.61        76.05785
922.00        76.50803
922.40        76.97217
922.79        77.24816
923.19        77.23174
923.58        77.01586
923.98        76.68568
924.37        76.43235
924.77        76.29581
925.16         76.2172
925.55        76.16156
925.95         76.0595
926.34        75.89948
926.74        75.71897
927.13        75.57466
927.52        75.44218
927.92        75.34509
928.31        75.25285
928.70        75.22635
929.10        75.35193
929.49        75.62816
929.89        75.99625
930.28        76.36998
930.67        76.47392
931.07        76.23627
931.46        75.76564
931.85        75.21505
932.24         74.8643
932.64        74.78416
933.03        74.89529
933.42        75.10367
933.82        75.24409
934.21        75.27399
934.60         75.2687
934.99        75.25838
935.39        75.26234
935.78        75.33366
936.17        75.42987
936.56        75.60345
936.96        75.93898
937.35        76.46488
937.74        77.09413
938.13        77.67329
938.53        77.99263
938.92        78.01586
939.31        77.78764
939.70        77.43046
940.09        77.16924
940.49        77.05654
940.88        77.07677
941.27        77.12555
941.66        77.03576
942.05        76.78801
942.44        76.47724
942.84        76.21221
943.23        76.10654
943.62        76.21279
944.01        76.44331
944.40        76.77591
944.79        77.17398
945.18        77.56651
945.57        77.94068
945.97        78.10056
946.36         77.8263
946.75        77.08301
947.14        75.96354
947.53        74.76446
947.92        74.01596
948.31        73.89034
948.70        74.26172
949.09        74.89372
949.48        75.38857
949.87        75.62144
950.26        75.69926
950.65        75.72014
951.04        75.84539
951.43         76.1139
951.82        76.43127
952.21        76.71605
952.60        76.86414
952.99        76.82797
953.38        76.63811
953.77        76.34155
954.16        75.99569
954.55        75.62842
954.94        75.25219
955.33        74.83807
955.72        74.33208
956.11        73.75137
956.50        73.14323
956.89        72.65009
957.28        72.49596
957.66        72.76089
958.05        73.35379
958.44        74.09541
958.83        74.69924
959.22        75.04386
959.61        75.11879
960.00        75.04638
960.39        75.04438
960.78        75.15143
961.16        75.35956
961.55        75.34808
961.94        74.70107
962.33         73.4192
962.72        71.76201
963.11        70.26723
963.49        69.68546
963.88        70.16113
964.27        71.46455
964.66        73.18575
965.04        74.56877
965.43        75.21279
965.82         75.3288
966.21        75.10211
966.60        74.86578
966.98        74.73892
967.37        74.53667
967.76        74.25728
968.15        73.91579
968.53        73.55578
968.92        73.28732
969.31        73.06722
969.69        72.74239
970.08        72.30716
970.47         71.8159
970.86        71.55493
971.24         72.0299
971.63        73.19463
972.02        74.78075
972.40        76.36761
972.79        77.27275
973.17        77.45673
973.56        77.05563
973.95         76.2956
974.33        75.55804
974.72        75.01081
975.11        74.54801
975.49        74.20847
975.88        74.07661
976.26        74.17178
976.65        74.53149
977.04        74.96884
977.42         75.1106
977.81        74.80369
978.19         74.0622
978.58        73.32516
978.96        73.33221
979.35        74.21124
979.74        75.79264
980.12        77.42028
980.51        77.81158
980.89        76.81823
981.28        74.69363
981.66        72.35388
982.05        71.50219
982.43        72.57679
982.82        74.95596
983.20        77.66978
983.59        79.06861
983.97         78.8284
984.35        77.41958
984.74        75.37874
985.12        73.67442
985.51        72.73726
985.89        72.31908
986.28        72.37255
986.66        72.92509
987.04        73.83708
987.43        75.07213
987.81        76.40703
988.20        77.27763
988.58        77.55495
988.96        77.36679
989.35        76.71226
989.73        75.73724
990.12        74.48604
990.50        72.83025
990.88        71.29179
991.27        71.03041
991.65        72.32227
992.03        74.79041
992.42        77.15736
992.80        78.10622
993.18         77.3332
993.56        75.04951
993.95        72.05801
994.33        70.46233
994.71        71.22354
995.10        73.37532
995.48        75.69579
995.86        76.85426
996.24        76.71404
996.63        75.63443
997.01        74.11567
997.39        73.14429
997.77        73.19099
998.15        73.91194
998.54         74.7559
998.92        75.00263
999.30        74.49187
999.68        73.51243
1000.06        72.47945
1000.45        72.06313
1000.83        72.54031
1001.21        73.56752
1001.59        74.80151
1001.97        75.78481
1002.35        76.39751
1002.73        76.83687
1003.12        77.02383
1003.50        76.69653
1003.88        75.93198
1004.26        74.78119
1004.64        73.78794
1005.02        73.64662
1005.40        74.40613
1005.78        75.94536
1006.16        77.56718
1006.54        77.98351
1006.92        76.86292
1007.30        74.55899
1007.69         72.1072
1008.07        71.13937
1008.45        72.13286
1008.83        74.54721
1009.21        77.27571
1009.59        78.75745
1009.97        78.55276
1010.35        76.88119
1010.73        74.48725
1011.11        73.26057
1011.49        74.06797
1011.86        76.47927
1012.24        78.89848
1012.62        79.38055
1013.00        77.65363
1013.38        74.39364
1013.76          71.059
1014.14         70.0381
1014.52        72.00867
1014.90        76.34376
1015.28        81.56887
1015.66        84.72719
1016.04        84.67181
1016.41        82.28624
1016.79        78.85204
1017.17        76.66781
1017.55         76.3399
1017.93        77.27368
1018.31        78.60946
1018.69        78.99356
1019.06        78.10851
1019.44         76.3607
1019.82        74.70563
1020.20        74.97602
1020.58        77.48615
1020.95         81.1126
1021.33        84.46863
1021.71        85.87408
1022.09         85.0627
1022.46        82.62949
1022.84        79.05895
1023.22        75.02648
1023.60        70.96648
1023.97        66.53851
1024.35        62.68544
1024.73        61.07698
