SpectraSmart Spectrum 2.9.0.0
--------- Device Information -----------
Spectrum Name :  反射率_0
Saving Time :  2024/04/27 23:06:27
Spectro-Module Model Name : SE2030-DUVN
Spectro-Module Serial Number : OS361AC55029948
Wavelength Start : 200
Wavelength End : 1025
Wavelength Unit : Wavelength(nm)
Spectrum Unit : Reflectance(%)
-----------Spectrum Setting ------------
Integration Time : 20ms
Average : 10
Boxcar : 0
Background removal :  enabled
linearity correction :  enabled
SC :  disabled
Intensity correction :  disabled
DWT denoise :  enabled
savitzky-golay :  disabled
FFT :  disabled
Running average :  disabled
Kalman :  disabled
High pass :  disabled
---------------BEGIN--------------------
Wavelength(nm)             Reflectance(%)
200.29               0
200.75       -32.56179
201.21        -17.9359
201.67      -0.4097263
202.13        10.86537
202.58        17.69635
203.04         22.9611
203.50        29.56591
203.96        39.58528
204.42        51.12249
204.88        62.05967
205.34        69.83897
205.80        72.49569
206.26        70.00379
206.72        61.32527
207.18        45.69903
207.64        33.37907
208.10        34.53313
208.55        43.72205
209.01        50.21896
209.47        49.94853
209.93        41.59132
210.39        16.48891
210.85       -63.23558
211.31       -169.4144
211.77       -60.82414
212.23        15.65646
212.69        42.80387
213.14        49.86305
213.60        46.39532
214.06        34.60044
214.52        12.85334
214.98       -2.723356
215.44        4.992748
215.90        20.43466
216.36        33.19844
216.81          40.785
217.27        44.71192
217.73        47.68282
218.19        49.05424
218.65        46.98536
219.11         41.2627
219.57        31.67209
220.02        21.28802
220.48         19.3007
220.94        27.38101
221.40        40.94777
221.86        53.79792
222.32        60.02671
222.77        60.10571
223.23        57.05758
223.69        52.99777
224.15         49.8007
224.61        47.92324
225.06        46.46829
225.52        46.43774
225.98         48.9422
226.44        52.99422
226.90        57.21453
227.36        60.38119
227.81        61.67492
228.27        61.38755
228.73         59.8377
229.19        57.24226
229.65        54.25793
230.10        51.38231
230.56        48.94718
231.02        47.05508
231.48        45.85011
231.93        45.19526
232.39        45.05247
232.85        45.42976
233.31        46.33305
233.77        47.60323
234.22        49.25624
234.68        50.48035
235.14        50.27942
235.60        48.52772
236.05        45.21011
236.51        41.66084
236.97         40.9295
237.43        44.07221
237.88        50.33447
238.34        56.83153
238.80        60.46963
239.26        60.46177
239.71        56.45661
240.17        48.39579
240.63         42.9417
241.08        46.60688
241.54        54.92297
242.00        61.82836
242.46        64.55141
242.91        63.54585
243.37        58.34557
243.83        46.19236
244.28        30.17388
244.74        28.48161
245.20        41.32523
245.66        52.66605
246.11        55.30798
246.57        50.36476
247.03        38.69725
247.48         19.2492
247.94        2.496075
248.40        2.470484
248.85        13.33165
249.31        29.04077
249.77        44.95081
250.22         58.3341
250.68        69.21719
251.14        76.63458
251.59        79.94173
252.05        79.86703
252.51        76.15486
252.96        68.60316
253.42        61.58232
253.88        58.87636
254.33        59.80774
254.79        61.58625
255.25        61.32062
255.70        59.24127
256.16        56.98738
256.62         55.8141
257.07        56.97699
257.53        59.96703
257.99        63.16275
258.44        65.18677
258.90        65.32485
259.35        63.62328
259.81        61.21466
260.27         58.6881
260.72        56.76198
261.18        55.80603
261.63         55.2083
262.09        54.80363
262.55        54.03526
263.00        52.81087
263.46        51.48872
263.91         50.2182
264.37        49.52826
264.83        49.35934
265.28        49.45296
265.74        49.58648
266.19        49.28817
266.65        48.57592
267.11        47.56456
267.56        46.42396
268.02        45.51877
268.47        44.89161
268.93        44.43807
269.38        44.04606
269.84        43.57724
270.30        42.97157
270.75        42.28415
271.21        41.50998
271.66        40.58163
272.12        39.54353
272.57         38.3969
273.03        37.29153
273.48        36.37593
273.94        35.74253
274.39        35.30986
274.85        35.02841
275.31        34.74014
275.76        34.37212
276.22        33.97145
276.67        33.53632
277.13        33.16965
277.58        32.82693
278.04        32.52966
278.49         32.1392
278.95        31.57681
279.40        30.80438
279.86        29.94594
280.31        29.12502
280.77        28.63693
281.22         28.4721
281.68        28.56582
282.13        28.71713
282.59        28.69993
283.04        28.44551
283.50        28.04306
283.95         27.5895
284.41        27.27662
284.86        27.12794
285.32        27.09681
285.77        27.07294
286.22        26.93988
286.68         26.6925
287.13        26.34963
287.59        26.02075
288.04        25.78868
288.50        25.70309
288.95        25.70055
289.41        25.73272
289.86        25.68271
290.32         25.5493
290.77        25.36434
291.22        25.19648
291.68        25.13892
292.13        25.20521
292.59        25.37953
293.04        25.61746
293.50        25.87645
293.95        26.13198
294.40        26.40876
294.86          26.726
295.31        27.10416
295.77        27.55236
296.22        28.03855
296.68        28.55336
297.13        29.06153
297.58        29.55122
298.04        30.02438
298.49        30.46531
298.95        30.86752
299.40        31.23163
299.85        31.56411
300.31        31.90917
300.76        32.29647
301.21        32.73928
301.67        33.22858
302.12        33.69894
302.58         34.0947
303.03        34.38312
303.48        34.58549
303.94        34.77305
304.39        35.00587
304.84        35.31025
305.30        35.67079
305.75        35.98661
306.20        36.14649
306.66        36.14758
307.11        36.00207
307.57        35.84335
308.02        35.81137
308.47        35.94564
308.93        36.19094
309.38        36.40949
309.83        36.41879
310.29        36.19672
310.74        35.80232
311.19        35.35464
311.65         35.0385
312.10        34.88913
312.55        34.85183
313.00        34.87303
313.46         34.8716
313.91        34.80821
314.36        34.71161
314.82        34.56171
315.27        34.31944
315.72        33.99159
316.18        33.59824
316.63        33.18915
317.08        32.86965
317.53        32.66508
317.99        32.54564
318.44        32.47832
318.89         32.3874
319.35        32.24784
319.80         32.0829
320.25         31.8978
320.70        31.70736
321.16        31.51022
321.61        31.29828
322.06        31.07801
322.51        30.86925
322.97        30.67037
323.42        30.49285
323.87          30.301
324.32        30.04172
324.78        29.70492
325.23        29.31203
325.68        28.92046
326.13        28.63076
326.59        28.45437
327.04        28.38493
327.49         28.3361
327.94        28.17209
328.39          27.858
328.85        27.42625
329.30        26.96774
329.75        26.63342
330.20        26.47066
330.66         26.4228
331.11        26.42929
331.56        26.34151
332.01         26.1195
332.46        25.81345
332.92        25.47406
333.37        25.21413
333.82        25.06482
334.27        24.98524
334.72        24.96476
335.17        24.98928
335.63        25.03232
336.08        25.11412
336.53        25.16772
336.98        25.09137
337.43        24.87075
337.88        24.53427
338.34         24.1758
338.79        23.95925
339.24        23.92699
339.69        24.03186
340.14        24.19371
340.59        24.27693
341.05        24.23873
341.50        24.12688
341.95        23.96881
342.40        23.81576
342.85        23.68792
343.30        23.56079
343.75        23.44387
344.20        23.35833
344.66        23.30763
345.11        23.28967
345.56        23.27166
346.01        23.19359
346.46        23.04593
346.91        22.84581
347.36        22.64704
347.81        22.53037
348.26        22.51553
348.72        22.58555
349.17        22.68045
349.62        22.70332
350.07        22.62953
350.52        22.47505
350.97        22.32539
351.42        22.31755
351.87        22.46876
352.32        22.73082
352.77        22.96284
353.22        22.95369
353.67        22.66926
354.13         22.1938
354.58        21.67049
355.03        21.37881
355.48        21.38761
355.93        21.61913
356.38        21.91562
356.83        22.02837
357.28        21.89856
357.73        21.60725
358.18        21.28659
358.63        21.13923
359.08        21.20763
359.53        21.41269
359.98        21.64032
360.43        21.71975
360.88         21.6079
361.33         21.3618
361.78        21.05469
362.23        20.83809
362.68        20.75844
363.13        20.70228
363.58        20.60922
364.03        20.75165
364.48        20.51905
364.93        20.41038
365.38        20.27841
365.83        20.17757
366.28        20.11314
366.73        20.07425
367.18        20.03777
367.63        19.95493
368.08        19.81852
368.53        19.64563
368.98        19.47021
369.43        19.34404
369.88        19.28193
370.33        19.27084
370.78        19.27749
371.23        19.25053
371.68        19.16968
372.13        19.03633
372.58        18.88725
373.03        18.78147
373.48        18.73379
373.93        18.74149
374.38        18.72967
374.83        18.58005
375.28        18.28358
375.72        17.87113
376.17        17.50982
376.62        17.41966
377.07         17.6282
377.52        18.04396
377.97        18.47907
378.42        18.64126
378.87        18.46726
379.32         18.0624
379.77        17.56826
380.22        17.19867
380.67        17.01735
381.11         16.9586
381.56        16.97846
382.01        17.00541
382.46        17.00792
382.91        17.01437
383.36        17.01218
383.81        16.97342
384.26         16.8942
384.71        16.77188
385.15        16.62126
385.60        16.50455
386.05        16.42701
386.50        16.38349
386.95        16.35785
387.40        16.32197
387.85        16.27138
388.29        16.20495
388.74        16.16133
389.19        16.15741
389.64        16.18999
390.09        16.23897
390.54        16.27567
390.98        16.25524
391.43        16.17589
391.88         16.0566
392.33        15.90846
392.78        15.77291
393.23        15.66922
393.67         15.5209
394.12        15.36018
394.57        15.40894
395.02        15.38982
395.47         15.2688
395.91        15.02504
396.36        14.92605
396.81        14.99225
397.26         15.0885
397.71        15.15057
398.15        15.14306
398.60        15.06931
399.05        14.88599
399.50        14.67412
399.95        14.64074
400.39        14.75584
400.84        14.77661
401.29        14.66969
401.74        14.52546
402.18        14.37728
402.63        14.27369
403.08        14.23468
403.53        14.21068
403.97        14.20801
404.42        14.28568
404.87        14.40698
405.32        14.48718
405.76        14.50549
406.21        14.44914
406.66        14.35028
407.11        14.32758
407.55        14.35501
408.00        14.27156
408.45        14.08461
408.90        13.85949
409.34        13.67247
409.79        13.69621
410.24        13.88188
410.68        13.96823
411.13        13.92727
411.58        13.91239
412.03        13.93064
412.47         13.9216
412.92        13.87987
413.37        13.82896
413.81        13.77071
414.26        13.71843
414.71        13.67245
415.15           13.63
415.60        13.59757
416.05        13.58959
416.49        13.60846
416.94         13.6474
417.39         13.6839
417.83        13.68503
418.28        13.63815
418.73        13.54415
419.17        13.43642
419.62        13.37305
420.07        13.37265
420.51        13.42929
420.96        13.48754
421.41        13.47726
421.85        13.38509
422.30        13.17486
422.74        12.95343
423.19        13.03982
423.64        13.38857
424.08        13.61997
424.53        13.61753
424.98        13.58778
425.42        13.52204
425.87        13.19284
426.31        12.73447
426.76        12.62719
427.21        12.82693
427.65        12.84609
428.10        12.68495
428.54        12.66615
428.99        12.77913
429.44        12.96052
429.88        13.10393
430.33        12.88782
430.77        12.45357
431.22        12.35563
431.66        12.59174
432.11        12.76944
432.56        12.82633
433.00        12.87478
433.45        12.79508
433.89        12.50361
434.34        12.24846
434.78        11.62391
435.23        12.11502
435.67        12.55201
436.12        12.76564
436.57        12.88707
437.01        12.80383
437.46         12.7355
437.90        12.74885
438.35        12.77637
438.79        12.44299
439.24        12.30531
439.68        12.27208
440.13        12.29603
440.57        12.33546
441.02        12.43315
441.46        12.54015
441.91        12.38669
442.35        12.09661
442.80        12.22864
443.24         12.6771
443.69        12.71598
444.13        12.35222
444.58        12.19001
445.02        12.23138
445.47        12.16175
445.91        11.99419
446.36        11.91898
446.80        11.94275
447.24        12.00844
447.69        12.09378
448.13        12.19839
448.58        12.29151
449.02        12.31567
449.47        12.28993
449.91        12.30298
450.36        12.36254
450.80        12.41342
451.25        12.44323
451.69         12.4558
452.13        12.44389
452.58        12.40064
453.02        12.33253
453.47        12.25544
453.91        12.17664
454.36        12.11653
454.80        12.06597
455.24        11.99756
455.69        11.93903
456.13        11.90521
456.58         11.9154
457.02        12.04102
457.46        12.20747
457.91          12.199
458.35        12.07451
458.79        12.00068
459.24        12.00308
459.68        11.96984
460.13        11.92618
460.57         11.8911
461.01        11.92352
461.46          12.024
461.90        12.10557
462.34        12.16014
462.79        12.36019
463.23        12.38184
463.68        12.30517
464.12         12.2358
464.56        12.20072
465.01        12.22531
465.45        12.24813
465.89        12.17597
466.34        12.04893
466.78        11.93487
467.22        11.85122
467.67        12.07314
468.11        12.06422
468.55        12.11964
468.99        12.07953
469.44         12.0699
469.88         12.0872
470.32        12.04548
470.77        11.97699
471.21        11.97231
471.65        12.04549
472.10         12.1718
472.54        12.30137
472.98        12.37435
473.42        12.38131
473.87         12.3088
474.31        12.21199
474.75        12.29098
475.20        12.51531
475.64        12.62442
476.08        12.59369
476.52        12.63275
476.97        12.75014
477.41        12.70387
477.85        12.62934
478.29        12.71864
478.74        12.66023
479.18        12.59643
479.62        12.84153
480.06        12.91919
480.50        12.95773
480.95        12.95165
481.39        12.90909
481.83        13.12398
482.27        13.21179
482.72        13.27082
483.16        13.55042
483.60        13.63413
484.04        13.61833
484.48        13.51542
484.93         13.5365
485.37        13.56188
485.81        14.04037
486.25        14.47711
486.69        13.95425
487.14        13.34035
487.58        14.48887
488.02        14.41345
488.46        14.47702
488.90        14.78687
489.34        14.15267
489.79        14.02359
490.23        14.51843
490.67        14.86549
491.11        15.10119
491.55        15.06483
491.99        14.86586
492.43        14.91319
492.88        15.23291
493.32         15.5325
493.76        15.74292
494.20        15.94334
494.64        16.12971
495.08        16.22924
495.52        16.26934
495.96        16.43848
496.41        16.73977
496.85        16.71266
497.29         16.4763
497.73          16.658
498.17         17.1859
498.61        17.49265
499.05         17.4846
499.49        17.44923
499.93        17.44167
500.37        17.41243
500.82        17.40051
501.26        17.51009
501.70        17.76322
502.14        17.76421
502.58        18.10616
503.02         18.2556
503.46        18.30797
503.90        18.30823
504.34        18.27361
504.78        18.29183
505.22        18.37187
505.66        18.45464
506.10          18.538
506.54        18.66993
506.98        18.84868
507.42        18.97247
507.86        19.16024
508.30         19.2441
508.74        19.26159
509.18        19.22161
509.62        19.17035
510.06        19.18247
510.50        19.27368
510.94        19.42106
511.38        19.58489
511.82        19.70084
512.26        19.74991
512.70        19.75374
513.14        19.73278
513.58        19.71155
514.02        19.70191
514.46        19.70984
514.90        19.73788
515.34        19.72206
515.78        19.77401
516.22        19.80177
516.66        19.83886
517.10        19.87891
517.54         19.9188
517.98        19.95666
518.42        19.97748
518.86        19.96236
519.30        19.91026
519.74        19.82885
520.18        19.74475
520.62        19.69849
521.06        19.70059
521.50         19.7432
521.93        19.80235
522.37        19.82923
522.81        19.81391
523.25        19.76425
523.69        19.70802
524.13        19.68992
524.57         19.7158
525.01        19.76882
525.45        19.80757
525.89        19.76806
526.32        19.63776
526.76        19.44996
527.20        19.25248
527.64        19.12298
528.08        19.08157
528.52         19.1021
528.96        19.15302
529.40        19.18433
529.83        19.17705
530.27        19.14611
530.71        19.09447
531.15        19.02648
531.59        18.94829
532.03        18.85946
532.46        18.76766
532.90        18.69934
533.34        18.65883
533.78        18.64412
534.22        18.65201
534.66        18.67507
535.09        18.70576
535.53        18.74475
535.97        18.78405
536.41        18.81434
536.85        18.83283
537.28         18.8432
537.72        18.84468
538.16        18.83444
538.60        18.81854
539.04        18.80638
539.47        18.80849
539.91         18.8518
540.35        18.93419
540.79        19.04911
541.22        19.18017
541.66        19.30057
542.10        19.40039
542.54        19.48841
542.97        19.56218
543.41        19.63111
543.85        19.69742
544.29        19.75954
544.72        19.82996
545.16        19.94418
545.60         20.1001
546.04        20.28953
546.47        20.48704
546.91         20.6456
547.35        20.75273
547.79        20.83039
548.22        20.89764
548.66         20.9805
549.10        21.10123
549.53        21.32536
549.97        21.61422
550.41        21.83115
550.84        21.95471
551.28          22.051
551.72        22.14525
552.15        22.25085
552.59        22.38269
553.03        22.52755
553.46        22.66565
553.90        22.78598
554.34        22.88186
554.77         22.9686
555.21        23.05274
555.65        23.14506
556.08        23.22487
556.52        23.33807
556.96         23.4643
557.39        23.60885
557.83        23.74912
558.27         23.7879
558.70         23.7486
559.14        23.75704
559.57        23.82042
560.01        23.90551
560.45        23.98928
560.88        24.02413
561.32        24.05494
561.75        24.14948
562.19        24.30615
562.63         24.5091
563.06        24.69162
563.50        24.66859
563.93        24.49548
564.37        24.48027
564.80          24.637
565.24         24.8179
565.68        24.97684
566.11        25.10422
566.55        25.19437
566.98          25.249
567.42        25.29619
567.85        25.36194
568.29        25.47555
568.72        25.57704
569.16        25.67429
569.60        25.86143
570.03        26.15026
570.47        26.20916
570.90        26.33794
571.34        26.77708
571.77        26.87969
572.21        26.86169
572.64        27.06715
573.08        27.19136
573.51        27.27286
573.95        27.44224
574.38        27.41979
574.82        27.60781
575.25        27.63296
575.69         27.5634
576.12        27.50572
576.56        28.03574
576.99        28.16324
577.42        27.95042
577.86        27.99012
578.29        28.13163
578.73        27.84879
579.16        27.85188
579.60        27.86334
580.03        27.81298
580.47          27.669
580.90        27.60104
581.33        27.67489
581.77         27.5392
582.20        27.38487
582.64        27.12507
583.07        27.01764
583.51        26.92295
583.94        26.97129
584.37        26.88328
584.81        26.65494
585.24        26.50266
585.68        26.49869
586.11        26.28951
586.54        26.16755
586.98        26.23719
587.41         26.4705
587.85        26.06624
588.28         25.8954
588.71        26.09478
589.15        26.16238
589.58        25.83444
590.01        26.20164
590.45        26.21404
590.88        25.72357
591.31        25.66321
591.75        25.89252
592.18        25.93284
592.61        25.76507
593.05        26.07428
593.48        26.30099
593.91        25.84344
594.35        26.05877
594.78        26.25915
595.21        26.40001
595.65        26.45794
596.08        26.31375
596.51        26.69328
596.94        26.67244
597.38        26.96795
597.81        27.35145
598.24        27.20702
598.68        27.69443
599.11        28.02917
599.54         28.4025
599.97        28.49632
600.41        29.00657
600.84        29.28734
601.27        29.52433
601.70        29.86292
602.14        30.02833
602.57        30.54359
603.00         30.9357
603.43        31.46787
603.87        31.77511
604.30        32.01423
604.73        32.52749
605.16        33.06471
605.60        33.28819
606.03        33.75583
606.46        34.33609
606.89        34.39202
607.32        34.88903
607.76        35.52401
608.19        35.56755
608.62         35.8754
609.05        36.21766
609.48        36.54329
609.92        36.77811
610.35         37.3452
610.78        37.62079
611.21        37.53139
611.64        38.02882
612.07        38.28187
612.50        38.60224
612.94         38.9087
613.37        39.23375
613.80        39.46507
614.23        39.84057
614.66        40.11599
615.09        40.34037
615.52        40.59266
615.96        40.91917
616.39        40.90117
616.82         41.2622
617.25        41.64185
617.68        41.91015
618.11        42.08908
618.54        42.13739
618.97        42.50554
619.40        42.79993
619.84         43.2567
620.27        43.29209
620.70        43.35133
621.13        43.27139
621.56        43.73795
621.99        43.71325
622.42         43.7853
622.85        43.66631
623.28        44.13533
623.71        44.36713
624.14        43.87279
624.57         43.9894
625.00        44.22978
625.43        44.04081
625.86        44.15986
626.29        44.22723
626.72        44.38113
627.15        44.05688
627.58        43.86958
628.01        43.77811
628.44        43.26428
628.87        42.97823
629.30        43.16027
629.73        42.83913
630.16        42.25799
630.59        42.20479
631.02         41.9054
631.45        41.66734
631.88        41.37724
632.31        41.04565
632.74         40.6838
633.17        40.33454
633.60         39.9705
634.03        39.60363
634.46        39.23933
634.89        38.85905
635.32        38.42419
635.75        37.93499
636.18        37.42818
636.61        36.94161
637.04        36.48956
637.47        36.10374
637.89        35.86489
638.32        35.70231
638.75        35.44382
639.18        35.06587
639.61        34.65286
640.04        34.23889
640.47         33.8596
640.90        33.53658
641.33        33.24676
641.76        32.98729
642.18        32.83568
642.61        32.65865
643.04        32.56002
643.47        32.49265
643.90        32.43924
644.33         32.3934
644.76        32.36133
645.18        32.34535
645.61        32.34631
646.04        32.36794
646.47        32.40592
646.90        32.48124
647.33        32.62437
647.75        32.84394
648.18        33.14498
648.61        33.47951
649.04        33.78049
649.47         34.0446
649.89        34.23693
650.32        34.42472
650.75        34.87737
651.18        35.52009
651.61        35.92286
652.03        36.06458
652.46        36.28629
652.89        36.71934
653.32        37.11298
653.74        37.58278
654.17        38.46433
654.60        38.61446
655.03        38.59386
655.46         39.1465
655.88        40.00788
656.31        41.03883
656.74        41.68431
657.16        41.53926
657.59        41.64027
658.02        41.60168
658.45        42.79519
658.87        42.79877
659.30        43.26395
659.73        43.21443
660.15        43.54119
660.58        44.11341
661.01        44.45252
661.44        44.59558
661.86         44.8802
662.29        45.28891
662.72        45.43774
663.14        45.41245
663.57        45.68023
664.00        46.21063
664.42        46.56267
664.85        46.72581
665.27        46.95329
665.70        47.24663
666.13        47.49504
666.55        47.69862
666.98          47.881
667.41        48.06737
667.83        48.29208
668.26        48.55708
668.69        48.86345
669.11        49.16109
669.54        49.38296
669.96        49.52512
670.39        49.54276
670.82        49.53553
671.24        49.78865
671.67        50.25979
672.09        50.60574
672.52        50.78394
672.94        50.91389
673.37        51.02262
673.80        51.10613
674.22        51.19619
674.65         51.2854
675.07        51.40521
675.50        51.55711
675.92        51.72467
676.35        51.99097
676.77        52.10147
677.20        52.27214
677.62        52.43098
678.05        52.56809
678.47        52.68026
678.90        52.77893
679.32        52.87059
679.75        52.97281
680.17        53.09303
680.60        53.23547
681.02        53.38265
681.45        53.51348
681.87        53.63841
682.30        53.67801
682.72        53.68729
683.15        53.94823
683.57        54.38528
684.00        54.47923
684.42        54.29211
684.85        54.34477
685.27        54.64849
685.70        54.95102
686.12        55.17103
686.54        55.24317
686.97        55.18011
687.39        55.18847
687.82        55.30328
688.24        55.28511
688.66        55.41205
689.09        55.55408
689.51        55.77188
689.94        55.94425
690.36        56.06615
690.78        56.14337
691.21        56.20171
691.63        56.33373
692.06         56.5203
692.48         56.6117
692.90        56.62903
693.33        56.69835
693.75        56.83111
694.17        57.00366
694.60        57.16529
695.02        57.22247
695.44        57.20827
695.87        57.24882
696.29        57.38346
696.71        57.70395
697.14        58.11635
697.56         58.2454
697.98        58.09689
698.41         58.2653
698.83        58.41025
699.25        58.57481
699.68        58.64298
700.10        58.76934
700.52        58.94567
700.94        59.13877
701.37        59.30419
701.79        59.39312
702.21         59.3819
702.64        59.30636
703.06        59.22178
703.48        59.22887
703.90         59.3575
704.33        59.57699
704.75        59.83802
705.17        60.03746
705.59        60.14319
706.01        60.15707
706.44        60.13736
706.86        60.27924
707.28        60.43081
707.70        60.71859
708.12        61.01166
708.55        61.10708
708.97        61.01272
709.39        60.94646
709.81        60.96961
710.23        61.02932
710.66        61.14297
711.08        61.38488
711.50        61.67165
711.92        61.84691
712.34        61.88574
712.76        61.83969
713.19        61.75746
713.61        61.76315
714.03        61.86927
714.45        62.03107
714.87        62.22224
715.29        62.40799
715.71        62.57047
716.13        62.72414
716.56        62.82554
716.98        62.87097
717.40        62.84148
717.82        62.73404
718.24        62.61075
718.66         62.6161
719.08        62.75434
719.50        62.90385
719.92        63.03933
720.34        63.19427
720.76        63.35282
721.19        63.47849
721.61        63.57433
722.03        63.63086
722.45        63.64983
722.87        63.63631
723.29        63.61383
723.71         63.6208
724.13        63.67092
724.55        63.75888
724.97        63.87574
725.39        64.00044
725.81        64.12324
726.23        64.24901
726.65        64.37086
727.07        64.47986
727.49        64.57365
727.91        64.64744
728.33         64.7118
728.75        64.78687
729.17        64.87601
729.59        64.97709
730.01         65.0662
730.43        65.10435
730.85        65.08743
731.27        65.02907
731.69        64.97593
732.10        65.00111
732.52        65.10408
732.94        65.29898
733.36        65.51743
733.78        65.60599
734.20        65.52948
734.62        65.67538
735.04        65.12123
735.46        65.59825
735.88        65.38261
736.30        65.58747
736.72        65.72394
737.13        65.76923
737.55        65.69904
737.97        65.67995
738.39        65.73515
738.81        65.63654
739.23        65.45895
739.65        65.61166
740.06        65.98474
740.48        66.17068
740.90        66.11568
741.32        66.10188
741.74        66.08653
742.16        66.16486
742.57        66.33195
742.99        66.56229
743.41         66.8011
743.83        66.95358
744.25        66.99919
744.67         66.9557
745.08        66.89938
745.50        66.92067
745.92        67.05122
746.34        67.25649
746.75        67.47176
747.17        67.53555
747.59        67.41741
748.01        67.25553
748.42        67.16593
748.84        66.75612
749.26        67.12644
749.68        67.02971
750.09        66.83983
750.51        66.92068
750.93        67.24123
751.35         67.4843
751.76        67.58601
752.18        67.62833
752.60         67.5938
753.01        67.45755
753.43        67.31076
753.85        67.23206
754.27        67.38437
754.68        67.84755
755.10        68.10652
755.52        68.32874
755.93        68.34055
756.35        68.24999
756.77        68.11356
757.18        67.99666
757.60        67.98396
758.02        68.06101
758.43        68.17562
758.85        68.40355
759.26        68.66356
759.68        68.43071
760.10        68.35545
760.51        67.97935
760.93        68.03767
761.34        68.16611
761.76        68.92512
762.18         69.1138
762.59         68.9379
763.01        68.95083
763.42        69.22984
763.84        69.40305
764.26        69.42702
764.67        69.26598
765.09        69.03197
765.50        68.93402
765.92        68.99538
766.33        69.04235
766.75        69.00001
767.16        68.89719
767.58        68.74732
768.00        68.85362
768.41         69.1973
768.83        69.33666
769.24         69.2654
769.66        69.34422
770.07         69.5256
770.49        69.54558
770.90        69.43449
771.32         69.4244
771.73        69.52849
772.15        69.55981
772.56        69.52718
772.97        69.57276
773.39        69.66256
773.80        69.69067
774.22        69.56158
774.63        69.80708
775.05        70.27046
775.46        70.49081
775.88         70.3877
776.29         70.2439
776.70        70.13647
777.12        70.09661
777.53        70.17253
777.95        70.32441
778.36        70.50094
778.77        70.59815
779.19        70.60076
779.60        70.55653
780.02        70.46606
780.43        70.42152
780.84        70.46067
781.26        70.26057
781.67          70.363
782.09        70.65825
782.50        71.04526
782.91        71.52706
783.33        70.79541
783.74        70.72041
784.15        70.92555
784.57        70.98452
784.98        70.89748
785.39        70.91292
785.81        71.04147
786.22        71.18607
786.63        71.31116
787.04        71.42922
787.46        71.54185
787.87        71.58753
788.28        71.55527
788.70        71.66119
789.11        71.54153
789.52        71.45996
789.93        71.35451
790.35        71.40118
790.76        71.58521
791.17        71.60466
791.58        71.49672
792.00         71.5751
792.41         71.8372
792.82          72.007
793.23        72.03276
793.65        72.03992
794.06        72.12033
794.47         72.2237
794.88        72.21845
795.29        72.81967
795.71         72.2728
796.12        72.12106
796.53         71.9304
796.94        71.93993
797.35        72.12605
797.76        72.21484
798.18        72.21383
798.59        72.31444
799.00        72.52295
799.41        72.60924
799.82        72.70766
800.23        72.72941
800.64        72.72408
801.06        72.64818
801.47        72.58709
801.88        72.60698
802.29        72.72052
802.70        72.90613
803.11        73.10429
803.52        73.20961
803.93        73.20021
804.34        73.11334
804.75        72.99061
805.17        72.92535
805.58        72.98293
805.99        73.00839
806.40         73.0149
806.81        73.28268
807.22        73.65886
807.63        73.56586
808.04         73.0986
808.45        72.92798
808.86        73.11711
809.27        73.29227
809.68        73.36248
810.09         73.3458
810.50        73.22113
810.91        72.99437
811.32          72.766
811.73         72.7116
812.14        72.87538
812.55        73.16814
812.96        73.49777
813.37         73.8094
813.78        73.99277
814.19        73.84068
814.60        73.47868
815.01        73.31348
815.42        73.40127
815.83        73.55978
816.24        73.70518
816.65         73.7626
817.05        73.69873
817.46        73.51177
817.87          73.326
818.28         73.2696
818.69        73.37305
819.10        73.60461
819.51        73.87907
819.92         74.0397
820.33        74.04082
820.74        73.92632
821.14        73.78646
821.55        73.80079
821.96         73.9847
822.37        74.27826
822.78        74.58766
823.19        74.74539
823.60        74.69952
824.00        74.53653
824.41         74.2661
824.82        73.99468
825.23        73.76785
825.64        73.55982
826.04        73.45387
826.45        73.54359
826.86        73.84556
827.27        74.34258
827.68         74.8726
828.08        75.18842
828.49        75.15792
828.90        74.87344
829.31        74.52673
829.72         74.4574
830.12        74.76762
830.53        75.30022
830.94        75.86809
831.35         76.1246
831.75        75.99133
832.16        75.53124
832.57        74.92244
832.97        74.43626
833.38        74.17995
833.79        74.10058
834.20        74.13995
834.60        74.20115
835.01        74.26263
835.42        74.34888
835.82        74.51252
836.23        74.74693
836.64        75.06489
837.04        75.45562
837.45        75.78474
837.86        75.95361
838.26        75.94991
838.67        75.78551
839.08        75.57904
839.48        75.51134
839.89        75.62742
840.29        75.87514
840.70        76.15746
841.11         76.3195
841.51        76.33424
841.92        76.21014
842.33        76.02049
842.73        75.88003
843.14        75.77805
843.54        75.71659
843.95         75.6574
844.35        75.56035
844.76        75.41161
845.17        75.24268
845.57        75.10703
845.98        75.04552
846.38         75.0911
846.79          75.192
847.19        75.32607
847.60         75.4051
848.00        75.42482
848.41         75.3756
848.81        75.29112
849.22        75.15346
849.62        75.01032
850.03        74.84219
850.43         74.7049
850.84        74.60149
851.24        74.58858
851.65        74.61337
852.05        74.72938
852.46        74.89937
852.86        75.09009
853.27        75.30521
853.67        75.43679
854.07        75.52052
854.48        75.51679
854.88        75.46964
855.29        75.29714
855.69        75.06902
856.10        74.72733
856.50        74.36177
856.90        74.02738
857.31        73.83631
857.71        73.85938
858.12        74.01326
858.52        74.25589
858.92        74.38539
859.33        74.32626
859.73        74.15302
860.13        73.90077
860.54        73.66923
860.94        73.53578
861.34         73.4416
861.75        73.32811
862.15        73.16557
862.55        72.92342
862.96        72.65157
863.36        72.38682
863.76        72.17065
864.17        72.01247
864.57        71.89916
864.97        71.85866
865.38        71.91557
865.78        72.10912
866.18        72.42181
866.58        72.71554
866.99        72.75974
867.39        72.54353
867.79        72.10308
868.19        71.67284
868.60        71.57401
869.00        71.85899
869.40        72.46778
869.80        73.17375
870.21        73.55225
870.61        73.53733
871.01        73.19103
871.41        72.73328
871.81        72.47642
872.22        72.46993
872.62         72.6608
873.02        72.91532
873.42        72.98238
873.82        72.80373
874.22        72.49603
874.63         72.2374
875.03        72.24491
875.43        72.55721
875.83        73.06115
876.23        73.62822
876.63         74.0527
877.03        74.24824
877.44        74.26617
877.84        74.10484
878.24        73.74356
878.64        73.22915
879.04        72.59168
879.44        71.99448
879.84        71.65609
880.24        71.61343
880.64        71.83733
881.04         72.1713
881.44        72.32864
881.84        72.22818
882.24        71.92284
882.65        71.58527
883.05        71.61718
883.45        72.04489
883.85        72.73594
884.25        73.40985
884.65        73.66183
885.05        73.42252
885.45        72.82962
885.85        72.15038
886.25        71.84378
886.65        72.03786
887.05          72.577
887.45        73.23061
887.85        73.65059
888.25         73.7318
888.65        73.57665
889.04        73.28528
889.44          73.061
889.84        72.95512
890.24        72.90736
890.64        72.86195
891.04        72.74393
891.44        72.54504
891.84        72.31733
892.24        72.12569
892.64        72.05553
893.04        72.12189
893.44        72.28497
893.83        72.51171
894.23        72.68382
894.63        72.79099
895.03        72.85632
895.43        72.87994
895.83         72.8661
896.23        72.82796
896.63        72.76243
897.02        72.70451
897.42        72.74916
897.82        72.89525
898.22        73.13092
898.62        73.39165
899.01        73.57406
899.41        73.62938
899.81        73.59332
900.21        73.53587
900.61        73.57732
901.00        73.73357
901.40        73.97538
901.80        74.21606
902.20         74.3364
902.59        74.31436
902.99        74.17222
903.39        73.97889
903.79        73.83237
904.18        73.76479
904.58        73.76624
904.98        73.79011
905.38        73.77467
905.77        73.69229
906.17        73.55743
906.57        73.42587
906.96        73.40816
907.36        73.50616
907.76        73.72883
908.15        73.94801
908.55        73.87778
908.95        73.50853
909.34        72.89249
909.74         72.3501
910.14        72.32681
910.53        72.89562
910.93        73.88546
911.33         74.9177
911.72         75.3458
912.12        75.01298
912.52        74.19193
912.91        73.21474
913.31        72.57381
913.70        72.38743
914.10        72.48071
914.49        72.81293
914.89        73.24276
915.29        73.69238
915.68        74.20179
916.08        74.62443
916.47        74.71732
916.87        74.46765
917.26        73.90613
917.66        73.26768
918.05        72.91061
918.45        72.91237
918.84        73.20354
919.24        73.57436
919.64        73.74792
920.03        73.66478
920.42        73.42426
920.82        73.15292
921.21        73.02915
921.61        73.09184
922.00        73.27827
922.40        73.55725
922.79        73.95808
923.19        74.40414
923.58        74.91596
923.98        75.32095
924.37        75.42048
924.77        75.17309
925.16        74.61015
925.55        73.95116
925.95        73.58283
926.34        73.61691
926.74        73.95854
927.13        74.39996
927.52        74.49159
927.92        74.17442
928.31        73.59179
928.70        73.03983
929.10        72.95876
929.49        73.43874
929.89        74.28689
930.28         75.2935
930.67        75.97224
931.07        76.13261
931.46        75.92608
931.85        75.46975
932.24        74.98852
932.64        74.58487
933.03        74.22346
933.42        73.91457
933.82        73.67406
934.21         73.5187
934.60        73.47413
934.99        73.58994
935.39        73.89625
935.78        74.40507
936.17        75.06449
936.56        75.71746
936.96        76.10252
937.35        76.18491
937.74        75.97794
938.13        75.63182
938.53         75.3839
938.92        75.29622
939.31        75.31419
939.70        75.32597
940.09        75.13136
940.49        74.68425
940.88        74.12683
941.27        73.62009
941.66        73.39523
942.05        73.50277
942.44        73.86711
942.84        74.37616
943.23        74.79077
943.62        75.05035
944.01        75.19252
944.40        75.25663
944.79        75.32115
945.18        75.40469
945.57         75.4606
945.97        75.42729
946.36        75.29732
946.75        75.04392
947.14         74.6997
947.53        74.32704
947.92        74.02515
948.31        73.83952
948.70        73.76537
949.09        73.76077
949.48        73.74807
949.87        73.70982
950.26        73.66921
950.65         73.6759
951.04        73.80959
951.43        74.07688
951.82        74.43076
952.21        74.78513
952.60        75.00523
952.99        75.03289
953.38        74.88332
953.77        74.61128
954.16        74.30524
954.55        73.99393
954.94        73.67143
955.33        73.29156
955.72        72.77444
956.11        72.12643
956.50        71.40367
956.89        70.75011
957.28        70.39237
957.66        70.42873
958.05        70.79154
958.44        71.32895
958.83        71.79021
959.22         72.0673
959.61        72.14143
960.00         72.1396
960.39         72.2841
960.78        72.59997
961.16        73.06522
961.55        73.30523
961.94        72.80784
962.33        71.54443
962.72        69.79338
963.11        68.14735
963.49        67.44766
963.88        67.85925
964.27        69.12489
964.66        70.81452
965.04        72.13164
965.43        72.67564
965.82        72.70353
966.21        72.39893
966.60        72.07756
966.98        71.86987
967.37        71.59544
967.76        71.34174
968.15        71.28333
968.53        71.46953
968.92        71.92163
969.31        72.42053
969.69        72.56746
970.08        72.29743
970.47         71.7348
970.86        71.23782
971.24        71.45286
971.63        72.41701
972.02        73.84563
972.40        75.36166
972.79        76.33765
973.17        76.72923
973.56        76.65772
973.95        76.28372
974.33         75.8523
974.72        75.47121
975.11        75.05079
975.49        74.62907
975.88        74.31308
976.26        74.13464
976.65        74.10784
977.04        74.10715
977.42        73.86242
977.81        73.26226
978.19        72.34633
978.58         71.4613
978.96        71.16418
979.35        71.55804
979.74        72.51791
980.12        73.61623
980.51        73.92944
980.89        73.37228
981.28        72.11657
981.66        70.72929
982.05        70.28119
982.43        71.04195
982.82         72.5828
983.20        74.37643
983.59        75.46249
983.97        75.66891
984.35        75.23666
984.74        74.35393
985.12        73.36579
985.51        72.48406
985.89        71.66636
986.28        71.06736
986.66        70.99107
987.04         71.4017
987.43        72.18813
987.81        73.13081
988.20        73.70165
988.58        73.78789
988.96        73.54957
989.35        72.98225
989.73         72.1946
990.12        71.21663
990.50        69.90877
990.88        68.73751
991.27        68.73339
991.65          70.089
992.03        72.43447
992.42          74.577
992.80        75.31903
993.18        74.37537
993.56        71.95049
993.95        68.81734
994.33        67.00665
994.71        67.53561
995.10        69.50126
995.48        71.78386
995.86        73.14887
996.24        73.44648
996.63        72.98652
997.01        72.17914
997.39        71.74782
997.77         72.0122
998.15        72.73914
998.54        73.35229
998.92         73.1021
999.30        71.88146
999.68        69.95426
1000.06        68.13036
1000.45        67.81391
1000.83        69.39172
1001.21        72.24852
1001.59        75.33018
1001.97        77.14785
1002.35        77.33566
1002.73        76.29664
1003.12        74.41944
1003.50        72.56136
1003.88        71.30543
1004.26        70.38424
1004.64        69.91916
1005.02        70.03154
1005.40        70.62429
1005.78        71.78317
1006.16        72.93377
1006.54        72.96739
1006.92        71.64844
1007.30        69.26022
1007.69        66.79137
1008.07        65.83328
1008.45         66.8395
1008.83        69.26442
1009.21        72.09937
1009.59        73.91846
1009.97        74.33878
1010.35        73.65545
1010.73        72.34996
1011.11        71.63919
1011.49        72.09555
1011.86        73.37025
1012.24        74.65596
1012.62         75.1413
1013.00        74.70543
1013.38        73.75127
1013.76        72.71838
1014.14        72.27937
1014.52         72.6516
1014.90         73.5532
1015.28        74.82301
1015.66        76.13313
1016.04        77.18216
1016.41        78.08933
1016.79         78.3716
1017.17        77.68477
1017.55        76.12975
1017.93        74.01832
1018.31        71.89519
1018.69        70.60488
1019.06        70.45987
1019.44        71.23557
1019.82        73.02623
1020.20        75.75989
1020.58        78.89491
1020.95        82.00018
1021.33        84.20269
1021.71        84.46314
1022.09         82.7306
1022.46        79.23688
1022.84        74.76754
1023.22        70.63439
1023.60        67.43969
1023.97        64.99922
1024.35        63.41996
1024.73        62.17563
