SpectraSmart Spectrum 2.9.0.0
--------- Device Information -----------
Spectrum Name :  反射率_0
Saving Time :  2024/04/27 22:55:19
Spectro-Module Model Name : SE2030-DUVN
Spectro-Module Serial Number : OS361AC55029948
Wavelength Start : 200
Wavelength End : 1025
Wavelength Unit : Wavelength(nm)
Spectrum Unit : Reflectance(%)
-----------Spectrum Setting ------------
Integration Time : 20ms
Average : 10
Boxcar : 0
Background removal :  enabled
linearity correction :  enabled
SC :  disabled
Intensity correction :  disabled
DWT denoise :  enabled
savitzky-golay :  disabled
FFT :  disabled
Running average :  disabled
Kalman :  disabled
High pass :  disabled
---------------BEGIN--------------------
Wavelength(nm)             Reflectance(%)
200.29               0
200.75       -46.30207
201.21       -26.42439
201.67       -3.309747
202.13        12.77123
202.58        23.93105
203.04        34.09999
203.50        43.66083
203.96        50.87481
204.42        55.22938
204.88        57.42433
205.34        58.24954
205.80        58.78691
206.26        59.22479
206.72        58.73158
207.18         57.2485
207.64        55.77561
208.10        55.31623
208.55        56.62857
209.01        55.82156
209.47        50.25754
209.93        36.73586
210.39         1.73761
210.85       -105.2797
211.31       -243.6456
211.77       -95.35091
212.23        7.939332
212.69        45.03532
213.14        55.80731
213.60        54.01005
214.06        42.75633
214.52        21.19757
214.98        7.619783
215.44         18.6666
215.90        36.73891
216.36        50.17727
216.81        56.08634
217.27        56.55778
217.73        54.42488
218.19         50.4074
218.65        45.10126
219.11        39.05981
219.57        31.83735
220.02        24.54635
220.48        21.79006
220.94        24.61177
221.40        31.21049
221.86        39.13695
222.32        45.97143
222.77        51.16781
223.23        54.92194
223.69        57.21902
224.15        58.03286
224.61        57.57075
225.06        55.79207
225.52        53.25492
225.98         50.8792
226.44        49.35055
226.90        48.55014
227.36        48.11814
227.81        47.58659
228.27        46.81771
228.73        45.83728
229.19         44.7422
229.65        43.78982
230.10        43.07275
230.56        42.82994
231.02        42.68013
231.48        42.23233
231.93        41.41488
232.39        40.40683
232.85        39.76755
233.31        40.32204
233.77        42.03168
234.22        44.59855
234.68        46.95616
235.14        47.80087
235.60        46.90923
236.05        44.40683
236.51        41.44411
236.97        40.60841
237.43        42.83733
237.88        47.52065
238.34        52.24352
238.80        54.40861
239.26        53.22726
239.71        48.11938
240.17         39.0709
240.63        33.11161
241.08        37.23619
241.54        46.72138
242.00        54.79016
242.46        58.50875
242.91        58.61913
243.37        55.07452
243.83        46.24205
244.28        36.32735
244.74        39.88487
245.20        53.71967
245.66        63.66619
246.11        65.22532
246.57        59.77626
247.03        46.91187
247.48          26.327
247.94        11.77438
248.40        17.76455
248.85        35.95855
249.31         54.8512
249.77        65.36758
250.22        68.01238
250.68        67.01425
251.14        64.21105
251.59        60.43265
252.05        55.53234
252.51        47.67678
252.96        36.75637
253.42        29.34017
253.88        29.69539
254.33          35.537
254.79        41.36608
255.25        43.15292
255.70        41.86649
256.16        39.87523
256.62        38.86679
257.07        40.55425
257.53        44.28127
257.99        48.12306
258.44        51.03724
258.90         52.5369
259.35        52.52887
259.81         51.8728
260.27         50.5672
260.72        48.60155
261.18         46.5547
261.63         44.4274
262.09        42.67186
262.55        41.46573
263.00        40.71821
263.46        40.37978
263.91        40.29273
264.37        40.51041
264.83        40.86036
265.28        41.24624
265.74         41.4959
266.19        41.23523
266.65        40.51637
267.11        39.43893
267.56        38.21473
268.02        37.27715
268.47        36.70446
268.93        36.40037
269.38        36.25326
269.84        36.09857
270.30        35.86115
270.75        35.58262
271.21        35.24253
271.66        34.76649
272.12        34.16785
272.57        33.41701
273.03        32.60894
273.48        31.82641
273.94        31.15584
274.39        30.56905
274.85        30.06054
275.31        29.54002
275.76        28.98116
276.22         28.4323
276.67        27.93752
277.13        27.64099
277.58        27.49645
278.04        27.48336
278.49        27.41462
278.95        27.12631
279.40        26.55551
279.86        25.83467
280.31        25.08632
280.77        24.59774
281.22        24.38127
281.68        24.38204
282.13        24.44548
282.59         24.3964
283.04        24.18321
283.50        23.87566
283.95        23.55856
284.41        23.39067
284.86        23.38217
285.32        23.48535
285.77        23.58033
286.22        23.53175
286.68        23.33268
287.13        23.00783
287.59        22.68093
288.04         22.4645
288.50        22.41403
288.95        22.46465
289.41         22.5543
289.86        22.54954
290.32        22.44242
290.77        22.26981
291.22        22.11186
291.68        22.08133
292.13        22.19084
292.59        22.40917
293.04        22.66888
293.50        22.88923
293.95        23.04325
294.40        23.17777
294.86        23.32946
295.31        23.54672
295.77        23.85129
296.22        24.20179
296.68          24.613
297.13        25.08705
297.58        25.60983
298.04        26.16945
298.49        26.68699
298.95        27.05462
299.40        27.25914
299.85        27.33473
300.31        27.40269
300.76         27.6214
301.21        28.03263
301.67         28.5847
302.12        29.14525
302.58        29.54761
303.03         29.7437
303.48        29.79906
303.94        29.83286
304.39        29.98169
304.84        30.28578
305.30        30.69188
305.75        31.08616
306.20        31.33408
306.66        31.41804
307.11         31.3636
307.57        31.27286
308.02        31.24063
308.47        31.30703
308.93        31.43324
309.38        31.54463
309.83        31.55073
310.29        31.44325
310.74        31.24894
311.19        31.02646
311.65        30.86329
312.10         30.7651
312.55        30.70411
313.00        30.65863
313.46        30.59741
313.91        30.50239
314.36        30.39195
314.82        30.23771
315.27        29.98896
315.72        29.65122
316.18        29.25105
316.63        28.86062
317.08        28.61404
317.53        28.53798
317.99         28.5918
318.44        28.69588
318.89        28.70257
319.35        28.57078
319.80        28.33966
320.25        28.07288
320.70        27.88156
321.16         27.7864
321.61        27.75299
322.06        27.72295
322.51        27.60812
322.97        27.38493
323.42        27.10248
323.87        26.79627
324.32        26.52854
324.78        26.32038
325.23         26.1519
325.68        26.02553
326.13        25.95107
326.59        25.90663
327.04        25.90811
327.49        25.88828
327.94        25.74353
328.39        25.45307
328.85        25.03839
329.30        24.58885
329.75        24.25995
330.20        24.10403
330.66        24.07659
331.11        24.11949
331.56        24.08435
332.01        23.93082
332.46        23.70314
332.92        23.45881
333.37        23.31947
333.82        23.31017
334.27        23.37978
334.72        23.48078
335.17        23.54246
335.63        23.52991
336.08        23.48372
336.53        23.38613
336.98        23.21637
337.43        22.99046
337.88        22.72417
338.34        22.48688
338.79        22.39661
339.24        22.47556
339.69        22.67979
340.14         22.9437
340.59        23.15382
341.05        23.26809
341.50        23.32657
341.95        23.30788
342.40        23.19283
342.85        22.99503
343.30        22.71029
343.75        22.44169
344.20        22.35947
344.66        22.49355
345.11        22.79669
345.56         23.1119
346.01        23.17905
346.46        22.94714
346.91        22.50031
347.36        22.01527
347.81        21.76311
348.26        21.80797
348.72        22.06827
349.17        22.39498
349.62        22.55047
350.07        22.47006
350.52        22.21925
350.97        21.93435
351.42        21.82994
351.87        21.94852
352.32        22.21238
352.77        22.46237
353.22        22.46318
353.67        22.17266
354.13        21.69054
354.58        21.16158
355.03        20.86248
355.48        20.86433
355.93        21.08691
356.38        21.38257
356.83        21.52093
357.28        21.44307
357.73        21.22068
358.18        20.96687
358.63        20.85561
359.08        20.92109
359.53         21.0907
359.98         21.2625
360.43        21.28574
360.88        21.12513
361.33        20.83594
361.78        20.48549
362.23        20.21504
362.68         20.0724
363.13        19.95186
363.58        19.80875
364.03        19.94108
364.48        19.73531
364.93         19.6848
365.38         19.6202
365.83        19.56675
366.28        19.51686
366.73        19.45954
367.18        19.38286
367.63        19.25716
368.08        19.08232
368.53        18.87823
368.98        18.65697
369.43         18.4352
369.88        18.22812
370.33        18.03591
370.78        17.88701
371.23        17.82663
371.68        17.85074
372.13        17.93142
372.58        18.01562
373.03        18.01485
373.48        17.90779
373.93        17.73307
374.38        17.50436
374.83        17.24623
375.28        16.98364
375.72        16.70021
376.17         16.4907
376.62        16.46348
377.07         16.6186
377.52        16.90632
377.97         17.1921
378.42        17.26194
378.87        17.07596
379.32        16.71481
379.77        16.28627
380.22        15.95659
380.67        15.77553
381.11        15.68891
381.56        15.68298
382.01        15.73185
382.46        15.81155
382.91        15.93572
383.36        16.04012
383.81        16.02056
384.26        15.86193
384.71        15.58502
385.15        15.27858
385.60        15.11988
386.05        15.13487
386.50        15.28049
386.95         15.4561
387.40        15.49967
387.85        15.38533
388.29        15.16872
388.74        14.96375
389.19         14.8951
389.64        14.97875
390.09        15.14732
390.54        15.33618
390.98        15.44319
391.43        15.44032
391.88        15.36989
392.33         15.2255
392.78         15.0208
393.23        14.78494
393.67        14.45811
394.12        14.13443
394.57        14.10793
395.02        14.13996
395.47        14.17947
395.91        14.13764
396.36        14.14353
396.81        14.18718
397.26        14.17679
397.71        14.12199
398.15        14.09311
398.60        14.10979
399.05        14.09001
399.50        14.05081
399.95        14.11051
400.39         14.2231
400.84        14.17877
401.29        13.98849
401.74        13.80984
402.18        13.69357
402.63        13.66303
403.08        13.69738
403.53        13.68475
403.97        13.61794
404.42        13.58112
404.87         13.5787
405.32        13.58805
405.76        13.60499
406.21        13.59855
406.66        13.57332
407.11        13.60333
407.55        13.65136
408.00         13.5738
408.45        13.39007
408.90        13.18299
409.34        13.02962
409.79        13.08594
410.24        13.29204
410.68        13.37834
411.13        13.31646
411.58        13.26352
412.03        13.24515
412.47        13.23552
412.92        13.23549
413.37        13.25198
413.81        13.27085
414.26        13.28279
414.71        13.28071
415.15           13.27
415.60        13.24921
416.05        13.21965
416.49        13.18581
416.94        13.14514
417.39        13.10553
417.83        13.08123
418.28        13.06887
418.73        13.05868
419.17         13.0479
419.62        13.03358
420.07        13.01966
420.51        13.01822
420.96        13.00935
421.41         12.9778
421.85        12.92109
422.30        12.78448
422.74        12.64292
423.19        12.76848
423.64        13.10962
424.08        13.30941
424.53        13.27494
424.98        13.24141
425.42        13.20966
425.87        12.94394
426.31        12.56161
426.76        12.51782
427.21        12.76356
427.65        12.82009
428.10        12.68197
428.54        12.66577
428.99         12.7648
429.44        12.91889
429.88        13.03617
430.33        12.82047
430.77         12.4151
431.22          12.363
431.66        12.65545
432.11        12.88658
432.56        12.98669
433.00        13.06685
433.45        13.00066
433.89        12.71223
434.34        12.44786
434.78        11.76536
435.23         12.1932
435.67        12.61225
436.12        12.86225
436.57        13.04227
437.01         13.0187
437.46         12.9921
437.90        13.02286
438.35        13.05242
438.79         12.6972
439.24        12.52553
439.68        12.44896
440.13        12.41767
440.57        12.41446
441.02        12.52269
441.46        12.69596
441.91        12.64409
442.35        12.44654
442.80        12.62231
443.24        13.05591
443.69        13.01426
444.13        12.54728
444.58        12.33166
445.02        12.38224
445.47        12.36495
445.91         12.2626
446.36        12.22111
446.80        12.23618
447.24        12.26471
447.69        12.31209
448.13        12.41937
448.58        12.56319
449.02        12.66924
449.47        12.72574
449.91        12.77722
450.36         12.8225
450.80        12.82081
451.25          12.789
451.69         12.7769
452.13        12.78673
452.58        12.79335
453.02         12.7802
453.47        12.72818
453.91        12.63384
454.36        12.53098
454.80           12.42
455.24         12.2869
455.69        12.17124
456.13         12.0903
456.58         12.0666
457.02        12.17723
457.46        12.34616
457.91        12.34894
458.35        12.25121
458.79        12.23046
459.24        12.30723
459.68         12.3613
460.13        12.38279
460.57        12.33817
461.01        12.28346
461.46        12.23781
461.90        12.16254
462.34        12.13126
462.79        12.33711
463.23        12.43662
463.68        12.46729
464.12        12.46446
464.56        12.43636
465.01        12.43095
465.45        12.41312
465.89        12.32818
466.34        12.22475
466.78        12.15501
467.22        12.11836
467.67        12.36823
468.11        12.34785
468.55        12.37255
468.99        12.29375
469.44        12.26144
469.88        12.27782
470.32        12.24575
470.77        12.19518
471.21        12.21413
471.65        12.31155
472.10        12.46351
472.54        12.60524
472.98        12.65423
473.42        12.60025
473.87          12.438
474.31        12.24792
474.75        12.26851
475.20        12.47699
475.64        12.60305
476.08        12.60096
476.52         12.6472
476.97        12.74263
477.41        12.65589
477.85        12.53572
478.29        12.59479
478.74        12.53001
479.18        12.47184
479.62        12.72493
480.06         12.8075
480.50        12.84399
480.95        12.83665
481.39        12.78665
481.83        12.97383
482.27        13.01418
482.72        13.00411
483.16        13.21625
483.60        13.26659
484.04        13.23778
484.48        13.21755
484.93         13.3627
485.37         13.2837
485.81        13.45066
486.25        14.11781
486.69        13.39383
487.14        13.02241
487.58        13.99423
488.02        13.76803
488.46        13.84258
488.90        14.08729
489.34        13.71976
489.79        13.54517
490.23        13.81807
490.67        14.08254
491.11        14.40319
491.55        14.52156
491.99        14.47141
492.43        14.54952
492.88        14.75892
493.32        14.87717
493.76        14.90402
494.20        14.99311
494.64        15.16455
495.08        15.33033
495.52        15.47184
495.96        15.69025
496.41        15.97014
496.85        15.89561
497.29        15.60791
497.73        15.73939
498.17        16.23082
498.61        16.52764
499.05        16.53518
499.49        16.52089
499.93         16.5309
500.37        16.51989
500.82        16.51588
501.26        16.60083
501.70        16.79489
502.14        16.73239
502.58         16.9854
503.02        17.07142
503.46        17.08694
503.90        17.06767
504.34        17.03267
504.78        17.06703
505.22        17.17593
505.66        17.30364
506.10        17.42728
506.54        17.55864
506.98        17.69092
507.42        17.73707
507.86        17.83769
508.30        17.88525
508.74        17.92511
509.18        17.94897
509.62        17.97166
510.06        18.01604
510.50        18.08442
510.94        18.17299
511.38        18.26064
511.82        18.31234
512.26        18.32067
512.70        18.29714
513.14        18.26487
513.58        18.25442
514.02        18.27414
514.46          18.327
514.90        18.39857
515.34        18.40004
515.78        18.43027
516.22        18.41418
516.66        18.39783
517.10        18.40019
517.54        18.42718
517.98        18.46899
518.42        18.51296
518.86        18.54306
519.30        18.55279
519.74        18.54584
520.18        18.52908
520.62        18.51229
521.06        18.49961
521.50        18.49105
521.93        18.48034
522.37        18.44988
522.81        18.40051
523.25        18.33359
523.69         18.2695
524.13        18.23975
524.57        18.24637
525.01        18.27811
525.45        18.29795
525.89         18.2471
526.32        18.11419
526.76        17.92953
527.20        17.73613
527.64        17.60489
528.08        17.55497
528.52        17.56292
528.96        17.60354
529.40        17.63644
529.83        17.64474
530.27        17.63957
530.71        17.61733
531.15        17.57248
531.59        17.50717
532.03        17.42118
532.46        17.32656
532.90        17.25682
533.34        17.21774
533.78        17.20614
534.22        17.21002
534.66         17.2088
535.09        17.19495
535.53        17.17459
535.97        17.15782
536.41        17.16235
536.85        17.19146
537.28        17.24206
537.72        17.29309
538.16        17.30882
538.60        17.28686
539.04        17.24428
539.47        17.21274
539.91         17.2514
540.35        17.36342
540.79        17.52954
541.22        17.70941
541.66        17.83851
542.10         17.9001
542.54        17.91883
542.97        17.91584
543.41        17.93506
543.85        17.98886
544.29        18.06439
544.72        18.16368
545.16        18.30512
545.60        18.47976
546.04        18.68406
546.47        18.89161
546.91        19.05288
547.35        19.15626
547.79        19.22307
548.22        19.27545
548.66        19.34695
549.10        19.46052
549.53        19.67396
549.97        19.95238
550.41        20.17019
550.84        20.30655
551.28        20.42376
551.72        20.53725
552.15         20.6462
552.59        20.76321
553.03        20.87962
553.46        20.99138
553.90        21.11094
554.34        21.23489
554.77        21.36868
555.21        21.50233
555.65        21.61877
556.08        21.69298
556.52        21.78006
556.96         21.8711
557.39        21.98616
557.83        22.10965
558.27        22.14361
558.70        22.11624
559.14        22.15518
559.57        22.26385
560.01        22.40652
560.45        22.53721
560.88        22.57369
561.32        22.55443
561.75        22.55793
562.19        22.61071
562.63        22.74168
563.06        22.90113
563.50        22.90605
563.93         22.7901
564.37         22.8113
564.80        22.97248
565.24        23.14341
565.68        23.28996
566.11        23.40902
566.55        23.49693
566.98        23.57341
567.42        23.65251
567.85         23.6897
568.29        23.73497
568.72        23.85353
569.16        24.04975
569.60        24.26591
570.03        24.50122
570.47        24.59984
570.90        24.86558
571.34        25.08601
571.77        25.30884
572.21        25.28483
572.64        25.54784
573.08        25.47401
573.51        25.81743
573.95        25.88435
574.38         25.7606
574.82        26.16889
575.25        25.85195
575.69        25.92779
576.12        25.88491
576.56        26.38175
576.99         26.4224
577.42         26.0921
577.86        26.28029
578.29        26.46414
578.73        26.06752
579.16        26.04509
579.60        26.06971
580.03        26.01012
580.47        25.83549
580.90        25.74561
581.33        25.62316
581.77        25.69229
582.20        25.51137
582.64        25.22038
583.07        25.02212
583.51        24.85891
583.94        24.92801
584.37        24.95638
584.81        24.88075
585.24        24.83515
585.68        24.87053
586.11        24.40234
586.54        24.22231
586.98        24.16454
587.41        24.36972
587.85        24.00022
588.28        23.79442
588.71        24.08254
589.15        24.16576
589.58        23.77374
590.01        24.21805
590.45        24.23058
590.88        23.71781
591.31        23.70227
591.75        23.99722
592.18        24.13373
592.61        24.09579
593.05        24.14883
593.48        24.41104
593.91        24.11459
594.35        24.24845
594.78        24.51949
595.21        24.73847
595.65        24.83675
596.08        24.67639
596.51         25.0196
596.94        25.04503
597.38        25.29878
597.81        25.53305
598.24        25.71474
598.68        26.29664
599.11        26.33645
599.54        26.57234
599.97        26.81906
600.41        27.43161
600.84        27.82723
601.27        28.04666
601.70        28.37498
602.14         28.5673
602.57        29.18769
603.00        29.77475
603.43        30.24659
603.87        30.67089
604.30        30.85892
604.73        31.28446
605.16        31.94494
605.60        32.14299
606.03        32.74994
606.46        33.46202
606.89        33.65603
607.32         34.1862
607.76         34.7648
608.19        34.94759
608.62        35.26882
609.05        35.58768
609.48        35.90789
609.92        36.18909
610.35        36.63172
610.78        37.10591
611.21        36.98862
611.64        37.78623
612.07        38.04047
612.50        38.21911
612.94        38.51195
613.37        38.97532
613.80         39.1286
614.23        39.62822
614.66        39.82769
615.09        40.10669
615.52        40.39639
615.96        40.75964
616.39        40.91079
616.82        41.02122
617.25         41.4692
617.68        41.60146
618.11        41.82409
618.54        41.99364
618.97         42.3891
619.40        42.90195
619.84        43.44374
620.27        43.50042
620.70        43.49838
621.13        43.32738
621.56        43.76953
621.99        43.74179
622.42         43.8962
622.85        43.65033
623.28         43.9701
623.71        43.82899
624.14        43.64967
624.57        43.69425
625.00        44.02348
625.43        43.75305
625.86        43.80513
626.29        43.90526
626.72        43.50536
627.15        43.50941
627.58        43.23597
628.01        43.03952
628.44        42.62453
628.87         42.3029
629.30        42.39476
629.73        41.87804
630.16        41.29395
630.59        41.34246
631.02        41.01789
631.45        40.60538
631.88        40.23177
632.31        39.92527
632.74        39.38725
633.17        39.00871
633.60         38.5322
634.03        38.07802
634.46        37.62792
634.89        37.18025
635.32        36.71561
635.75        36.23132
636.18        35.76341
636.61         35.3149
637.04        34.84449
637.47        34.37396
637.89        33.99717
638.32        33.68848
638.75        33.35618
639.18        32.99611
639.61         32.6649
640.04        32.35636
640.47         32.0423
640.90        31.72411
641.33         31.3981
641.76        31.08276
642.18        30.88519
642.61        30.69337
643.04        30.59608
643.47        30.53906
643.90        30.49237
644.33        30.44552
644.76        30.40728
645.18         30.3952
645.61        30.43277
646.04          30.526
646.47        30.66455
646.90        30.83573
647.33        31.01857
647.75        31.21709
648.18        31.44761
648.61         31.7131
649.04        32.05624
649.47        32.47597
649.89        32.84199
650.32        33.20316
650.75        33.85359
651.18        34.70799
651.61        35.31828
652.03        35.62693
652.46        35.96226
652.89        36.46873
653.32        36.84581
653.74        37.27411
654.17         38.4629
654.60        38.68978
655.03        39.02383
655.46        39.86575
655.88        40.68427
656.31        41.75549
656.74        42.95558
657.16        42.56482
657.59        42.75673
658.02        42.84031
658.45        43.64834
658.87        44.10632
659.30         44.8376
659.73        44.88322
660.15        45.40266
660.58         45.5143
661.01        46.01118
661.44        46.64536
661.86        46.79149
662.29        46.77653
662.72        46.98923
663.14        47.50525
663.57         47.7948
664.00        47.86161
664.42        48.02674
664.85        48.30587
665.27         48.5594
665.70        48.76654
666.13        48.94733
666.55        49.10314
666.98        49.23621
667.41        49.37714
667.83        49.56371
668.26        49.79179
668.69        50.05621
669.11        50.32198
669.54        50.51242
669.96         50.6152
670.39        50.67768
670.82        50.73334
671.24        50.75162
671.67        50.78265
672.09        50.99246
672.52        51.33068
672.94        51.49312
673.37        51.49709
673.80        51.59333
674.22        51.80345
674.65        51.95346
675.07        52.05117
675.50        52.18086
675.92        52.34983
676.35        52.48546
676.77        52.57996
677.20        52.80508
677.62        52.87753
678.05        53.00824
678.47        53.11272
678.90        53.21276
679.32        53.31131
679.75         53.4298
680.17        53.57461
680.60        53.74338
681.02        53.92389
681.45        54.08593
681.87         54.2329
682.30         54.3383
682.72        54.43689
683.15        54.64204
683.57        54.94059
684.00        55.13911
684.42        55.23645
684.85        55.38971
685.27         55.5932
685.70        55.75179
686.12        55.85836
686.54        55.98006
686.97        56.10735
687.39        56.20184
687.82        56.27414
688.24        56.29859
688.66        56.52458
689.09        56.54414
689.51        56.52528
689.94        56.60399
690.36        56.81748
690.78        57.03688
691.21           57.23
691.63        57.44687
692.06         57.6402
692.48        57.65844
692.90        57.56964
693.33         57.5963
693.75        57.76681
694.17        58.00938
694.60        58.25137
695.02        58.37304
695.44         58.3828
695.87        58.43092
696.29        58.55936
696.71        58.77683
697.14        59.03526
697.56        59.19867
697.98         59.2591
698.41        59.40611
698.83        59.62611
699.25        59.81145
699.68        59.94217
700.10         60.1005
700.52        60.27525
700.94        60.44394
701.37        60.57032
701.79         60.6314
702.21        60.61082
702.64        60.54147
703.06        60.46701
703.48         60.4695
703.90        60.57725
704.33        60.76725
704.75        61.01062
705.17        61.23584
705.59        61.41318
706.01         61.5297
706.44        61.61665
706.86        61.81588
707.28        61.95516
707.70        62.21811
708.12        62.48475
708.55        62.47706
708.97        62.25519
709.39        62.24587
709.81        62.46198
710.23        62.56714
710.66         62.5521
711.08         62.6487
711.50        62.82255
711.92        62.92974
712.34        62.96313
712.76        62.96693
713.19        62.96935
713.61        63.06028
714.03        63.23508
714.45        63.45489
714.87        63.68901
715.29         63.8975
715.71         64.0636
716.13        64.20163
716.56        64.27909
716.98        64.30994
717.40        64.28196
717.82        64.20729
718.24        64.14156
718.66        64.17666
719.08        64.32848
719.50        64.56122
719.92        64.82596
720.34        65.04095
720.76        65.17503
721.19        65.24309
721.61        65.25281
722.03        65.19007
722.45        65.06854
722.87        64.89582
723.29        64.73331
723.71        64.68086
724.13        64.76474
724.55         64.9669
724.97        65.22832
725.39        65.44298
725.81        65.57775
726.23        65.65515
726.65        65.71642
727.07        65.83353
727.49        66.02007
727.91        66.24202
728.33        66.45478
728.75        66.58879
729.17        66.62512
729.59         66.5938
730.01        66.52347
730.43        66.45804
730.85        66.41833
731.27        66.39252
731.69        66.39749
732.10        66.46072
732.52        66.56034
732.94         66.7328
733.36        66.94759
733.78        67.00639
734.20        66.87187
734.62        67.16396
735.04        66.82712
735.46        66.93658
735.88        67.13466
736.30        67.07404
736.72        66.84549
737.13        67.01664
737.55        67.49562
737.97        67.80766
738.39        67.86137
738.81        67.59991
739.23        67.19618
739.65        67.36277
740.06        67.96027
740.48        68.18115
740.90        67.96632
741.32        67.88271
741.74        67.89941
742.16        67.96812
742.57        68.07749
742.99        68.25277
743.41        68.44341
743.83        68.55052
744.25        68.55692
744.67        68.47742
745.08        68.37791
745.50        68.36497
745.92         68.4776
746.34        68.62201
746.75        68.72951
747.17        68.94951
747.59        68.82368
748.01        68.76339
748.42        68.69431
748.84        68.56142
749.26        68.75134
749.68        68.68615
750.09        68.53049
750.51        68.69239
750.93        69.07631
751.35        69.14705
751.76         68.9297
752.18        68.86732
752.60        68.97684
753.01        69.02496
753.43        69.02206
753.85        69.06877
754.27        69.15395
754.68        69.54309
755.10        69.63522
755.52        69.77007
755.93        69.77153
756.35        69.67938
756.77        69.53391
757.18        69.52232
757.60        69.71429
758.02        69.80582
758.43        69.69964
758.85        70.31786
759.26        70.34297
759.68        69.99346
760.10        69.50797
760.51        69.09708
760.93        70.19834
761.34        69.66549
761.76        70.53863
762.18        70.47522
762.59        70.37823
763.01        70.33138
763.42        70.43068
763.84        70.57613
764.26         70.7147
764.67        70.62542
765.09         70.4313
765.50        70.57818
765.92        70.97655
766.33        71.04227
766.75        70.71629
767.16         70.3773
767.58        70.16152
768.00        70.33464
768.41        70.84452
768.83        71.22163
769.24        71.30742
769.66        71.19118
770.07        70.93232
770.49        70.63594
770.90         70.4583
771.32        70.68606
771.73        71.19468
772.15        71.43597
772.56        71.37017
772.97         71.2779
773.39        71.23247
773.80        71.28786
774.22         71.4257
774.63        71.69529
775.05        71.97801
775.46        71.98959
775.88         71.7656
776.29        71.84011
776.70        72.16631
777.12        72.24718
777.53        72.08309
777.95         71.9425
778.36        71.90863
778.77        71.95052
779.19        72.08419
779.60        72.35298
780.02          72.661
780.43        72.82864
780.84        72.83443
781.26        72.80124
781.67         72.8352
782.09        72.95055
782.50        72.98359
782.91        73.46667
783.33        72.52157
783.74        72.59129
784.15        72.57423
784.57        72.64528
784.98        72.61077
785.39        72.62972
785.81        72.69939
786.22         72.7523
786.63         72.7989
787.04        72.87975
787.46        73.00789
787.87        73.15664
788.28         73.2774
788.70        73.31969
789.11        73.26553
789.52        73.06525
789.93        72.83926
790.35        72.96225
790.76         73.3955
791.17        73.60646
791.58        73.56186
792.00        73.60533
792.41        73.74953
792.82        73.79548
793.23        73.75764
793.65        73.68037
794.06        73.65517
794.47         73.8912
794.88        74.27962
795.29        74.49551
795.71        74.39559
796.12        74.31984
796.53        74.28263
796.94        74.21697
797.35        74.17694
797.76        74.33926
798.18         74.6516
798.59         74.8364
799.00        74.86522
799.41        74.85868
799.82        74.83759
800.23        74.79539
800.64        74.74503
801.06        74.66806
801.47        74.59191
801.88        74.48633
802.29        74.35288
802.70        74.19881
803.11        74.06824
803.52        74.02989
803.93        74.11481
804.34         74.3135
804.75        74.55321
805.17        74.78922
805.58        75.03283
805.99        74.99052
806.40        74.77725
806.81        75.23689
807.22        76.05624
807.63           75.77
808.04        74.55396
808.45        73.95431
808.86        74.17181
809.27        74.48163
809.68        74.72424
810.09        74.87385
810.50        74.86802
810.91        74.78153
811.32        74.71049
811.73        74.76972
812.14        74.99377
812.55        75.30038
812.96        75.60474
813.37         75.8701
813.78        75.99989
814.19        75.79651
814.60         75.3823
815.01        75.15614
815.42        75.17876
815.83        75.26872
816.24         75.3934
816.65        75.56744
817.05        75.76074
817.46        75.92146
817.87        76.06944
818.28        76.18459
818.69        76.26463
819.10        76.31413
819.51        76.30972
819.92        76.24039
820.33        76.12247
820.74        75.90668
821.14        75.67426
821.55        75.74287
821.96        76.04321
822.37        76.16531
822.78        76.08855
823.19        76.12229
823.60        76.26501
824.00        76.33399
824.41        76.24827
824.82        76.08605
825.23        75.85983
825.64        75.55938
826.04        75.30887
826.45        75.27266
826.86        75.49425
827.27        75.92874
827.68        76.43427
828.08        76.79388
828.49        76.87172
828.90        76.76678
829.31        76.58507
829.72        76.51643
830.12         76.6377
830.53        76.82765
830.94        77.04242
831.35        77.17841
831.75        77.21884
832.16        77.16045
832.57        77.02191
832.97        76.79288
833.38        76.49488
833.79        76.15778
834.20        75.86588
834.60        75.73459
835.01        75.79877
835.42        76.02372
835.82        76.36512
836.23        76.65265
836.64        76.85494
837.04        77.01524
837.45        77.11132
837.86        77.22043
838.26        77.36697
838.67        77.50067
839.08        77.60678
839.48        77.65146
839.89        77.63042
840.29        77.56902
840.70        77.49599
841.11         77.4556
841.51        77.47565
841.92        77.49676
842.33        77.52519
842.73        77.56289
843.14        77.55419
843.54         77.5425
843.95        77.48433
844.35         77.3312
844.76        77.07496
845.17         76.7329
845.57        76.41936
845.98        76.28007
846.38         76.3754
846.79        76.64775
847.19        76.97194
847.60        77.08214
848.00        76.93572
848.41        76.55752
848.81        76.15224
849.22        75.98012
849.62        76.14592
850.03        76.55752
850.43        77.01894
850.84        77.13286
851.24        76.86501
851.65        76.25224
852.05         75.6581
852.46        75.62038
852.86        76.23815
853.27        77.28642
853.67        78.26529
854.07        78.71591
854.48         78.5138
854.88        77.85579
855.29        76.89101
855.69        76.14497
856.10        75.73123
856.50        75.60502
856.90        75.63206
857.31        75.61944
857.71        75.54598
858.12        75.44077
858.52        75.37093
858.92        75.29155
859.33        75.18602
859.73        75.07702
860.13         74.9506
860.54         74.8353
860.94        74.77653
861.34        74.72773
861.75        74.67309
862.15        74.64779
862.55        74.62082
862.96        74.60867
863.36        74.55326
863.76        74.33982
864.17        73.96539
864.57        73.50082
864.97        73.09183
865.38        72.95174
865.78        73.16689
866.18        73.62861
866.58        74.19544
866.99        74.61608
867.39        74.81453
867.79        74.82706
868.19        74.66618
868.60        74.31946
869.00        73.80891
869.40        73.16076
869.80        72.53217
870.21        72.23607
870.61        72.43347
871.01        72.98055
871.41        73.65524
871.81         74.1311
872.22        74.29747
872.62         74.2508
873.02        74.11012
873.42        74.09187
873.82        74.26282
874.22        74.55547
874.63        74.84605
875.03        74.93845
875.43        74.80958
875.83        74.50566
876.23        74.20425
876.63        74.19169
877.03        74.51775
877.44        75.08411
877.84        75.61687
878.24        75.63341
878.64        75.05344
879.04        74.07275
879.44        73.05233
879.84        72.48451
880.24        72.47616
880.64        72.89722
881.04        73.51207
881.44        73.91379
881.84        73.96478
882.24        73.75312
882.65        73.46922
883.05        73.53476
883.45        73.98601
883.85        74.68389
884.25        75.32325
884.65        75.47086
885.05        75.06369
885.45        74.25487
885.85        73.39614
886.25        73.08275
886.65        73.46549
887.05        74.34212
887.45        75.35003
887.85        75.94232
888.25        75.96527
888.65        75.56462
889.04        74.95586
889.44         74.5406
889.84        74.42328
890.24        74.48981
890.64         74.5671
891.04        74.39027
891.44        73.92366
891.84        73.30698
892.24        72.74072
892.64        72.51501
893.04        72.69111
893.44        73.14619
893.83        73.75644
894.23        74.26201
894.63        74.59255
895.03        74.80809
895.43        74.89693
895.83        74.84434
896.23        74.68665
896.63        74.44057
897.02        74.20839
897.42        74.19444
897.82        74.41678
898.22        74.82204
898.62        75.32189
899.01        75.76454
899.41        76.06027
899.81        76.25051
900.21        76.32246
900.61         76.2673
901.00        76.09299
901.40        75.81882
901.80        75.51024
902.20          75.288
902.59        75.19714
902.99        75.20844
903.39         75.2865
903.79        75.34447
904.18        75.35207
904.58        75.34577
904.98        75.34644
905.38         75.3921
905.77        75.48011
906.17        75.59485
906.57        75.70805
906.96        75.80334
907.36        75.84225
907.76        75.84641
908.15        75.82713
908.55        75.72832
908.95        75.58218
909.34         75.3844
909.74        75.21194
910.14         75.1216
910.53        75.13512
910.93        75.22649
911.33        75.35397
911.72        75.43956
912.12        75.44565
912.52        75.40843
912.91        75.35252
913.31        75.35535
913.70          75.422
914.10        75.50591
914.49        75.61559
914.89        75.69627
915.29        75.75009
915.68        75.79945
916.08        75.80797
916.47        75.71169
916.87        75.53412
917.26        75.27868
917.66        75.07407
918.05        75.08677
918.45        75.32779
918.84        75.75612
919.24        76.19565
919.64        76.43926
920.03        76.44093
920.42        76.26162
920.82         75.9933
921.21        75.76958
921.61        75.62968
922.00        75.55143
922.40        75.55287
922.79        75.74747
923.19        76.08957
923.58        76.57309
923.98        77.02158
924.37        77.22115
924.77        77.11735
925.16        76.75974
925.55        76.28957
925.95         75.9614
926.34        75.86038
926.74        75.90171
927.13        76.03902
927.52        76.08773
927.92         76.0235
928.31        75.90472
928.70        75.78497
929.10        75.72237
929.49        75.73307
929.89        75.74327
930.28        75.81002
930.67        75.91994
931.07        76.03982
931.46        76.19296
931.85         76.2736
932.24        76.15141
932.64        75.82184
933.03        75.34683
933.42        74.86309
933.82        74.58707
934.21         74.5822
934.60        74.78772
934.99        75.12909
935.39        75.44956
935.78        75.71828
936.17        75.96017
936.56        76.15198
936.96        76.24844
937.35        76.29256
937.74        76.24667
938.13        76.16912
938.53         76.1607
938.92         76.2452
939.31        76.39918
939.70          76.561
940.09         76.6128
940.49        76.49827
940.88        76.28571
941.27        76.04047
941.66        75.86715
942.05        75.79533
942.44        75.81142
942.84        75.85867
943.23        75.78679
943.62        75.58939
944.01        75.29605
944.40        75.02686
944.79         74.9887
945.18        75.22069
945.57        75.64455
945.97        76.04787
946.36        76.19145
946.75        75.98952
947.14        75.51201
947.53        74.93699
947.92        74.57767
948.31         74.5374
948.70        74.74921
949.09        75.03609
949.48        75.11369
949.87        74.92775
950.26        74.57244
950.65        74.25211
951.04        74.29189
951.43        74.74101
951.82         75.4546
952.21         76.1871
952.60         76.5246
952.99         76.3434
953.38        75.79963
953.77        75.04275
954.16        74.29212
954.55        73.65214
954.94        73.07494
955.33        72.64591
955.72        72.50858
956.11        72.67226
956.50        73.10628
956.89        73.64983
957.28        73.98508
957.66        74.03696
958.05        73.86925
958.44        73.57003
958.83         73.3017
959.22        73.12539
959.61        72.95146
960.00        72.87626
960.39          73.061
960.78        73.49418
961.16        74.17273
961.55        74.73213
961.94        74.64474
962.33        73.82285
962.72        72.49157
963.11        71.09709
963.49        70.28774
963.88        70.22523
964.27        70.74019
964.66        71.59891
965.04         72.3784
965.43        72.81184
965.82        73.03907
966.21        73.15527
966.60        73.33582
966.98        73.62224
967.37        73.85804
967.76        73.96214
968.15        73.79868
968.53        73.37009
968.92        72.81789
969.31        72.19795
969.69        71.52799
970.08        70.86973
970.47        70.25691
970.86        70.01143
971.24        70.67458
971.63        72.17498
972.02        74.20956
972.40        76.25314
972.79        77.48915
973.17        77.84364
973.56        77.45967
973.95        76.60693
974.33        75.75488
974.72        75.10801
975.11        74.56347
975.49        74.09317
975.88         73.6711
976.26        73.30152
976.65        73.04521
977.04        72.91229
977.42        72.84927
977.81        72.77187
978.19        72.62792
978.58        72.52214
978.96        72.58764
979.35        72.82475
979.74        73.27289
980.12        73.72837
980.51        73.63769
980.89        73.03785
981.28         71.9594
981.66        71.01768
982.05        71.33611
982.43         73.1011
982.82        75.86356
983.20        78.68447
983.59         79.9888
983.97        79.51733
984.35        77.64237
984.74         75.1434
985.12        73.44598
985.51        73.04459
985.89         73.5828
986.28        74.53558
986.66        75.19793
987.04        75.34022
987.43        75.16801
987.81        74.98509
988.20        75.16567
988.58        75.84061
988.96        76.82268
989.35        77.64239
989.73        77.73318
990.12        76.90561
990.50        75.22008
990.88        73.27503
991.27        72.46254
991.65         73.2367
992.03        75.14429
992.42         77.0019
992.80        77.57836
993.18        76.54939
993.56        74.17057
993.95         71.1675
994.33        69.42354
994.71        69.88639
995.10        71.68273
995.48        73.77299
995.86        75.02723
996.24        75.30273
996.63        74.88608
997.01        74.12901
997.39        73.62931
997.77        73.67905
998.15        74.09287
998.54          74.439
998.92        74.16237
999.30         73.1729
999.68        71.66685
1000.06        70.28063
1000.45        70.09295
1000.83        71.40159
1001.21        73.71883
1001.59        76.16615
1001.97        77.48637
1002.35        77.40631
1002.73         76.3122
1003.12        74.61832
1003.50        73.19036
1003.88        72.54734
1004.26        72.33188
1004.64         72.6396
1005.02        73.62521
1005.40        75.18635
1005.78        77.38314
1006.16        79.42322
1006.54        79.80447
1006.92        78.19279
1007.30        74.98746
1007.69        71.49643
1008.07        69.88584
1008.45        70.76645
1008.83        73.41993
1009.21        76.58948
1009.59        78.45438
1009.97        78.50007
1010.35        77.12766
1010.73        74.83025
1011.11        72.97839
1011.49        72.37577
1011.86        72.71432
1012.24        73.37711
1012.62        73.75497
1013.00        73.67722
1013.38        73.45502
1013.76        73.27024
1014.14        73.34357
1014.52        73.73882
1014.90        74.27726
1015.28        74.87733
1015.66        75.42413
1016.04        75.82149
1016.41        76.22868
1016.79          76.317
1017.17         75.9619
1017.55        75.22505
1017.93        74.22449
1018.31        73.39358
1018.69        73.41776
1019.06         74.4848
1019.44         76.4186
1019.82        78.77628
1020.20        80.49827
1020.58        81.07019
1020.95        80.71082
1021.33        79.74511
1021.71        78.55976
1022.09         77.2782
1022.46        75.68591
1022.84        74.01254
1023.22        72.54559
1023.60        71.39533
1023.97        70.55093
1024.35        69.92252
1024.73        68.64652
