SpectraSmart Spectrum 2.9.0.0
--------- Device Information -----------
Spectrum Name :  反射率_0
Saving Time :  2024/04/27 23:05:43
Spectro-Module Model Name : SE2030-DUVN
Spectro-Module Serial Number : OS361AC55029948
Wavelength Start : 200
Wavelength End : 1025
Wavelength Unit : Wavelength(nm)
Spectrum Unit : Reflectance(%)
-----------Spectrum Setting ------------
Integration Time : 20ms
Average : 10
Boxcar : 0
Background removal :  enabled
linearity correction :  enabled
SC :  disabled
Intensity correction :  disabled
DWT denoise :  enabled
savitzky-golay :  disabled
FFT :  disabled
Running average :  disabled
Kalman :  disabled
High pass :  disabled
---------------BEGIN--------------------
Wavelength(nm)             Reflectance(%)
200.29               0
200.75       -62.25911
201.21       -25.89844
201.67        7.308607
202.13        23.94974
202.58        29.57323
203.04        30.61383
203.50        31.02906
203.96        34.63967
204.42         41.0942
204.88        48.05971
205.34         53.3533
205.80        55.46261
206.26        54.14055
206.72         48.3965
207.18         38.1217
207.64        30.88291
208.10        33.04103
208.55        40.80262
209.01        44.66742
209.47        40.23819
209.93        24.33952
210.39       -19.25661
210.85       -153.5121
211.31       -323.4059
211.77       -133.4902
212.23       -3.884694
212.69        42.37038
213.14        55.98342
213.60        54.61176
214.06        42.16513
214.52        18.72186
214.98        7.194963
215.44        24.70133
215.90        48.65333
216.36        65.30846
216.81        71.66917
217.27        70.91209
217.73        66.52524
218.19        59.88519
218.65        52.74852
219.11        46.11193
219.57        39.06063
220.02        32.96154
220.48        32.59808
220.94        38.24408
221.40        47.47734
221.86        56.43264
222.32        61.40186
222.77        62.47243
223.23        61.10596
223.69        58.52775
224.15        55.80313
224.61        53.22131
225.06        50.35802
225.52        47.89322
225.98        46.88309
226.44        47.38153
226.90        48.58517
227.36        49.88136
227.81        50.82233
228.27        51.37655
228.73        51.66679
229.19        51.29539
229.65        49.57795
230.10        46.52839
230.56        42.89646
231.02        39.53471
231.48         37.6328
231.93        37.30313
232.39        38.18148
232.85         39.8815
233.31        41.87991
233.77        43.90051
234.22        46.09473
234.68        48.01534
235.14        49.22832
235.60        49.72588
236.05        49.44604
236.51        49.10207
236.97        50.11901
237.43        52.85024
237.88        56.96405
238.34        60.82883
238.80        63.02857
239.26        63.29375
239.71        61.46012
240.17        57.75158
240.63        56.28852
241.08        60.19681
241.54        66.10902
242.00        70.61069
242.46        72.50868
242.91         72.3277
243.37          69.803
243.83        63.30469
244.28        53.56051
244.74        49.81595
245.20        54.30232
245.66        59.32603
246.11        60.10246
246.57         56.6935
247.03        49.74754
247.48        38.81269
247.94         30.2913
248.40        31.99837
248.85        39.82299
249.31        50.13868
249.77        60.41039
250.22        69.09277
250.68        76.12434
251.14         80.9728
251.59        83.41085
252.05        83.97552
252.51        82.41768
252.96        78.57365
253.42        74.90839
253.88        73.30177
254.33        73.60345
254.79        74.06854
255.25        72.47326
255.70        69.20723
256.16        65.85762
256.62        63.97926
257.07        65.19083
257.53        68.79259
257.99          72.785
258.44        75.43851
258.90         75.8148
259.35        73.99509
259.81        71.39403
260.27         68.6682
260.72        66.62315
261.18        65.68858
261.63        65.11874
262.09        64.86692
262.55        64.45836
263.00        63.73066
263.46        63.00353
263.91        62.17766
264.37        61.50782
264.83        60.93165
265.28        60.33771
265.74        59.77044
266.19         59.0372
266.65        58.21086
267.11        57.29411
267.56        56.31765
268.02        55.44198
268.47        54.65723
268.93        53.94679
269.38         53.2844
269.84        52.66613
270.30        52.06213
270.75        51.46388
271.21        50.81418
271.66           49.97
272.12        48.94204
272.57        47.73248
273.03        46.49657
273.48        45.38181
273.94        44.49533
274.39        43.75641
274.85        43.12049
275.31        42.41285
275.76        41.58071
276.22        40.71695
276.67        39.86955
277.13        39.22678
277.58        38.74247
278.04        38.40617
278.49         38.0295
278.95        37.48042
279.40        36.68467
279.86        35.77791
280.31        34.86178
280.77        34.22072
281.22        33.84627
281.68        33.69768
282.13        33.59595
282.59        33.35994
283.04         32.9295
283.50        32.39707
283.95        31.85803
284.41        31.50923
284.86        31.36441
285.32        31.37012
285.77        31.40373
286.22        31.34021
286.68        31.16581
287.13        30.89336
287.59        30.60954
288.04        30.35869
288.50        30.19355
288.95        30.06124
289.41        29.96372
289.86        29.85279
290.32        29.74356
290.77        29.64551
291.22        29.58413
291.68        29.58258
292.13        29.64109
292.59        29.77497
293.04        29.97763
293.50        30.26902
293.95        30.63621
294.40        31.07581
294.86        31.58525
295.31        32.15237
295.77        32.77124
296.22        33.41852
296.68        34.07086
297.13        34.66723
297.58        35.19965
298.04        35.68634
298.49         36.1454
298.95        36.63056
299.40        37.15355
299.85        37.70353
300.31        38.30198
300.76        38.93855
301.21        39.59964
301.67        40.27268
302.12        40.88022
302.58        41.36317
303.03        41.68946
303.48        41.90178
303.94        42.06656
304.39        42.22885
304.84        42.43246
305.30        42.67378
305.75        42.92455
306.20        43.18771
306.66        43.46967
307.11        43.74153
307.57        44.01389
308.02        44.22544
308.47        44.37944
308.93        44.48177
309.38        44.52279
309.83        44.52982
310.29        44.52101
310.74        44.48039
311.19        44.40717
311.65        44.29349
312.10        44.12515
312.55        43.91766
313.00        43.71334
313.46        43.57393
313.91         43.5018
314.36        43.48571
314.82        43.45391
315.27        43.28842
315.72        42.96915
316.18        42.53705
316.63        42.08089
317.08        41.76543
317.53        41.62368
317.99        41.60213
318.44        41.60095
318.89        41.44131
319.35         41.0841
319.80        40.59419
320.25        40.07306
320.70        39.68703
321.16         39.4733
321.61        39.38416
322.06        39.34449
322.51          39.238
322.97        39.02099
323.42        38.74487
323.87        38.42932
324.32        38.11583
324.78        37.81807
325.23        37.52411
325.68        37.24155
326.13        36.99658
326.59        36.77868
327.04        36.61297
327.49        36.44908
327.94        36.20956
328.39        35.87823
328.85        35.46515
329.30        35.04901
329.75        34.74551
330.20        34.58892
330.66        34.53334
331.11        34.52301
331.56        34.40758
332.01          34.149
332.46         33.7905
332.92        33.38879
333.37         33.0854
333.82        32.90849
334.27        32.80674
334.72        32.74879
335.17        32.68409
335.63        32.57857
336.08        32.47832
336.53        32.32796
336.98        32.04628
337.43        31.63808
337.88          31.133
338.34         30.6609
338.79        30.44461
339.24        30.52852
339.69         30.8428
340.14        31.24247
340.59        31.48451
341.05        31.49516
341.50         31.3489
341.95        31.11271
342.40        30.90809
342.85        30.77907
343.30        30.67869
343.75        30.61105
344.20        30.58889
344.66         30.6083
345.11        30.67418
345.56        30.73595
346.01        30.70119
346.46        30.55412
346.91        30.31641
347.36         30.0651
347.81        29.92142
348.26         29.9107
348.72        30.00061
349.17        30.10759
349.62         30.0972
350.07        29.93983
350.52        29.67482
350.97        29.40083
351.42        29.27507
351.87        29.32578
352.32        29.49443
352.77        29.66714
353.22        29.67253
353.67        29.47589
354.13        29.15316
354.58        28.77629
355.03        28.51028
355.48        28.40491
355.93         28.4145
356.38        28.47991
356.83        28.51042
357.28        28.47298
357.73        28.38922
358.18        28.28697
358.63        28.20724
359.08        28.15483
359.53        28.10889
359.98        28.02724
360.43        27.85025
360.88        27.57483
361.33        27.22909
361.78        26.86812
362.23        26.61183
362.68        26.49349
363.13        26.41786
363.58        26.32772
364.03        26.46822
364.48        26.26608
364.93        26.17639
365.38        26.04961
365.83        25.92219
366.28        25.79669
366.73        25.66719
367.18         25.5276
367.63        25.35769
368.08        25.15995
368.53        24.94823
368.98        24.74474
369.43        24.58039
369.88        24.46462
370.33        24.38965
370.78        24.33811
371.23        24.28296
371.68        24.20844
372.13        24.10916
372.58        23.99495
373.03        23.88252
373.48        23.77814
373.93        23.69033
374.38        23.58208
374.83        23.39475
375.28        23.12995
375.72        22.79831
376.17        22.52191
376.62        22.44857
377.07        22.59064
377.52        22.88003
377.97        23.17381
378.42        23.24936
378.87        23.05998
379.32        22.68838
379.77        22.23728
380.22        21.86306
380.67        21.61432
381.11        21.44116
381.56         21.3336
382.01         21.2747
382.46         21.2492
382.91        21.27496
383.36        21.29835
383.81        21.22791
384.26        21.05094
384.71        20.78588
385.15        20.51076
385.60        20.38683
386.05        20.43233
386.50        20.60381
386.95        20.80243
387.40        20.87207
387.85        20.78409
388.29         20.5828
388.74        20.38249
389.19        20.29768
389.64        20.34404
390.09        20.46064
390.54        20.58495
390.98        20.61731
391.43        20.54085
391.88        20.39936
392.33        20.19908
392.78        19.97853
393.23        19.76773
393.67        19.47456
394.12        19.17617
394.57        19.20497
395.02        19.22452
395.47        19.18229
395.91        19.00191
396.36        18.93546
396.81        18.98986
397.26        19.01797
397.71        19.00059
398.15        18.98413
398.60        18.98411
399.05        18.90978
399.50        18.79947
399.95        18.82922
400.39        18.94319
400.84        18.85671
401.29        18.58281
401.74        18.32976
402.18        18.16534
402.63         18.1212
403.08         18.1759
403.53         18.1882
403.97        18.14622
404.42        18.15708
404.87        18.21021
405.32        18.25144
405.76        18.27039
406.21        18.23207
406.66        18.15994
407.11         18.1815
407.55        18.25298
408.00        18.17273
408.45         17.9513
408.90        17.67272
409.34        17.43516
409.79        17.46044
410.24        17.67593
410.68        17.73311
411.13        17.60081
411.58        17.48269
412.03        17.42361
412.47        17.40911
412.92        17.44208
413.37         17.5237
413.81        17.60804
414.26        17.64229
414.71        17.60922
415.15        17.52673
415.60        17.41727
416.05        17.33023
416.49        17.28615
416.94        17.26932
417.39        17.26638
417.83        17.25843
418.28        17.23155
418.73        17.18306
419.17        17.12924
419.62        17.09667
420.07        17.09685
420.51        17.13327
420.96         17.1569
421.41        17.11383
421.85        16.99601
422.30        16.74523
422.74        16.48413
423.19        16.59935
423.64        17.02948
424.08        17.29948
424.53        17.27367
424.98        17.22722
425.42        17.15366
425.87        16.75632
426.31        16.20421
426.76        16.10194
427.21        16.39238
427.65        16.45248
428.10        16.27177
428.54        16.24758
428.99        16.36805
429.44        16.55928
429.88        16.70195
430.33        16.40988
430.77        15.86957
431.22        15.77941
431.66        16.13056
432.11        16.41358
432.56        16.53983
433.00        16.65245
433.45        16.59077
433.89        16.23749
434.34        15.91071
434.78        15.09094
435.23        15.70226
435.67        16.21874
436.12        16.42756
436.57        16.50225
437.01        16.33074
437.46        16.24342
437.90        16.33038
438.35        16.49484
438.79        16.20187
439.24        16.08795
439.68        16.01976
440.13         15.9573
440.57        15.89977
441.02        15.98556
441.46        16.16845
441.91        16.08506
442.35        15.83721
442.80        16.05155
443.24        16.59779
443.69        16.63297
444.13         16.1782
444.58        15.96167
445.02        15.99411
445.47         15.9046
445.91         15.7098
446.36        15.63235
446.80          15.679
447.24        15.77878
447.69        15.90961
448.13        16.07761
448.58        16.24161
449.02        16.31836
449.47        16.31378
449.91        16.31463
450.36        16.33074
450.80        16.30462
451.25        16.24698
451.69        16.20315
452.13        16.17471
452.58        16.13747
453.02        16.09233
453.47        16.04703
453.91        16.00005
454.36        15.97874
454.80        15.95043
455.24        15.84443
455.69        15.69691
456.13        15.54474
456.58        15.44386
457.02        15.53439
457.46        15.73146
457.91        15.74186
458.35        15.62981
458.79        15.59443
459.24        15.65703
459.68        15.67404
460.13        15.65855
460.57        15.60651
461.01        15.59268
461.46        15.62884
461.90        15.62601
462.34        15.61637
462.79        15.83533
463.23        15.85635
463.68        15.77722
464.12        15.71819
464.56        15.70532
465.01        15.77188
465.45           15.83
465.89        15.74301
466.34        15.56174
466.78        15.38024
467.22        15.22913
467.67         15.4786
468.11         15.4473
468.55        15.50869
468.99        15.46246
469.44        15.47526
469.88         15.5403
470.32        15.54536
470.77        15.50933
471.21        15.51311
471.65         15.5676
472.10        15.65137
472.54        15.72824
472.98        15.76686
473.42        15.76521
473.87        15.69263
474.31        15.59728
474.75        15.69792
475.20        15.94794
475.64        16.02884
476.08        15.92891
476.52        15.93946
476.97        16.07588
477.41        16.02317
477.85        15.94281
478.29         16.0635
478.74        15.98491
479.18        15.89041
479.62        16.17827
480.06        16.24682
480.50        16.26382
480.95        16.23211
481.39        16.15518
481.83         16.3882
482.27        16.44109
482.72        16.43023
483.16        16.70781
483.60         16.7823
484.04        16.76633
484.48        16.80894
484.93        17.04764
485.37        16.85785
485.81        16.94971
486.25        17.50208
486.69        17.05799
487.14        16.61785
487.58        17.72572
488.02        17.55167
488.46        17.71927
488.90        17.72129
489.34        17.40538
489.79        17.26062
490.23        17.81841
490.67        18.17902
491.11         18.4313
491.55        18.43451
491.99        18.27386
492.43        18.30803
492.88        18.55784
493.32          18.766
493.76        18.89467
494.20        19.06164
494.64        19.27243
495.08        19.43168
495.52        19.53478
495.96        19.74981
496.41        20.05397
496.85        19.93162
497.29        19.54299
497.73        19.66925
498.17        20.23397
498.61        20.52519
499.05        20.46329
499.49        20.49442
499.93          20.652
500.37        20.72624
500.82         20.7298
501.26        20.85496
501.70         21.1203
502.14        20.99756
502.58        21.23503
503.02         21.3129
503.46        21.36374
503.90        21.40713
504.34         21.4313
504.78        21.48411
505.22        21.55882
505.66        21.60895
506.10        21.64234
506.54        21.72888
506.98        21.87438
507.42         21.9521
507.86        22.11472
508.30        22.19422
508.74        22.23564
509.18        22.24379
509.62        22.23906
510.06        22.25194
510.50        22.29084
510.94        22.34813
511.38        22.41753
511.82         22.4887
512.26        22.55585
512.70        22.62333
513.14        22.68635
513.58        22.72715
514.02         22.7431
514.46        22.75377
514.90          22.772
515.34        22.73965
515.78        22.79179
516.22        22.81644
516.66        22.84938
517.10        22.88121
517.54        22.90852
517.98        22.93182
518.42        22.94042
518.86        22.92108
519.30        22.87287
519.74        22.80062
520.18        22.72341
520.62        22.67002
521.06        22.64921
521.50        22.65807
521.93        22.68016
522.37        22.67867
522.81        22.64825
523.25        22.59335
523.69        22.54025
524.13        22.53106
524.57        22.56871
525.01        22.63566
525.45        22.68633
525.89        22.64996
526.32        22.51259
526.76        22.31016
527.20         22.0919
527.64        21.93937
528.08        21.87445
528.52        21.86913
528.96        21.89829
529.40         21.9207
529.83        21.91901
530.27        21.91035
530.71        21.88195
531.15        21.81375
531.59        21.70788
532.03        21.56702
532.46        21.42782
532.90         21.3648
533.34        21.38656
533.78         21.4728
534.22        21.57322
534.66        21.60849
535.09         21.5612
535.53        21.46286
535.97        21.35296
536.41        21.29809
536.85         21.3159
537.28        21.38352
537.72        21.47731
538.16        21.55626
538.60          21.608
539.04        21.65284
539.47        21.68851
539.91          21.724
540.35         21.7576
540.79        21.78666
541.22        21.82243
541.66        21.88604
542.10        21.97947
542.54        22.10092
542.97        22.22185
543.41        22.30997
543.85        22.35653
544.29        22.37247
544.72        22.39091
545.16        22.48034
545.60        22.64506
546.04        22.86452
546.47         23.0923
546.91        23.24987
547.35        23.31792
547.79        23.33185
548.22        23.33085
548.66        23.36913
549.10        23.47738
549.53        23.71945
549.97        24.04016
550.41        24.26695
550.84        24.37228
551.28        24.44039
551.72        24.50663
552.15        24.59718
552.59        24.73207
553.03        24.88856
553.46        25.04938
553.90        25.21116
554.34        25.36224
554.77        25.51423
555.21        25.64949
555.65        25.73984
556.08        25.75743
556.52         25.7698
556.96        25.78534
557.39         25.8555
557.83        25.96739
558.27        26.00299
558.70        25.97354
559.14        25.99181
559.57        26.05668
560.01        26.13863
560.45        26.21602
560.88        26.24168
561.32        26.26523
561.75        26.35617
562.19        26.51011
562.63        26.70599
563.06        26.87255
563.50        26.81437
563.93         26.5959
564.37        26.55546
564.80        26.70844
565.24        26.89077
565.68        27.05922
566.11        27.20515
566.55        27.31883
566.98        27.42353
567.42        27.52265
567.85        27.54619
568.29        27.54936
568.72        27.60379
569.16        27.71492
569.60        27.88725
570.03           28.14
570.47        28.16558
570.90        28.27451
571.34        28.77329
571.77         28.7354
572.21        28.65295
572.64        28.89694
573.08        28.83261
573.51        29.28256
573.95        29.47303
574.38        29.51569
574.82        29.60476
575.25        29.69343
575.69        29.49138
576.12        29.22991
576.56         29.6753
576.99        29.81416
577.42         29.5291
577.86        29.73862
578.29        29.81964
578.73        29.76803
579.16        29.75972
579.60        29.64483
580.03        29.57959
580.47        29.57555
580.90        29.37468
581.33        29.41722
581.77        29.50373
582.20        29.03112
582.64        28.86785
583.07        28.88033
583.51         28.8082
583.94        28.75698
584.37        28.75892
584.81         28.7642
585.24        28.62699
585.68        28.48906
586.11        27.99822
586.54         28.0343
586.98        28.06454
587.41        28.26068
587.85        27.77436
588.28        27.90788
588.71        27.75064
589.15        28.15319
589.58        27.62181
590.01        28.07399
590.45        27.97339
590.88        27.44871
591.31        27.37228
591.75        27.61761
592.18        27.69674
592.61        27.57571
593.05        27.92254
593.48          27.985
593.91        27.76433
594.35        27.94552
594.78        28.19893
595.21        28.26868
595.65        28.21354
596.08        27.95801
596.51         28.3599
596.94         28.4298
597.38         28.7406
597.81        29.03173
598.24        28.84659
598.68        29.41094
599.11         29.4769
599.54         29.8603
599.97        29.76244
600.41         30.5662
600.84        30.85582
601.27        30.98305
601.70        31.19196
602.14         31.2223
602.57        31.74202
603.00        32.24104
603.43        32.56301
603.87        32.82344
604.30        32.95758
604.73        33.45715
605.16        34.11694
605.60        34.46194
606.03        34.87922
606.46        35.19099
606.89        35.32964
607.32        35.94125
607.76        36.21521
608.19        36.37337
608.62        36.69528
609.05        36.92319
609.48        37.27744
609.92        37.56884
610.35        38.00513
610.78        38.33168
611.21        37.96672
611.64        38.82202
612.07        38.99055
612.50        39.06214
612.94         39.2766
613.37        39.70216
613.80        39.78393
614.23        40.18445
614.66        40.44374
615.09         40.7222
615.52        40.92144
615.96        41.08713
616.39        41.17913
616.82        41.33346
617.25        41.83402
617.68        41.97195
618.11        42.13525
618.54        42.18581
618.97        42.46975
619.40        42.90036
619.84        43.35405
620.27        43.33554
620.70        43.32815
621.13        43.22509
621.56        43.59304
621.99        43.75982
622.42        43.73681
622.85        43.76357
623.28        43.88169
623.71        43.95514
624.14        43.80412
624.57        43.94334
625.00        44.03069
625.43        43.83709
625.86         43.8945
626.29        44.10544
626.72        43.77851
627.15        43.81678
627.58        43.64578
628.01        43.60176
628.44        43.15268
628.87        42.97079
629.30         42.9784
629.73        42.68374
630.16        42.25463
630.59        42.06598
631.02        41.78949
631.45        41.55558
631.88         41.2815
632.31        40.97972
632.74        40.47703
633.17        40.19085
633.60        39.81168
634.03        39.46297
634.46        39.13258
634.89        38.80337
635.32        38.43245
635.75        38.01074
636.18        37.57856
636.61        37.15231
637.04        36.71311
637.47        36.29104
637.89        35.97952
638.32        35.74298
638.75        35.46832
639.18        35.14624
639.61        34.84219
640.04        34.55983
640.47        34.28452
640.90        34.02159
641.33        33.76241
641.76        33.51277
642.18        33.36657
642.61        33.19584
643.04        33.09877
643.47         33.0343
643.90         32.9985
644.33        32.98566
644.76         32.9999
645.18         33.0313
645.61        33.05646
646.04        33.07649
646.47        33.09993
646.90        33.15496
647.33        33.28462
647.75        33.49887
648.18        33.79119
648.61         34.1305
649.04        34.45797
649.47        34.76393
649.89        35.06972
650.32        35.38539
650.75        35.74855
651.18        36.15071
651.61        36.50097
652.03        36.76738
652.46        37.07439
652.89        37.47856
653.32        37.67198
653.74        37.91246
654.17        38.78447
654.60        39.06433
655.03        39.66906
655.46         40.1838
655.88        40.86353
656.31        42.03279
656.74        42.38557
657.16        42.59509
657.59        42.95375
658.02        42.84506
658.45        43.47365
658.87        43.74046
659.30        44.02485
659.73        44.18032
660.15        44.48205
660.58         44.5559
661.01        45.04009
661.44        45.71935
661.86        46.07423
662.29        46.10588
662.72        46.19416
663.14        46.41625
663.57        46.68209
664.00        46.97931
664.42        47.22613
664.85        47.42803
665.27        47.68996
665.70        47.99141
666.13        48.22861
666.55        48.39774
666.98        48.53831
667.41         48.6861
667.83        48.88752
668.26        49.14179
668.69        49.43192
669.11        49.73073
669.54        49.97699
669.96         50.1594
670.39        50.32716
670.82        50.48217
671.24        50.54637
671.67        50.57363
672.09        50.71981
672.52        50.97118
672.94        51.18594
673.37        51.32369
673.80        51.32663
674.22        51.25625
674.65        51.28181
675.07        51.44017
675.50        51.61543
675.92        51.77306
676.35        51.89835
676.77        51.98365
677.20        52.03436
677.62        52.08428
678.05        52.17587
678.47        52.31756
678.90        52.49706
679.32        52.69025
679.75        52.87127
680.17        53.02875
680.60        53.17777
681.02        53.29684
681.45        53.35693
681.87        53.37182
682.30        53.27494
682.72        53.14624
683.15        53.27827
683.57        53.62255
684.00        53.72712
684.42        53.61143
684.85        53.67357
685.27          53.911
685.70        54.08985
686.12        54.17759
686.54        54.25479
686.97        54.30389
687.39        54.30766
687.82        54.29915
688.24        54.22675
688.66        54.36626
689.09        54.47428
689.51        54.61506
689.94        54.72689
690.36        54.80434
690.78         54.8572
691.21        54.89348
691.63        54.91983
692.06        54.94519
692.48        54.96982
692.90        55.00439
693.33        55.03246
693.75        55.05542
694.17        55.12823
694.60        55.25759
695.02         55.2285
695.44        55.42565
695.87        55.51123
696.29        55.60821
696.71        55.75287
697.14        55.91575
697.56        56.01334
697.98        56.03337
698.41        56.09359
698.83        56.18342
699.25        56.25569
699.68        56.30928
700.10        56.41712
700.52        56.57085
700.94        56.75077
701.37        56.90434
701.79        56.97559
702.21         56.9385
702.64        56.83204
703.06        56.70023
703.48        56.62864
703.90        56.64687
704.33        56.72527
704.75        56.85319
705.17        56.99255
705.59        57.12406
706.01        57.23539
706.44        57.32004
706.86        57.46634
707.28        57.50977
707.70        57.58756
708.12        57.65144
708.55        57.65345
708.97        57.60852
709.39        57.62113
709.81        57.69225
710.23        57.73566
710.66        57.74655
711.08        57.79647
711.50         57.8608
711.92        57.88943
712.34        57.88154
712.76        57.85485
713.19        57.83536
713.61        57.88892
714.03        58.03679
714.45        58.22561
714.87        58.42326
715.29        58.56855
715.71        58.64241
716.13        58.66789
716.56        58.64701
716.98        58.60271
717.40         58.5253
717.82        58.50241
718.24        58.58441
718.66        58.39915
719.08        58.66893
719.50        58.79731
719.92        58.96511
720.34        59.09717
720.76         59.1777
721.19        59.20846
721.61        59.18962
722.03        59.11858
722.45        59.00456
722.87        58.85118
723.29        58.71138
723.71        58.66967
724.13        58.74583
724.55        58.92372
724.97        59.13956
725.39        59.28293
725.81        59.32332
726.23        59.28528
726.65        59.22883
727.07        59.25415
727.49        59.38179
727.91        59.57538
728.33        59.76864
728.75        59.85385
729.17        59.80511
729.59        59.66344
730.01        59.49042
730.43        59.38368
730.85        59.37214
731.27        59.42213
731.69        59.51163
732.10        59.61039
732.52        59.68814
732.94        59.79488
733.36        59.92384
733.78        59.96546
734.20        59.90545
734.62        60.18536
735.04        59.86265
735.46        60.13291
735.88        60.58453
736.30        60.37924
736.72        59.67674
737.13         59.7089
737.55        60.38361
737.97        60.56875
738.39        60.22639
738.81        60.00379
739.23        59.98855
739.65        60.10951
740.06        60.29503
740.48        60.39612
740.90        60.37365
741.32        60.44571
741.74        60.52196
742.16        60.58479
742.57        60.60588
742.99        60.60757
743.41        60.60286
743.83        60.58739
744.25        60.56755
744.67        60.54486
745.08        60.54014
745.50        60.55113
745.92        60.58617
746.34        60.63873
746.75        60.69738
747.17        60.71785
747.59        60.68867
748.01        60.68351
748.42         60.7031
748.84        60.58132
749.26        60.39405
749.68        60.52338
750.09        60.88717
750.51        60.97934
750.93        60.80548
751.35        60.79933
751.76        60.97585
752.18        61.02489
752.60        60.93591
753.01        61.06896
753.43        61.02883
753.85        61.08627
754.27        61.12661
754.68        61.16838
755.10        61.21358
755.52        61.27326
755.93        61.35204
756.35        61.44014
756.77         61.5214
757.18        61.59831
757.60        61.69133
758.02         61.6908
758.43        61.60509
758.85        61.71075
759.26         61.9668
759.68        61.47426
760.10        61.68024
760.51        60.86867
760.93         61.4264
761.34        61.32991
761.76         61.7643
762.18          61.711
762.59        61.46444
763.01        61.54673
763.42        61.95925
763.84        62.08985
764.26        61.94202
764.67        61.86776
765.09        61.90353
765.50        61.93253
765.92        61.93033
766.33        61.70769
766.75        61.31633
767.16        61.23515
767.58        61.36856
768.00        61.71474
768.41         62.1118
768.83        62.11407
769.24        61.78383
769.66        61.72343
770.07        61.93025
770.49        61.97589
770.90        61.89622
771.32        62.04491
771.73        62.35087
772.15        62.48579
772.56        62.43776
772.97         62.2441
773.39        61.99782
773.80        62.07712
774.22         62.4149
774.63        62.56794
775.05        62.46577
775.46        62.44759
775.88        62.48635
776.29        62.39373
776.70        62.22072
777.12        62.17965
777.53        62.31589
777.95        62.54949
778.36        62.81864
778.77        62.99411
779.19        63.03471
779.60         63.0256
780.02        63.00562
780.43        62.94294
780.84        62.87331
781.26        63.04986
781.67        63.44786
782.09        63.47864
782.50        63.09636
782.91        63.58738
783.33        63.28461
783.74        63.32938
784.15        63.21819
784.57        63.04255
784.98        62.87542
785.39        62.96339
785.81        63.26429
786.22        63.39989
786.63        63.34413
787.04        63.37675
787.46        63.49702
787.87        63.50685
788.28        63.43509
788.70         63.4026
789.11        63.40613
789.52        63.45633
789.93        63.53384
790.35         63.5247
790.76        63.47109
791.17        63.52767
791.58        63.69459
792.00        63.80909
792.41        63.87205
792.82        64.00154
793.23         64.1722
793.65        64.17939
794.06        64.10409
794.47        64.26479
794.88        64.53962
795.29        64.66695
795.71        64.40228
796.12        64.03111
796.53        63.64173
796.94        63.75249
797.35        64.29269
797.76        64.48089
798.18        64.28212
798.59        64.27907
799.00        64.47439
799.41        64.47957
799.82        64.30508
800.23        64.19267
800.64        64.16719
801.06        64.13776
801.47        64.13401
801.88        64.13647
802.29        64.14114
802.70        64.17104
803.11        64.20956
803.52        64.21555
803.93        64.18507
804.34         64.1229
804.75        64.07894
805.17        64.13331
805.58        64.32354
805.99        64.58511
806.40        64.83687
806.81        64.98222
807.22        64.96294
807.63        64.73271
808.04         64.4019
808.45        64.25244
808.86        64.34387
809.27        64.55511
809.68        64.80453
810.09        64.97647
810.50        65.02196
810.91        64.98407
811.32        64.89218
811.73         64.7873
812.14        64.69392
812.55        64.60922
812.96        64.56266
813.37        64.57184
813.78        64.65628
814.19        64.88039
814.60        65.16036
815.01        65.29339
815.42        65.25106
815.83         65.1166
816.24        64.93497
816.65        64.77368
817.05        64.68385
817.46        64.62415
817.87        64.63033
818.28        64.70822
818.69        64.84805
819.10        65.04303
819.51        65.26414
819.92        65.44901
820.33        65.56656
820.74        65.62209
821.14        65.59917
821.55         65.5172
821.96        65.37287
822.37        65.17092
822.78        64.96656
823.19        64.85751
823.60        64.87773
824.00         65.0323
824.41        65.22494
824.82        65.36831
825.23        65.42873
825.64        65.42435
826.04        65.42139
826.45        65.50214
826.86        65.68895
827.27        65.94651
827.68        66.18909
828.08        66.30897
828.49        66.21664
828.90        65.99129
829.31        65.73146
829.72        65.60231
830.12        65.67087
830.53        65.84759
830.94        66.07421
831.35        66.21932
831.75        66.25726
832.16        66.18903
832.57        66.06609
832.97        65.94473
833.38        65.85151
833.79         65.7798
834.20         65.7383
834.60        65.73836
835.01         65.7901
835.42        65.88428
835.82        66.03438
836.23        66.18732
836.64        66.34236
837.04        66.51356
837.45        66.62744
837.86        66.66274
838.26        66.62745
838.67        66.52563
839.08        66.40149
839.48         66.3144
839.89        66.28774
840.29        66.30076
840.70        66.36727
841.11        66.50671
841.51        66.72545
841.92        66.98331
842.33        67.20918
842.73        67.28055
843.14        67.12551
843.54        66.79932
843.95        66.42088
844.35        66.20264
844.76        66.19276
845.17        66.34763
845.57        66.54762
845.98        66.55437
846.38        66.33495
846.79        65.94187
847.19        65.54001
847.60        65.35348
848.00         65.4587
848.41        65.74975
848.81        66.10676
849.22        66.26777
849.62        66.19621
850.03        65.94447
850.43        65.64027
850.84        65.41008
851.24        65.33923
851.65        65.32915
852.05        65.39444
852.46        65.46896
852.86        65.51711
853.27         65.5898
853.67        65.58865
854.07        65.51142
854.48        65.32469
854.88         65.0622
855.29        64.72451
855.69         64.5089
856.10        64.39451
856.50        64.40812
856.90        64.46977
857.31        64.46709
857.71        64.41803
858.12         64.3178
858.52        64.23181
858.92        64.14441
859.33        64.05679
859.73        63.98946
860.13        63.97525
860.54         64.0949
860.94         64.3786
861.34        64.76016
861.75        65.10732
862.15        65.28253
862.55        65.22311
862.96        64.99102
863.36        64.65224
863.76        64.31613
864.17         64.0328
864.57        63.79688
864.97        63.64463
865.38        63.61065
865.78        63.72899
866.18        63.96506
866.58        64.22363
866.99        64.33927
867.39        64.28367
867.79        64.07152
868.19        63.76893
868.60         63.4471
869.00        63.12515
869.40        62.81408
869.80        62.54362
870.21        62.38008
870.61        62.41146
871.01        62.57295
871.41        62.80925
871.81        63.03336
872.22        63.19903
872.62        63.34419
873.02        63.48185
873.42        63.62757
873.82        63.78011
874.22        63.92422
874.63        64.06091
875.03        64.18938
875.43         64.3102
875.83        64.40988
876.23        64.49961
876.63        64.59338
877.03        64.68695
877.44        64.77943
877.84        64.80878
878.24        64.65535
878.64        64.31313
879.04        63.82596
879.44        63.35553
879.84        63.12132
880.24        63.15553
880.64        63.41254
881.04        63.70789
881.44        63.71883
881.84        63.37014
882.24        62.74914
882.65        62.09253
883.05        61.89526
883.45        62.22458
883.85        62.92858
884.25          63.705
884.65        64.11153
885.05        64.04845
885.45        63.64338
885.85        63.12735
886.25        62.89875
886.65        63.06837
887.05         63.5012
887.45        63.97775
887.85        64.17174
888.25        64.00279
888.65        63.57961
889.04        63.06818
889.44        62.78299
889.84         62.7869
890.24        62.97927
890.64        63.21284
891.04        63.25978
891.44         63.0724
891.84        62.75537
892.24        62.41059
892.64        62.18841
893.04        62.13626
893.44          62.188
893.83         62.3614
894.23         62.6226
894.63        62.96178
895.03        63.37887
895.43        63.75136
895.83        63.87818
896.23        63.73103
896.63        63.37002
897.02        62.96688
897.42        62.81566
897.82        62.96408
898.22        63.33662
898.62        63.77768
899.01        64.02816
899.41        63.99839
899.81         63.7772
900.21        63.49408
900.61        63.36389
901.00        63.43305
901.40        63.63831
901.80        63.87217
902.20        63.98443
902.59         63.9451
902.99        63.80592
903.39        63.62261
903.79        63.46955
904.18        63.37869
904.58         63.3218
904.98        63.31783
905.38        63.40186
905.77        63.55567
906.17        63.77775
906.57        63.98469
906.96         64.0507
907.36         63.9262
907.76        63.65887
908.15        63.34257
908.55          63.076
908.95        62.93298
909.34        62.87249
909.74        62.90728
910.14        62.98732
910.53        63.10069
910.93         63.2554
911.33         63.4361
911.72        63.61166
912.12        63.74532
912.52        63.83685
912.91        63.89881
913.31        63.98225
913.70        64.09337
914.10        64.20328
914.49        64.29676
914.89        64.29749
915.29        64.20464
915.68        64.04935
916.08        63.86243
916.47        63.68014
916.87        63.53879
917.26        63.41405
917.66        63.34633
918.05        63.36142
918.45        63.44407
918.84        63.60498
919.24        63.75623
919.64        63.82952
920.03        63.82624
920.42        63.77005
920.82        63.70351
921.21        63.68945
921.61        63.73412
922.00        63.80571
922.40         63.9419
922.79        64.26411
923.19        64.72618
923.58        65.32239
923.98         65.7951
924.37        65.81904
924.77        65.33744
925.16        64.43006
925.55        63.43642
925.95        62.95143
926.34        63.12674
926.74         63.7828
927.13        64.59584
927.52        64.93876
927.92         64.6879
928.31        64.04436
928.70        63.31045
929.10        62.93756
929.49        63.04557
929.89         63.4561
930.28        64.04833
930.67        64.51421
931.07        64.72086
931.46        64.77903
931.85        64.71424
932.24        64.59707
932.64        64.45518
933.03        64.24405
933.42        63.99381
933.82        63.76403
934.21        63.58139
934.60        63.48379
934.99        63.41888
935.39        63.26289
935.78        63.02464
936.17        62.71365
936.56        62.50316
936.96        62.66669
937.35        63.26971
937.74        64.16271
938.13         65.0152
938.53        65.36356
938.92        65.13157
939.31        64.43783
939.70        63.59037
940.09        63.14183
940.49        63.22974
940.88         63.7218
941.27        64.32833
941.66        64.60574
942.05         64.4494
942.44        64.02097
942.84        63.53204
943.23         63.2505
943.62        63.29286
944.01        63.55141
944.40         63.9155
944.79         64.2024
945.18        64.32656
945.57        64.33208
945.97        64.22713
946.36        64.09855
946.75        63.93848
947.14        63.73024
947.53        63.45799
947.92        63.11482
948.31        62.72279
948.70        62.31043
949.09        61.95568
949.48         61.7598
949.87        61.73867
950.26         61.8712
950.65        62.05951
951.04        62.14065
951.43        62.07879
951.82        61.91528
952.21        61.74995
952.60        61.76602
952.99        61.99696
953.38        62.35179
953.77        62.72509
954.16         62.9669
954.55        63.02516
954.94        62.94247
955.33        62.72225
955.72        62.37465
956.11        61.92163
956.50        61.36189
956.89        60.77958
957.28        60.31802
957.66        60.06575
958.05        60.03229
958.44        60.13604
958.83        60.21563
959.22        60.22866
959.61        60.17816
960.00        60.22103
960.39        60.61905
960.78        61.38286
961.16         62.4265
961.55         63.3555
961.94        63.59371
962.33        63.01539
962.72        61.85206
963.11        60.53137
963.49        59.67527
963.88         59.4498
964.27        59.69832
964.66         60.2406
965.04        60.75137
965.43         61.0213
965.82        61.19213
966.21        61.31653
966.60        61.48823
966.98        61.72456
967.37        61.89561
967.76        61.99244
968.15        62.00922
968.53        61.96229
968.92        61.94171
969.31         61.8448
969.69        61.47359
970.08        60.84649
970.47        60.04431
970.86        59.53719
971.24        60.12957
971.63        61.80945
972.02         64.1815
972.40        66.56992
972.79        67.92414
973.17        68.14691
973.56        67.47688
973.95        66.29222
974.33        65.25488
974.72        64.63141
975.11        64.20598
975.49        63.91557
975.88        63.69253
976.26        63.48837
976.65        63.42826
977.04        63.33208
977.42        62.81662
977.81        61.78512
978.19        60.26361
978.58        58.82714
978.96        58.42038
979.35        59.23879
979.74         61.0317
980.12        63.04325
980.51        63.82841
980.89        63.15022
981.28        61.31167
981.66        59.11475
982.05        58.11601
982.43        58.75173
982.82        60.48122
983.20        62.58733
983.59        63.81283
983.97        63.91507
984.35        63.24759
984.74        62.16803
985.12        61.27124
985.51        60.81713
985.89        60.63064
986.28        60.67731
986.66        61.03869
987.04        61.61368
987.43        62.35939
987.81         63.1199
988.20        63.49935
988.58        63.42244
988.96        63.00352
989.35        62.21323
989.73        61.10708
990.12        59.70187
990.50        57.86361
990.88        56.08106
991.27        55.46323
991.65        56.29847
992.03        58.30789
992.42        60.28202
992.80        61.01621
993.18        60.17598
993.56        57.94521
993.95        55.20841
994.33        54.02341
994.71         55.3137
995.10        58.00124
995.48        60.76986
995.86        62.16167
996.24        62.07135
996.63        60.91605
997.01        59.32591
997.39        58.63172
997.77        59.38928
998.15        61.10454
998.54        62.94444
998.92        63.86758
999.30         63.6287
999.68        62.55499
1000.06        61.18331
1000.45        60.43552
1000.83        60.67158
1001.21        61.53111
1001.59        62.50954
1001.97        62.85768
1002.35        62.42661
1002.73        61.54406
1003.12        60.51674
1003.50         59.8002
1003.88        59.70004
1004.26        59.87909
1004.64        60.43946
1005.02        61.59277
1005.40        63.26056
1005.78         65.4585
1006.16        67.34097
1006.54        67.35895
1006.92        65.19232
1007.30        61.28279
1007.69        57.12543
1008.07        55.15724
1008.45        56.07944
1008.83        59.15146
1009.21        62.86903
1009.59        65.03001
1009.97        65.04586
1010.35        63.37143
1010.73        60.82735
1011.11        59.51875
1011.49        60.41448
1011.86        62.82149
1012.24        65.44189
1012.62        66.83167
1013.00          66.735
1013.38        65.80645
1013.76        64.57111
1014.14        63.83161
1014.52        63.88185
1014.90        64.31131
1015.28        65.24033
1015.66        66.86889
1016.04         69.0004
1016.41        71.68185
1016.79        73.66387
1017.17        73.48781
1017.55        71.06705
1017.93        66.90385
1018.31        62.60572
1018.69         60.7257
1019.06        61.99387
1019.44        65.99162
1019.82        71.26015
1020.20        74.51557
1020.58        74.44285
1020.95        71.90343
1021.33        68.69798
1021.71        67.17343
1022.09        67.69491
1022.46        69.44698
1022.84        71.22306
1023.22        70.74856
1023.60        67.24253
1023.97        61.03341
1024.35        53.68896
1024.73        48.61483
