SpectraSmart Spectrum 2.9.0.0
--------- Device Information -----------
Spectrum Name :  反射率_0
Saving Time :  2024/04/27 22:37:25
Spectro-Module Model Name : SE2030-DUVN
Spectro-Module Serial Number : OS361AC55029948
Wavelength Start : 200
Wavelength End : 1025
Wavelength Unit : Wavelength(nm)
Spectrum Unit : Reflectance(%)
-----------Spectrum Setting ------------
Integration Time : 20ms
Average : 10
Boxcar : 0
Background removal :  enabled
linearity correction :  enabled
SC :  disabled
Intensity correction :  disabled
DWT denoise :  enabled
savitzky-golay :  disabled
FFT :  disabled
Running average :  disabled
Kalman :  disabled
High pass :  disabled
---------------BEGIN--------------------
Wavelength(nm)             Reflectance(%)
200.29               0
200.75       -15.84718
201.21         1.42894
201.67        16.57646
202.13        23.35903
202.58        24.69854
203.04        23.66128
203.50        24.34101
203.96        31.25084
204.42        42.68002
204.88        55.01062
205.34        64.82726
205.80         69.6864
206.26        69.59966
206.72        64.31868
207.18        52.43287
207.64        39.36977
208.10        34.59783
208.55        37.71915
209.01        40.24262
209.47        37.72654
209.93        27.97476
210.39        1.153404
210.85        -76.5183
211.31       -147.0875
211.77       -16.71336
212.23        54.40123
212.69        75.87519
213.14        79.06397
213.60        71.80405
214.06        53.42333
214.52        19.56335
214.98       -9.777861
215.44       -6.592933
215.90        11.65222
216.36        28.80351
216.81        39.30305
217.27        44.76528
217.73        48.71724
218.19        50.99623
218.65        50.25426
219.11        46.46581
219.57        39.60592
220.02         31.3126
220.48        27.85254
220.94        30.94914
221.40        37.85136
221.86        46.36901
222.32        54.43703
222.77         61.2085
223.23        66.88367
223.69        70.40302
224.15        70.42924
224.61        67.31388
225.06        61.58785
225.52        55.34438
225.98        52.56966
226.44        53.91652
226.90         57.0908
227.36        60.31977
227.81         62.3315
228.27        63.19247
228.73        63.40078
229.19        62.78846
229.65        61.01541
230.10        58.19893
230.56        54.88401
231.02         51.7599
231.48        49.84512
231.93        49.22684
232.39        49.67567
232.85        50.86202
233.31        52.35046
233.77        53.87181
234.22        55.48872
234.68        56.79924
235.14        57.37446
235.60        57.16518
236.05        56.13424
236.51        54.75177
236.97        54.13334
237.43        54.73984
237.88        56.51954
238.34        58.33187
238.80        59.14396
239.26         58.6246
239.71        56.49158
240.17        52.96244
240.63        51.66718
241.08        55.28922
241.54        60.70228
242.00          64.549
242.46        65.42459
242.91        63.44257
243.37        57.36362
243.83         43.5322
244.28        23.07933
244.74        15.60992
245.20        26.25449
245.66         38.5406
246.11        43.06243
246.57        40.85448
247.03        33.60785
247.48        21.92034
247.94        16.25847
248.40        25.15804
248.85        40.60238
249.31        54.47577
249.77         61.4658
250.22        62.68394
250.68        61.23926
251.14        58.75296
251.59        56.09001
252.05        53.15528
252.51        48.53691
252.96        42.36996
253.42        39.19173
253.88        41.19096
254.33        46.81404
254.79        51.37983
255.25        51.53899
255.70        48.55606
256.16        44.64029
256.62        42.61037
257.07        45.31605
257.53        51.40762
257.99        58.06578
258.44         62.8447
258.90        64.12775
259.35        62.28754
259.81        59.14597
260.27        55.82466
260.72        53.59509
261.18        52.87973
261.63        52.83989
262.09        53.15434
262.55        53.15768
263.00        52.70509
263.46        52.14769
263.91        51.63634
264.37        51.67944
264.83        52.16497
265.28         52.8103
265.74        53.30022
266.19        53.03482
266.65        52.07264
267.11        50.60889
267.56        48.99543
268.02        47.88075
268.47        47.36965
268.93        47.27181
269.38        47.34456
269.84        47.23674
270.30        46.82087
270.75        46.21651
271.21        45.45695
271.66        44.53127
272.12        43.51134
272.57        42.36683
273.03        41.26793
273.48        40.40042
273.94        39.85928
274.39        39.54919
274.85        39.38982
275.31        39.16107
275.76        38.78287
276.22        38.33718
276.67        37.83805
277.13        37.42705
277.58        37.06057
278.04        36.74147
278.49        36.33902
278.95        35.80062
279.40        35.07304
279.86          34.276
280.31        33.46518
280.77        32.85004
281.22        32.41735
281.68        32.15333
282.13        31.94364
282.59        31.69033
283.04         31.3413
283.50         30.9529
283.95        30.55337
284.41        30.23348
284.86        29.99684
285.32        29.84042
285.77        29.70656
286.22        29.55935
286.68        29.40268
287.13        29.20993
287.59        29.04833
288.04        28.93679
288.50        28.90584
288.95        28.90951
289.41         28.9052
289.86         28.7797
290.32        28.54384
290.77         28.2268
291.22        27.92459
291.68        27.77138
292.13         27.7866
292.59        27.94822
293.04        28.18083
293.50        28.39314
293.95        28.54859
294.40        28.68524
294.86        28.85569
295.31        29.13087
295.77        29.53356
296.22        30.02233
296.68        30.55167
297.13        31.02726
297.58        31.43058
298.04        31.78641
298.49        32.13211
298.95        32.54406
299.40        33.02779
299.85        33.54826
300.31        34.08751
300.76        34.57735
301.21        35.00621
301.67        35.40668
302.12         35.7399
302.58        35.99133
303.03        36.15501
303.48        36.25131
303.94        36.38494
304.39        36.66537
304.84        37.11517
305.30         37.6888
305.75        38.23954
306.20        38.58725
306.66        38.70691
307.11        38.63113
307.57        38.48392
308.02        38.39182
308.47        38.41015
308.93        38.49451
309.38        38.57317
309.83        38.56755
310.29         38.4688
310.74        38.30191
311.19        38.10945
311.65        37.94697
312.10        37.81662
312.55        37.70672
313.00         37.6158
313.46        37.54524
313.91        37.48347
314.36        37.43431
314.82        37.36995
315.27        37.23994
315.72        37.04065
316.18        36.79732
316.63        36.54362
317.08        36.35678
317.53        36.25476
317.99        36.20922
318.44        36.19729
318.89        36.16505
319.35        36.09201
319.80        35.99271
320.25        35.86798
320.70        35.72546
321.16        35.56281
321.61        35.38257
322.06        35.18817
322.51        34.99176
322.97        34.79601
323.42        34.61993
323.87        34.45313
324.32         34.2836
324.78        34.10738
325.23        33.93309
325.68        33.78371
326.13        33.70391
326.59        33.68371
327.04        33.72704
327.49        33.76472
327.94        33.69538
328.39        33.49627
328.85        33.18993
329.30        32.85547
329.75        32.61354
330.20        32.50467
330.66        32.47988
331.11        32.51094
331.56        32.49542
332.01        32.40187
332.46        32.26339
332.92        32.08398
333.37        31.90637
333.82        31.73695
334.27        31.55811
334.72        31.40016
335.17        31.31672
335.63        31.30741
336.08        31.38542
336.53        31.47049
336.98        31.43712
337.43        31.26358
337.88        30.98807
338.34        30.71533
338.79        30.62697
339.24        30.76192
339.69        31.05763
340.14        31.40332
340.59        31.62087
341.05        31.65313
341.50        31.55371
341.95        31.37686
342.40        31.21828
342.85        31.11383
343.30        31.03746
343.75        30.97141
344.20        30.89027
344.66         30.7941
345.11        30.69859
345.56        30.62918
346.01        30.61469
346.46         30.6551
346.91        30.72989
347.36        30.81027
347.81        30.85324
348.26        30.84907
348.72        30.81545
349.17        30.75748
349.62        30.68663
350.07        30.60894
350.52        30.51061
350.97        30.42904
351.42        30.42467
351.87         30.4986
352.32        30.63467
352.77        30.74203
353.22        30.67963
353.67        30.43129
354.13        30.06144
354.58        29.66617
355.03        29.45315
355.48        29.47071
355.93        29.65481
356.38        29.89962
356.83        30.03761
357.28         30.0206
357.73        29.90058
358.18        29.73028
358.63        29.59234
359.08        29.50979
359.53        29.44453
359.98        29.37836
360.43        29.29096
360.88        29.17258
361.33        29.03351
361.78        28.85785
362.23        28.64924
362.68        28.41788
363.13        28.10836
363.58        27.73479
364.03        27.65276
364.48        27.33668
364.93        27.20764
365.38        27.08865
365.83        26.96535
366.28        26.82149
366.73         26.6657
367.18        26.50345
367.63        26.32899
368.08        26.14649
368.53        25.96109
368.98        25.77073
369.43        25.57301
369.88        25.37391
370.33        25.17743
370.78        25.00997
371.23        24.91382
371.68        24.88858
372.13        24.91003
372.58        24.93497
373.03        24.89278
373.48        24.76532
373.93        24.58191
374.38        24.35633
374.83        24.11106
375.28        23.86639
375.72        23.60899
376.17        23.40724
376.62        23.32595
377.07        23.36349
377.52        23.48324
377.97        23.60772
378.42        23.61296
378.87        23.47195
379.32        23.23342
379.77        22.93514
380.22        22.63646
380.67        22.36346
381.11        22.09515
381.56        21.87424
382.01        21.76988
382.46        21.78818
382.91        21.91697
383.36        22.05249
383.81        22.02847
384.26        21.81492
384.71         21.4557
385.15        21.07189
385.60        20.89098
386.05        20.94604
386.50         21.1698
386.95        21.42717
387.40        21.50663
387.85        21.37041
388.29        21.08968
388.74        20.80773
389.19        20.67527
389.64        20.71756
390.09        20.85972
390.54        21.03283
390.98        21.12746
391.43        21.11697
391.88        21.04302
392.33        20.90076
392.78        20.71432
393.23         20.5126
393.67        20.20497
394.12        19.87741
394.57        19.88447
395.02        19.88184
395.47          19.814
395.91        19.60934
396.36        19.53842
396.81        19.61053
397.26        19.67353
397.71        19.69565
398.15        19.70603
398.60        19.71852
399.05        19.64419
399.50        19.53641
399.95        19.59964
400.39        19.77969
400.84        19.77097
401.29        19.56999
401.74        19.36749
402.18        19.22544
402.63         19.1848
403.08        19.22902
403.53        19.22016
403.97        19.15191
404.42        19.13422
404.87        19.16239
405.32        19.18951
405.76        19.20609
406.21        19.17539
406.66        19.11158
407.11        19.12967
407.55        19.18141
408.00        19.06299
408.45        18.80021
408.90        18.50627
409.34        18.28878
409.79        18.36745
410.24        18.66086
410.68        18.79356
411.13         18.7258
411.58        18.67731
412.03        18.67854
412.47        18.68263
412.92        18.68963
413.37        18.71116
413.81        18.73634
414.26        18.76649
414.71        18.79431
415.15        18.82414
415.60        18.84222
416.05        18.83361
416.49        18.79917
416.94        18.74098
417.39         18.6793
417.83        18.64814
418.28        18.64844
418.73         18.6624
419.17        18.68119
419.62        18.69172
420.07        18.69638
420.51         18.7127
420.96        18.71734
421.41        18.69544
421.85        18.64385
422.30         18.4804
422.74        18.30252
423.19         18.4878
423.64        18.96152
424.08         19.2122
424.53        19.12967
424.98        19.08346
425.42        19.08331
425.87        18.77597
426.31        18.31545
426.76        18.33344
427.21        18.75579
427.65        18.88385
428.10        18.70943
428.54        18.71282
428.99        18.89162
429.44         19.1181
429.88         19.2683
430.33        19.00098
430.77         18.4869
431.22        18.35947
431.66        18.64239
432.11        18.94706
432.56        19.19093
433.00        19.42658
433.45        19.43464
433.89        19.07541
434.34        18.70674
434.78        17.72267
435.23        18.40252
435.67        18.98058
436.12        19.22042
436.57        19.32027
437.01        19.14481
437.46        19.07597
437.90        19.21608
438.35        19.45355
438.79        19.15726
439.24        19.07564
439.68        19.05066
440.13        19.03126
440.57        19.00529
441.02        19.12936
441.46        19.34861
441.91        19.21692
442.35        18.87683
442.80        19.14528
443.24        19.85287
443.69        19.88629
444.13        19.29047
444.58        19.05496
445.02        19.19547
445.47        19.19528
445.91        19.05202
446.36        19.02886
446.80        19.12315
447.24        19.24836
447.69        19.37297
448.13        19.49563
448.58         19.5759
449.02        19.52605
449.47        19.38735
449.91        19.31221
450.36        19.32408
450.80        19.33969
451.25        19.35458
451.69        19.39129
452.13        19.43763
452.58        19.47124
453.02        19.47928
453.47        19.45093
453.91        19.38368
454.36        19.31234
454.80        19.22674
455.24        19.09136
455.69        18.95856
456.13        18.85774
456.58         18.8224
457.02        18.97122
457.46        19.18863
457.91        19.13454
458.35        18.91773
458.79        18.82396
459.24        18.88868
459.68         18.9267
460.13        18.93193
460.57        18.86779
461.01        18.81756
461.46        18.80629
461.90        18.75036
462.34        18.72552
462.79        19.02222
463.23        19.11607
463.68        19.09407
464.12         19.0517
464.56        19.01361
465.01        19.03868
465.45        19.05256
465.89        18.93537
466.34        18.75588
466.78        18.60919
467.22        18.51339
467.67        18.88859
468.11        18.89145
468.55        18.98723
468.99        18.93099
469.44        18.92713
469.88        18.97253
470.32        18.92943
470.77        18.83815
471.21        18.82742
471.65        18.91522
472.10        19.06609
472.54        19.21557
472.98        19.29333
473.42        19.28802
473.87        19.17149
474.31        19.01137
474.75        19.08649
475.20        19.34614
475.64         19.4015
476.08        19.24419
476.52         19.2328
476.97        19.38643
477.41        19.32642
477.85        19.24376
478.29        19.40636
478.74        19.32685
479.18        19.22427
479.62        19.58221
480.06        19.67869
480.50        19.71355
480.95        19.68259
481.39        19.58371
481.83        19.83659
482.27        19.85165
482.72        19.78277
483.16        20.05069
483.60        20.09197
484.04        20.07642
484.48        20.04108
484.93        20.14164
485.37        20.09359
485.81        20.75807
486.25        20.89897
486.69        20.39489
487.14        20.16925
487.58        21.15081
488.02        20.93748
488.46        21.04985
488.90        21.39367
489.34        20.83635
489.79          20.611
490.23         21.1296
490.67        21.44618
491.11        21.68992
491.55        21.67369
491.99         21.4888
492.43        21.51282
492.88        21.76638
493.32        21.97726
493.76        22.11302
494.20        22.31312
494.64        22.58584
495.08        22.81767
495.52        22.98635
495.96        23.26873
496.41        23.61914
496.85        23.44544
497.29        22.95083
497.73        23.06988
498.17        23.71522
498.61        24.07597
499.05        24.04158
499.49        24.03567
499.93        24.12605
500.37         24.2349
500.82        24.35348
501.26        24.52764
501.70        24.76765
502.14        24.55541
502.58         24.7867
503.02        24.84107
503.46        24.88126
503.90         24.9338
504.34        24.97821
504.78         25.0584
505.22        25.16149
505.66        25.23391
506.10        25.28555
506.54        25.40011
506.98        25.58426
507.42        25.68778
507.86        25.88462
508.30        25.97248
508.74        26.00379
509.18        25.98566
509.62        25.95236
510.06        25.95651
510.50        26.01032
510.94        26.09928
511.38        26.20166
511.82        26.28151
512.26        26.32816
512.70        26.35747
513.14        26.37687
513.58        26.38646
514.02         26.3908
514.46        26.40568
514.90        26.44656
515.34        26.44647
515.78        26.55781
516.22        26.64814
516.66        26.74385
517.10        26.80997
517.54        26.83774
517.98        26.83393
518.42        26.80199
518.86        26.75354
519.30        26.69643
519.74        26.63091
520.18        26.56987
520.62        26.53146
521.06        26.52113
521.50        26.53893
521.93        26.57314
522.37        26.59355
522.81        26.59374
523.25        26.57218
523.69        26.54533
524.13        26.54079
524.57        26.56086
525.01        26.59789
525.45        26.61453
525.89        26.55229
526.32        26.40325
526.76        26.19967
527.20        25.99961
527.64        25.89852
528.08        25.91429
528.52        26.00924
528.96        26.12995
529.40        26.19248
529.83        26.16867
530.27        26.08759
530.71        25.96047
531.15        25.80663
531.59        25.64309
532.03        25.46903
532.46        25.30751
532.90        25.21071
533.34        25.18372
533.78        25.21337
534.22        25.27548
534.66        25.32835
535.09         25.3551
535.53        25.37206
535.97         25.3713
536.41        25.34716
536.85        25.30378
537.28        25.24189
537.72        25.18962
538.16         25.1901
538.60        25.25236
539.04        25.37051
539.47        25.50143
539.91        25.59311
540.35        25.62712
540.79        25.62371
541.22        25.61432
541.66        25.65158
542.10        25.74737
542.54        25.88629
542.97        26.03467
543.41        26.15622
543.85        26.23887
544.29        26.29931
544.72        26.36213
545.16        26.48278
545.60         26.6629
546.04        26.88166
546.47        27.11143
546.91        27.30507
547.35        27.44623
547.79        27.56278
548.22        27.66028
548.66        27.73854
549.10        27.82409
549.53        28.01369
549.97        28.28956
550.41        28.52129
550.84        28.68816
551.28        28.88145
551.72        29.10335
552.15        29.26227
552.59        29.35113
553.03        29.60468
553.46        29.62652
553.90        29.78546
554.34          29.962
554.77        30.16704
555.21        30.36208
555.65        30.49369
556.08        30.52673
556.52        30.54589
556.96        30.57672
557.39        30.70196
557.83         30.9078
558.27        31.04202
558.70        31.09611
559.14        31.17249
559.57        31.26197
560.01        31.34058
560.45        31.39762
560.88        31.39994
561.32        31.41571
561.75        31.52197
562.19        31.71335
562.63        31.96308
563.06        32.18361
563.50        32.14075
563.93        31.90682
564.37         31.8775
564.80        32.06935
565.24        32.28809
565.68        32.48281
566.11        32.64589
566.55        32.76831
566.98        32.87812
567.42        32.98648
567.85        33.01733
568.29        33.03771
568.72        33.14198
569.16         33.3368
569.60        33.55888
570.03        33.81295
570.47        33.85602
570.90        34.10352
571.34        34.39306
571.77        34.59586
572.21        34.51639
572.64        34.82673
573.08        34.77515
573.51        34.86525
573.95        35.11956
574.38        35.48643
574.82        35.52861
575.25        35.23876
575.69        35.39869
576.12        35.26541
576.56        35.66861
576.99        35.56067
577.42        35.75858
577.86        35.79469
578.29        36.01038
578.73        35.55743
579.16        35.50333
579.60        35.52986
580.03        35.46157
580.47        35.27441
580.90        35.09926
581.33        35.23522
581.77        35.19931
582.20        34.77191
582.64        34.75431
583.07        34.63236
583.51        34.54518
583.94         34.4594
584.37        34.42153
584.81         34.4123
585.24        34.22398
585.68        33.98167
586.11        33.81336
586.54        33.67471
586.98         33.8025
587.41        33.99296
587.85        33.63835
588.28        33.48938
588.71        33.58562
589.15        33.65121
589.58        33.41523
590.01        33.67859
590.45        33.64713
590.88        33.00083
591.31        33.01353
591.75        33.43572
592.18        33.53943
592.61        33.37279
593.05         33.4348
593.48        33.91812
593.91        33.63258
594.35        33.61253
594.78        33.87039
595.21        34.07012
595.65        34.13442
596.08        33.89699
596.51        34.36001
596.94        34.39526
597.38        34.74227
597.81        35.08662
598.24        35.05994
598.68         35.6504
599.11        35.82741
599.54        36.02425
599.97         36.2156
600.41        36.91918
600.84        37.30384
601.27         37.4868
601.70        37.69977
602.14        37.84846
602.57        38.42902
603.00        38.89306
603.43        39.55375
603.87        39.76144
604.30        40.05317
604.73        40.38932
605.16        41.20269
605.60        41.54671
606.03        42.14869
606.46        42.69402
606.89        42.87115
607.32        43.30932
607.76        44.03927
608.19        43.99017
608.62        44.27557
609.05        44.61576
609.48        44.91956
609.92        45.08712
610.35        45.94923
610.78        45.92544
611.21        46.03702
611.64        46.64009
612.07        46.82089
612.50        46.85043
612.94        47.02482
613.37        47.42273
613.80        47.66259
614.23         48.0638
614.66         48.4051
615.09        48.72294
615.52        48.99142
615.96        49.27343
616.39        49.15832
616.82        49.52687
617.25        49.94156
617.68        50.10761
618.11        50.29031
618.54        50.39425
618.97        50.65068
619.40        51.00558
619.84        51.48516
620.27        51.49396
620.70        51.69861
621.13        51.85676
621.56        51.97738
621.99        51.64276
622.42         51.6819
622.85        51.71706
623.28        52.22757
623.71        52.08474
624.14        52.05246
624.57        52.06694
625.00        52.45559
625.43        52.10486
625.86        52.08876
626.29        52.08504
626.72        51.74735
627.15        51.93563
627.58         51.3723
628.01        51.60935
628.44        51.14598
628.87        50.99999
629.30        50.94738
629.73        50.59484
630.16        49.88969
630.59        49.98285
631.02        49.77593
631.45        49.58855
631.88        49.34714
632.31        49.05777
632.74        48.48001
633.17         48.1233
633.60        47.66833
634.03         47.2734
634.46        46.91214
634.89        46.56187
635.32        46.16622
635.75        45.71099
636.18        45.24878
636.61        44.79541
637.04        44.31861
637.47        43.85342
637.89        43.51546
638.32        43.26548
638.75        42.97218
639.18        42.62595
639.61        42.30249
640.04        42.00945
640.47        41.73498
640.90        41.48356
641.33        41.24044
641.76        40.99903
642.18         40.8525
642.61        40.63905
643.04        40.48612
643.47        40.35648
643.90        40.26648
644.33        40.21898
644.76        40.21741
645.18        40.24596
645.61        40.27071
646.04        40.28766
646.47        40.30128
646.90        40.35629
647.33         40.5207
647.75        40.81182
648.18         41.2245
648.61        41.67792
649.04        42.05519
649.47        42.34341
649.89        42.51466
650.32        42.67647
650.75        43.18225
651.18        43.96469
651.61        44.51685
652.03        44.76042
652.46         45.0639
652.89        45.53028
653.32        45.75848
653.74        46.02528
654.17        47.10382
654.60        47.04278
655.03         47.7028
655.46        48.35313
655.88        48.80423
656.31        50.36713
656.74        50.76561
657.16        50.89294
657.59        50.94938
658.02        50.40441
658.45        51.31827
658.87        52.02669
659.30        52.16854
659.73        51.91471
660.15        52.28264
660.58        52.35379
661.01        52.93029
661.44        53.56089
661.86        53.82173
662.29         53.7411
662.72        53.85252
663.14        54.21087
663.57        54.48192
664.00        54.64792
664.42        54.80814
664.85        54.97546
665.27        55.15163
665.70        55.33317
666.13        55.49996
666.55        55.65551
666.98        55.80591
667.41        55.98505
667.83        56.23552
668.26        56.55233
668.69        56.92967
669.11        57.29442
669.54        57.54146
669.96        57.65773
670.39        57.60893
670.82        57.50454
671.24        57.64899
671.67        58.01078
672.09        58.24413
672.52        58.33092
672.94        58.41531
673.37        58.53121
673.80        58.68309
674.22        58.87579
674.65        59.01609
675.07         59.1175
675.50         59.2383
675.92        59.38976
676.35        59.53819
676.77        59.68937
677.20        59.85597
677.62        60.04071
678.05        60.22601
678.47         60.4054
678.90        60.58995
679.32        60.77551
679.75        60.95161
680.17        61.10551
680.60        61.30184
681.02        61.52464
681.45        61.57338
681.87          61.489
682.30        61.73933
682.72        61.87929
683.15        62.10267
683.57        62.25213
684.00        62.30674
684.42        62.30984
684.85        62.40684
685.27        62.60267
685.70        62.82983
686.12        63.04197
686.54         63.1661
686.97        63.20493
687.39        63.32458
687.82        63.51301
688.24        63.48236
688.66        63.53484
689.09         63.4988
689.51        63.51099
689.94        63.56026
690.36         63.6654
690.78        63.82259
691.21        63.99758
691.63        64.12646
692.06        64.19963
692.48        64.23628
692.90        64.26795
693.33        64.33576
693.75        64.45383
694.17        64.60714
694.60        64.77281
695.02        64.94324
695.44        65.09869
695.87        65.23663
696.29        65.35379
696.71        65.47221
697.14        65.56644
697.56        65.59071
697.98        65.57291
698.41        65.65811
698.83        65.83651
699.25        66.07221
699.68        66.31295
700.10        66.50769
700.52        66.61523
700.94        66.80242
701.37        66.78432
701.79        66.80482
702.21        66.77859
702.64           66.73
703.06        66.68028
703.48        66.68941
703.90        66.77848
704.33        66.92266
704.75        67.11279
705.17        67.30711
705.59        67.48537
706.01        67.62883
706.44         67.7302
706.86        67.89981
707.28        67.94663
707.70        68.02955
708.12        68.10239
708.55        68.12226
708.97         68.1328
709.39        68.19027
709.81         68.3008
710.23        68.39532
710.66        68.46709
711.08        68.56877
711.50        68.68777
711.92        68.81173
712.34        68.93891
712.76        69.06603
713.19        69.17557
713.61        69.28683
714.03        69.37893
714.45        69.45387
714.87        69.51333
715.29        69.55988
715.71        69.59768
716.13        69.63018
716.56        69.65637
716.98        69.73418
717.40        69.84404
717.82        70.00434
718.24        70.20183
718.66        70.27235
719.08        70.43062
719.50        70.50036
719.92        70.55935
720.34        70.62052
720.76        70.69154
721.19        70.75685
721.61        70.82097
722.03        70.86684
722.45        70.89046
722.87        70.89487
723.29         70.8979
723.71        70.92571
724.13        70.98572
724.55        71.07639
724.97        71.16809
725.39        71.21149
725.81        71.19875
726.23        71.14291
726.65        71.09597
727.07        71.14184
727.49        71.29384
727.91        71.52263
728.33        71.75964
728.75        71.88909
729.17        71.88274
729.59        71.78165
730.01        71.64411
730.43        71.56652
730.85        71.57792
731.27        71.64166
731.69        71.75038
732.10        71.89559
732.52        72.04637
732.94        72.25911
733.36         72.4968
733.78        72.55999
734.20        72.41613
734.62        72.66454
735.04        72.21045
735.46        72.43304
735.88        72.88593
736.30        72.85612
736.72        72.43431
737.13        72.50232
737.55        72.98882
737.97        73.25295
738.39        73.21517
738.81        72.91093
739.23        72.51689
739.65        72.71699
740.06        73.33577
740.48        73.55585
740.90        73.31091
741.32        73.11703
741.74        72.95981
742.16        73.14363
742.57        73.17444
742.99        73.49944
743.41        73.86028
743.83        73.96362
744.25        73.82236
744.67        73.73912
745.08         73.7852
745.50        73.79919
745.92        73.80394
746.34        73.90974
746.75        74.09762
747.17        74.13794
747.59         73.9896
748.01        73.96708
748.42        74.15034
748.84        73.42977
749.26        73.72359
749.68        73.63623
750.09        73.71259
750.51        73.87579
750.93        74.06976
751.35          74.155
751.76        74.13207
752.18        74.15967
752.60        74.24361
753.01        74.29745
753.43        74.31459
753.85        74.30603
754.27        74.26564
754.68        74.32305
755.10        74.53827
755.52        74.27966
755.93         74.7048
756.35        74.86731
756.77        75.05158
757.18         75.1944
757.60        75.31316
758.02        75.24696
758.43        75.00292
758.85        75.19695
759.26        75.20251
759.68         74.8234
760.10        75.26494
760.51         74.4267
760.93        75.09879
761.34        75.06274
761.76        75.33147
762.18        75.64929
762.59        76.02704
763.01        75.96117
763.42        75.55449
763.84        75.36362
764.26        75.49506
764.67        75.60872
765.09        75.70871
765.50        75.91103
765.92        76.13733
766.33        76.11716
766.75        75.83255
767.16        75.58631
767.58        75.28388
768.00        75.47874
768.41        76.03711
768.83        75.98645
769.24        75.68652
769.66        75.68967
770.07        76.03796
770.49        76.09325
770.90        75.90808
771.32        76.00978
771.73        76.36225
772.15        76.53436
772.56        76.51966
772.97        76.50617
773.39        76.49861
773.80        76.53017
774.22        76.57771
774.63        76.62984
775.05        76.65879
775.46        76.74958
775.88        76.86764
776.29        77.00842
776.70        77.13702
777.12        77.22527
777.53        77.27719
777.95        77.26733
778.36        77.22791
778.77        77.18439
779.19        77.16172
779.60        77.20909
780.02        77.27707
780.43        77.31375
780.84        77.33878
781.26        77.28619
781.67        77.30547
782.09        77.83776
782.50        78.46626
782.91        78.93504
783.33         77.3859
783.74        77.03884
784.15        77.38066
784.57        77.74738
784.98         78.0467
785.39        77.70849
785.81        77.83718
786.22        78.05262
786.63        78.55587
787.04        78.74675
787.46        78.61385
787.87        78.44405
788.28         78.3263
788.70        78.29623
789.11        78.37232
789.52        78.53066
789.93        78.70869
790.35         78.9134
790.76        79.10678
791.17        78.95499
791.58        78.58554
792.00        78.67964
792.41        79.15514
792.82        79.16925
793.23        78.77074
793.65        78.58539
794.06          78.727
794.47        79.14162
794.88         79.6769
795.29         79.7372
795.71        79.77085
796.12        79.56243
796.53        79.34148
796.94        79.24527
797.35        79.28872
797.76         79.2812
798.18        79.21538
798.59        79.21234
799.00        79.27107
799.41        79.31084
799.82        79.32587
800.23        79.35563
800.64        79.40383
801.06        79.43859
801.47        79.49502
801.88        79.55095
802.29        79.59487
802.70        79.61274
803.11        79.63989
803.52        79.69215
803.93        79.77174
804.34        80.01012
804.75        80.29704
805.17        80.15581
805.58        79.75017
805.99        79.69991
806.40        80.03073
806.81        80.43431
807.22        80.72697
807.63        80.61828
808.04        80.21807
808.45        80.12057
808.86         80.3774
809.27        80.59521
809.68        80.68111
810.09        80.67609
810.50        80.55907
810.91        80.33012
811.32        80.05534
811.73         79.8625
812.14        79.79866
812.55        79.79095
812.96        79.85168
813.37        80.11067
813.78        80.48902
814.19        80.69878
814.60        80.73423
815.01        80.82848
815.42        80.98933
815.83        81.06673
816.24        81.04741
816.65        81.00532
817.05        80.95563
817.46        80.83816
817.87        80.73298
818.28        80.70138
818.69        80.75494
819.10        80.89451
819.51        81.04158
819.92        81.06297
820.33        80.93174
820.74        80.63967
821.14        80.31434
821.55        80.30119
821.96        80.57698
822.37        80.83037
822.78         80.9678
823.19        81.06667
823.60        81.08838
824.00        80.94746
824.41        80.69222
824.82        80.58025
825.23        80.66174
825.64         80.8731
826.04        81.14983
826.45        81.33839
826.86        81.41073
827.27        81.41508
827.68        81.41669
828.08        81.55101
828.49        81.77131
828.90        82.06041
829.31        82.35677
829.72        82.56978
830.12          82.686
830.53        82.67569
830.94        82.56747
831.35         82.3712
831.75        82.13237
832.16        81.80997
832.57        81.47105
832.97        81.19054
833.38        80.99911
833.79        80.91202
834.20        80.92622
834.60        81.01634
835.01        81.18153
835.42         81.4091
835.82        81.70589
836.23        81.99386
836.64        82.26841
837.04        82.53873
837.45        82.72977
837.86        82.84325
838.26        82.88685
838.67        82.83921
839.08        82.74085
839.48        82.64118
839.89        82.56217
840.29        82.51414
840.70        82.48505
841.11        82.44963
841.51        82.42578
841.92        82.38422
842.33        82.37849
842.73        82.48642
843.14        82.66237
843.54        82.90638
843.95        83.13541
844.35        83.24831
844.76        83.20354
845.17        83.02536
845.57        82.79431
845.98        82.60204
846.38        82.51218
846.79        82.48564
847.19        82.47796
847.60        82.34955
848.00          82.106
848.41        81.75739
848.81        81.45673
849.22         81.3652
849.62        81.55298
850.03        81.93533
850.43        82.37072
850.84        82.54716
851.24        82.44688
851.65         82.0788
852.05         81.6882
852.46        81.59164
852.86        81.86893
853.27         82.4053
853.67        82.90668
854.07        83.18723
854.48        83.15726
854.88        82.93822
855.29        82.53172
855.69         82.1833
856.10        81.88325
856.50        81.66687
856.90        81.49437
857.31        81.33908
857.71        81.24009
858.12          81.167
858.52        81.15682
858.92        81.12285
859.33        81.02515
859.73        80.90929
860.13        80.76847
860.54        80.63309
860.94        80.55253
861.34        80.47617
861.75        80.35951
862.15        80.19235
862.55        79.95087
862.96        79.68021
863.36        79.39085
863.76        79.08174
864.17        78.76379
864.57        78.44286
864.97        78.22099
865.38        78.23689
865.78        78.55009
866.18        79.10475
866.58        79.66219
866.99        79.80977
867.39        79.48789
867.79        78.78852
868.19        78.03427
868.60        77.67185
869.00        77.79466
869.40        78.31223
869.80        78.98608
870.21        79.37099
870.61        79.39214
871.01        79.11715
871.41        78.75639
871.81        78.60513
872.22        78.70419
872.62        78.99911
873.02        79.33718
873.42        79.44328
873.82        79.24512
874.22         78.8538
874.63        78.48723
875.03        78.40829
875.43        78.67445
875.83        79.18671
876.23        79.75562
876.63         80.0696
877.03        80.03632
877.44        79.73766
877.84        79.33888
878.24        79.08258
878.64        79.04062
879.04        79.12688
879.44        79.25521
879.84         79.3026
880.24        79.24269
880.64        79.13989
881.04        79.02554
881.44        78.94249
881.84        78.90794
882.24        78.87868
882.65        78.86098
883.05        78.98275
883.45        79.19886
883.85        79.48738
884.25        79.71621
884.65        79.68534
885.05        79.37457
885.45        78.85107
885.85        78.30039
886.25        78.04575
886.65        78.18054
887.05        78.61603
887.45        79.16798
887.85        79.55242
888.25        79.68419
888.65         79.6218
889.04        79.48425
889.44        79.51107
889.84        79.73106
890.24        80.05711
890.64        80.31739
891.04         80.2536
891.44        79.83498
891.84        79.18861
892.24         78.5148
892.64        78.11426
893.04        78.07098
893.44        78.28938
893.83        78.69114
894.23        79.07755
894.63        79.39085
895.03        79.66364
895.43        79.86047
895.83        79.92506
896.23         79.8597
896.63         79.6788
897.02        79.43926
897.42        79.28249
897.82         79.2337
898.22        79.28517
898.62        79.41914
899.01        79.60762
899.41        79.80511
899.81        80.01373
900.21        80.23911
900.61        80.49156
901.00        80.74451
901.40        80.99415
901.80        81.15249
902.20        81.10272
902.59        80.85368
902.99        80.44877
903.39        80.03658
903.79        79.84373
904.18        79.92297
904.58        80.21333
904.98         80.6078
905.38        80.95803
905.77        81.19705
906.17        81.35359
906.57          81.427
906.96        81.44276
907.36        81.38186
907.76        81.26522
908.15         81.0755
908.55        80.71667
908.95        80.23887
909.34        79.66922
909.74        79.21666
910.14        79.12988
910.53        79.45153
910.93        80.08604
911.33        80.79747
911.72        81.17326
912.12        81.09644
912.52        80.71931
912.91        80.23959
913.31        79.98926
913.70        80.03963
914.10        80.27401
914.49        80.64573
914.89        80.99096
915.29        81.25409
915.68        81.46986
916.08        81.61101
916.47        81.62923
916.87        81.54248
917.26        81.33609
917.66        81.07639
918.05        80.84059
918.45        80.65048
918.84        80.52568
919.24        80.42702
919.64        80.36883
920.03        80.36504
920.42        80.40971
920.82        80.49271
921.21        80.58309
921.61        80.65136
922.00        80.70721
922.40        80.76683
922.79        80.95046
923.19        81.23366
923.58        81.62873
923.98        81.97211
924.37        82.07795
924.77        81.90696
925.16        81.48703
925.55        81.05704
925.95        81.02214
926.34        81.46593
926.74        82.24875
927.13        83.04773
927.52        83.24757
927.92        82.76277
928.31        81.78946
928.70        80.74416
929.10        80.25087
929.49        80.46273
929.89        81.15603
930.28        82.09184
930.67        82.70282
931.07        82.79018
931.46        82.56589
931.85        82.17187
932.24        81.86792
932.64        81.74373
933.03          81.687
933.42        81.71113
933.82        81.85416
934.21        82.09897
934.60         82.4542
934.99        82.78672
935.39        82.82925
935.78        82.56564
936.17        82.04857
936.56        81.45605
936.96        81.10039
937.35        81.12447
937.74        81.40705
938.13        81.79832
938.53        82.07446
938.92        82.17437
939.31        82.15296
939.70        82.07957
940.09        82.07216
940.49         82.1316
940.88        82.22954
941.27        82.28749
941.66        82.20243
942.05        81.97212
942.44        81.68252
942.84         81.4016
943.23        81.17781
943.62        81.06935
944.01        81.03607
944.40        81.16274
944.79        81.58669
945.18        82.27241
945.57        83.12755
945.97        83.84784
946.36        84.06059
946.75        83.67184
947.14        82.79439
947.53        81.69926
947.92        80.88309
948.31        80.52977
948.70        80.53746
949.09        80.73728
949.48        80.83955
949.87        80.76049
950.26        80.59624
950.65        80.45665
951.04        80.50412
951.43        80.76466
951.82        81.14964
952.21        81.52132
952.60        81.66734
952.99        81.53311
953.38        81.20507
953.77        80.80393
954.16        80.50758
954.55        80.37109
954.94        80.33835
955.33        80.38871
955.72        80.48764
956.11        80.60523
956.50        80.75661
956.89         80.8822
957.28        80.86428
957.66        80.71256
958.05        80.44231
958.44         80.1396
958.83        79.94836
959.22        79.88893
959.61          79.863
960.00        79.88559
960.39        79.97587
960.78        80.10423
961.16        80.33696
961.55        80.36111
961.94        79.77183
962.33        78.56428
962.72        76.94405
963.11        75.46404
963.49        74.92366
963.88        75.47285
964.27        76.88493
964.66        78.67074
965.04        79.93698
965.43        80.26183
965.82        79.90388
966.21        79.22259
966.60        78.80243
966.98        78.81982
967.37        79.05336
967.76        79.29856
968.15        79.17441
968.53        78.62183
968.92        77.86129
969.31        77.15852
969.69        76.84489
970.08        76.99396
970.47        77.47027
970.86        78.23989
971.24        79.24913
971.63         80.3003
972.02        81.36729
972.40        82.22955
972.79        82.47114
973.17        82.14935
973.56        81.30847
973.95        80.28761
974.33         79.6853
974.72        79.66727
975.11        80.05395
975.49        80.59489
975.88         80.8595
976.26        80.72517
976.65         80.3515
977.04        79.75003
977.42        78.91788
977.81        77.87214
978.19        76.56531
978.58        75.49548
978.96        75.49634
979.35        76.67411
979.74        78.82572
980.12         81.1337
980.51        82.03542
980.89        81.28718
981.28         79.1837
981.66        76.63432
982.05        75.36083
982.43        75.89198
982.82        77.65878
983.20        79.88012
983.59        81.18299
983.97        81.28961
984.35        80.57202
984.74        79.44652
985.12        78.63193
985.51        78.38837
985.89        78.47308
986.28         78.7103
986.66         78.9562
987.04        79.09885
987.43        79.16699
987.81        79.19362
988.20        79.08926
988.58        78.90572
988.96        78.69431
989.35        78.28436
989.73        77.51194
990.12         76.3076
990.50        74.61122
990.88         73.0055
991.27        72.77849
991.65        74.23371
992.03        76.89702
992.42        79.37453
992.80        80.22042
993.18        79.12036
993.56         76.3218
993.95        72.76913
994.33        70.94982
994.71         71.9809
995.10          74.728
995.48        77.74004
995.86         79.5096
996.24        79.89706
996.63        79.30854
997.01        78.25679
997.39        77.66821
997.77        77.94118
998.15        78.72335
998.54        79.43452
998.92        79.31998
999.30        78.24889
999.68        76.53595
1000.06        74.76883
1000.45        73.95087
1000.83        74.45422
1001.21        75.82584
1001.59        77.50452
1001.97        78.69834
1002.35        79.18687
1002.73        79.25167
1003.12        78.86749
1003.50        77.94514
1003.88        76.71648
1004.26        75.24186
1004.64        74.11609
1005.02        74.09251
1005.40        75.19601
1005.78        77.25642
1006.16        79.53706
1006.54        80.64546
1006.92        80.15174
1007.30        78.40206
1007.69        76.23919
1008.07        75.01498
1008.45        75.20049
1008.83        76.37902
1009.21        77.81218
1009.59        78.42892
1009.97        77.91914
1010.35        76.48562
1010.73        74.66988
1011.11        73.80786
1011.49        74.50554
1011.86        76.40796
1012.24         78.3745
1012.62        79.12928
1013.00        78.45393
1013.38         76.7923
1013.76        74.89536
1014.14        73.99045
1014.52        74.46803
1014.90        75.99133
1015.28        77.98742
1015.66        79.32586
1016.04        79.51183
1016.41         78.9064
1016.79        77.81324
1017.17        77.04562
1017.55        76.81118
1017.93        76.95846
1018.31        77.09476
1018.69         76.5761
1019.06        75.33284
1019.44        73.56468
1019.82        72.02756
1020.20         72.2235
1020.58        74.39015
1020.95        77.59763
1021.33         80.7463
1021.71        82.50587
1022.09        82.59786
1022.46        81.41077
1022.84        79.06831
1023.22        75.61924
1023.60        71.21597
1023.97         65.5714
1024.35        59.68592
1024.73        55.65688
