SpectraSmart Spectrum 2.9.0.0
--------- Device Information -----------
Spectrum Name :  反射率_0
Saving Time :  2024/04/27 22:51:30
Spectro-Module Model Name : SE2030-DUVN
Spectro-Module Serial Number : OS361AC55029948
Wavelength Start : 200
Wavelength End : 1025
Wavelength Unit : Wavelength(nm)
Spectrum Unit : Reflectance(%)
-----------Spectrum Setting ------------
Integration Time : 20ms
Average : 10
Boxcar : 0
Background removal :  enabled
linearity correction :  enabled
SC :  disabled
Intensity correction :  disabled
DWT denoise :  enabled
savitzky-golay :  disabled
FFT :  disabled
Running average :  disabled
Kalman :  disabled
High pass :  disabled
---------------BEGIN--------------------
Wavelength(nm)             Reflectance(%)
200.29               0
200.75       -32.06245
201.21        43.04811
201.67        93.48618
202.13        103.1603
202.58        86.56222
203.04        56.59433
203.50        26.74236
203.96        16.68114
204.42        26.89219
204.88        46.11487
205.34        64.56897
205.80        74.66859
206.26        75.84576
206.72        69.35236
207.18        55.05659
207.64        43.43714
208.10        44.69722
208.55        52.90886
209.01        57.77717
209.47        54.93461
209.93         41.9472
210.39         6.15571
210.85       -102.4173
211.31       -231.4894
211.77       -71.46568
212.23        31.99315
212.69         68.0974
213.14        78.92593
213.60         78.2206
214.06        68.82796
214.52        49.41927
214.98        34.54259
215.44        40.07669
215.90        52.95358
216.36        62.86805
216.81        66.27794
217.27        64.80128
217.73        61.20939
218.19        56.33332
218.65        51.11023
219.11         46.2608
219.57        41.09433
220.02        36.99636
220.48         38.5358
220.94        45.60131
221.40        55.47046
221.86        64.38259
222.32        68.95759
222.77        69.47221
223.23        67.52201
223.69        64.48727
224.15        61.56426
224.61        59.06089
225.06        56.55378
225.52        54.61057
225.98        54.02267
226.44        54.68338
226.90        55.80061
227.36        56.97437
227.81        57.92641
228.27        58.66428
228.73        59.32923
229.19         59.2119
229.65        57.07134
230.10        52.84721
230.56        47.46639
231.02        42.61159
231.48        40.56947
231.93        41.44254
232.39        44.42015
232.85        48.02334
233.31        50.22277
233.77        50.66604
234.22        50.16262
234.68        49.30815
235.14        49.03679
235.60        49.58987
236.05        50.50564
236.51        51.90673
236.97        53.81753
237.43        55.93918
237.88        58.39006
238.34        60.13634
238.80        60.35347
239.26        58.74408
239.71        54.55109
240.17         47.6651
240.63        43.27071
241.08        46.49916
241.54        53.88889
242.00        60.33606
242.46        63.65739
242.91        64.56058
243.37        63.22604
243.83         58.6707
244.28        52.25415
244.74        51.32772
245.20        56.26146
245.66        59.93652
246.11        58.56062
246.57        51.89121
247.03        38.93462
247.48        20.09389
247.94        10.13037
248.40        22.09353
248.85         46.1497
249.31        68.08012
249.77        77.14714
250.22        75.81496
250.68        70.03119
251.14        63.95647
251.59        60.71996
252.05        60.48478
252.51        61.74348
252.96        64.06919
253.42        66.62887
253.88        67.52309
254.33        67.63896
254.79        66.67168
255.25        63.56004
255.70        59.02969
256.16        54.41836
256.62        51.49472
257.07        52.21931
257.53        55.76584
257.99        59.98749
258.44        63.13573
258.90        64.14543
259.35        63.08194
259.81        61.25242
260.27        59.16922
260.72        57.44733
261.18        56.51872
261.63        55.80662
262.09         55.4012
262.55         55.0509
263.00        54.60148
263.46        54.24597
263.91        53.80495
264.37        53.36744
264.83        52.86533
265.28          52.277
265.74        51.67252
266.19        50.92699
266.65        50.12413
267.11        49.25264
267.56        48.37954
268.02        47.71716
268.47        47.24867
268.93        46.92018
269.38        46.62906
269.84        46.24259
270.30        45.70633
270.75        45.06114
271.21        44.29454
271.66        43.34301
272.12        42.25315
272.57         41.0149
273.03        39.81847
273.48        38.86995
273.94        38.26043
274.39        37.88601
274.85        37.61359
275.31        37.15332
275.76        36.44034
276.22        35.60684
276.67         34.7599
277.13        34.16031
277.58        33.78807
278.04        33.59221
278.49        33.39126
278.95        33.05017
279.40        32.48703
279.86        31.83353
280.31        31.14222
280.77        30.61102
281.22        30.23514
281.68        30.00287
282.13        29.81981
282.59        29.61358
283.04         29.3433
283.50          29.055
283.95        28.78135
284.41        28.61343
284.86        28.54246
285.32        28.55028
285.77        28.55437
286.22        28.48167
286.68         28.3331
287.13        28.10249
287.59        27.86951
288.04        27.67537
288.50        27.56536
288.95        27.49394
289.41        27.44819
289.86        27.35796
290.32        27.23652
290.77        27.10425
291.22        27.00561
291.68        26.99578
292.13        27.08005
292.59        27.25527
293.04        27.50363
293.50        27.82544
293.95        28.19979
294.40        28.63221
294.86        29.10655
295.31        29.58865
295.77        30.07869
296.22        30.56869
296.68        31.07851
297.13        31.61692
297.58        32.18869
298.04        32.78308
298.49        33.38153
298.95        33.97963
299.40        34.56753
299.85        35.14434
300.31        35.73247
300.76        36.32282
301.21        36.91684
301.67        37.51904
302.12        38.06481
302.58        38.51073
303.03        38.83408
303.48        39.06141
303.94        39.29579
304.39        39.63865
304.84        40.11913
305.30        40.70324
305.75        41.24832
306.20        41.58555
306.66        41.69842
307.11        41.61534
307.57        41.48608
308.02        41.47084
308.47        41.62245
308.93        41.88177
309.38        42.12247
309.83        42.18718
310.29        42.05718
310.74        41.78631
311.19        41.47131
311.65        41.25571
312.10        41.16389
312.55        41.15248
313.00        41.19065
313.46        41.23491
313.91        41.25298
314.36        41.26072
314.82        41.21968
315.27        41.06264
315.72        40.78659
316.18        40.42025
316.63        40.02361
317.08        39.71821
317.53        39.53737
317.99        39.45144
318.44        39.41881
318.89        39.35069
319.35        39.21877
319.80        39.04548
320.25        38.86374
320.70        38.73083
321.16        38.65073
321.61        38.61025
322.06        38.55478
322.51         38.4051
322.97        38.14325
323.42        37.81181
323.87        37.47327
324.32        37.23955
324.78        37.13434
325.23        37.12928
325.68         37.1643
326.13        37.14615
326.59        37.02935
327.04        36.86546
327.49        36.65617
327.94        36.41785
328.39        36.16412
328.85        35.87844
329.30        35.60872
329.75        35.41494
330.20        35.31548
330.66        35.29109
331.11         35.3096
331.56        35.25491
332.01        35.10019
332.46        34.87062
332.92         34.6203
333.37        34.48825
333.82        34.49343
334.27        34.58911
334.72        34.70969
335.17        34.74933
335.63        34.66694
336.08        34.52161
336.53        34.32552
336.98        34.11253
337.43        33.91296
337.88        33.72498
338.34        33.59132
338.79        33.59092
339.24        33.72771
339.69        33.96847
340.14        34.24693
340.59        34.45231
341.05        34.54369
341.50        34.55195
341.95        34.47427
342.40        34.32234
342.85         34.1191
343.30         33.8676
343.75        33.63139
344.20         33.5137
344.66        33.53854
345.11        33.67614
345.56        33.85849
346.01        33.96546
346.46        33.96207
346.91        33.87957
347.36        33.76223
347.81        33.67919
348.26        33.65352
348.72        33.66666
349.17        33.69148
349.62        33.69099
350.07        33.65137
350.52         33.5746
350.97        33.50426
351.42        33.50542
351.87         33.5836
352.32        33.72157
352.77        33.82025
353.22        33.73108
353.67        33.43727
354.13        32.99988
354.58        32.54467
355.03        32.32682
355.48         32.3959
355.93        32.67144
356.38        32.98266
356.83        33.05989
357.28        32.84446
357.73        32.43191
358.18        31.95702
358.63        31.62958
359.08        31.50332
359.53        31.49785
359.98        31.54595
360.43        31.54743
360.88        31.46426
361.33        31.33337
361.78        31.14037
362.23        30.88962
362.68        30.59902
363.13        30.20839
363.58        29.76113
364.03        29.65615
364.48         29.3884
364.93        29.35033
365.38         29.3285
365.83        29.23966
366.28        29.05344
366.73        28.80403
367.18        28.52373
367.63        28.25234
368.08        28.00903
368.53        27.77906
368.98        27.56584
369.43        27.37632
369.88        27.21016
370.33        27.07213
370.78        26.94518
371.23         26.7983
371.68        26.62169
372.13        26.41493
372.58        26.20342
373.03        26.03112
373.48        25.90814
373.93        25.82874
374.38        25.74754
374.83        25.59102
375.28        25.35118
375.72        25.04424
376.17        24.76686
376.62        24.62774
377.07        24.64041
377.52         24.7508
377.97        24.87547
378.42        24.88533
378.87        24.74868
379.32        24.51735
379.77        24.22631
380.22          23.927
380.67        23.64471
381.11        23.36197
381.56         23.1187
382.01        22.98254
382.46        22.96042
382.91        23.03722
383.36        23.12665
383.81        23.08851
384.26         22.8955
384.71        22.58782
385.15        22.24901
385.60        22.04708
386.05         22.0082
386.50        22.08474
386.95        22.20027
387.40        22.23582
387.85        22.16478
388.29        22.01754
388.74        21.87354
389.19        21.79267
389.64        21.78292
390.09        21.80327
390.54        21.82446
390.98        21.80009
391.43        21.73117
391.88        21.64553
392.33        21.52751
392.78        21.38801
393.23        21.24564
393.67        21.00146
394.12        20.74643
394.57        20.85528
395.02        20.96443
395.47          21.011
395.91        20.87677
396.36        20.78568
396.81        20.74439
397.26        20.61992
397.71        20.45409
398.15         20.3851
398.60        20.44236
399.05        20.49369
399.50        20.53371
399.95        20.69013
400.39        20.88477
400.84        20.82169
401.29         20.5228
401.74         20.2336
402.18        20.03693
402.63        19.95948
403.08        19.98403
403.53        19.96906
403.97        19.90668
404.42        19.91738
404.87         19.9838
405.32        20.03411
405.76        20.05324
406.21        20.00406
406.66         19.9208
407.11        19.95635
407.55        20.06633
408.00         20.0292
408.45        19.83713
408.90        19.55071
409.34        19.27369
409.79         19.2586
410.24        19.46144
410.68        19.55604
411.13        19.51673
411.58        19.55093
412.03        19.65598
412.47        19.72112
412.92         19.7262
413.37        19.70374
413.81        19.66504
414.26        19.64393
414.71        19.64324
415.15        19.65757
415.60        19.66657
416.05        19.64702
416.49        19.59714
416.94        19.52342
417.39        19.45148
417.83        19.42146
418.28        19.43339
418.73        19.46414
419.17        19.49423
419.62        19.49514
420.07        19.46699
420.51        19.43427
420.96        19.38461
421.41        19.31999
421.85        19.24396
422.30        19.06999
422.74        18.89241
423.19        19.09147
423.64         19.5871
424.08        19.85036
424.53        19.77586
424.98        19.75851
425.42         19.8081
425.87        19.55089
426.31        19.11883
426.76        19.12965
427.21        19.49572
427.65        19.50248
428.10        19.18617
428.54        19.08905
428.99        19.21872
429.44        19.46973
429.88        19.68404
430.33        19.37529
430.77        18.75523
431.22        18.66245
431.66        19.09998
432.11        19.48562
432.56        19.71605
433.00        19.94938
433.45        19.97114
433.89        19.60261
434.34        19.21371
434.78        18.19352
435.23        18.87493
435.67        19.43219
436.12         19.6248
436.57        19.66386
437.01        19.42792
437.46        19.32941
437.90        19.47593
438.35        19.74491
438.79        19.48567
439.24        19.44217
439.68        19.44687
440.13        19.45064
440.57        19.43362
441.02        19.54553
441.46        19.73105
441.91        19.53987
442.35        19.13625
442.80         19.3704
443.24        20.07053
443.69         20.1052
444.13        19.50625
444.58        19.25096
445.02        19.35037
445.47         19.2925
445.91         19.0888
446.36        19.02276
446.80        19.09828
447.24        19.22382
447.69        19.36396
448.13        19.51179
448.58        19.62204
449.02        19.60422
449.47        19.49726
449.91        19.45054
450.36        19.48553
450.80        19.51936
451.25        19.53839
451.69        19.55322
452.13        19.55185
452.58        19.51522
453.02         19.4553
453.47        19.39941
453.91        19.35262
454.36        19.34215
454.80        19.32364
455.24        19.20484
455.69        19.02851
456.13        18.84269
456.58        18.72456
457.02        18.85776
457.46        19.13924
457.91        19.20526
458.35        19.11385
458.79        19.08279
459.24        19.13414
459.68        19.10192
460.13        19.01746
460.57         18.9015
461.01        18.85089
461.46        18.87284
461.90        18.85388
462.34         18.8223
462.79        19.06105
463.23        19.06529
463.68        18.95384
464.12        18.86875
464.56        18.84278
465.01        18.90981
465.45        18.98049
465.89        18.91451
466.34        18.77038
466.78        18.65272
467.22        18.56064
467.67        18.88208
468.11         18.7723
468.55        18.70816
468.99        18.49938
469.44        18.42776
469.88        18.50521
470.32         18.5758
470.77        18.62472
471.21        18.68573
471.65        18.75149
472.10         18.8158
472.54        18.85583
472.98        18.86545
473.42        18.85198
473.87        18.76738
474.31        18.65755
474.75        18.76818
475.20        19.03922
475.64        19.09456
476.08        18.93704
476.52        18.93445
476.97         19.1075
477.41        19.07783
477.85         19.0108
478.29        19.13655
478.74        18.97193
479.18        18.75014
479.62        18.98129
480.06        19.02139
480.50        19.07708
480.95         19.1258
481.39        19.12514
481.83        19.42423
482.27        19.43147
482.72        19.31511
483.16         19.5182
483.60         19.5396
484.04        19.55232
484.48        19.58965
484.93        19.80028
485.37        19.78253
485.81        20.34323
486.25        20.55978
486.69        20.07094
487.14        19.52385
487.58        20.90106
488.02        20.41714
488.46        20.41822
488.90        20.80612
489.34        20.09134
489.79        19.86298
490.23         20.3417
490.67        20.76458
491.11        21.18192
491.55        21.16669
491.99        20.83566
492.43        20.80725
492.88        21.11747
493.32        21.35238
493.76        21.45899
494.20        21.61373
494.64        21.82345
495.08        21.96808
495.52        22.06203
495.96        22.32538
496.41        22.72331
496.85        22.67927
497.29        22.32984
497.73        22.46784
498.17        23.00353
498.61        23.23941
499.05        23.10518
499.49        23.00267
499.93        23.01337
500.37        23.08772
500.82        23.20227
501.26        23.35653
501.70        23.55218
502.14        23.31175
502.58        23.50107
503.02        23.55111
503.46        23.61918
503.90        23.72052
504.34        23.81357
504.78        23.90718
505.22        23.98115
505.66        23.99389
506.10        23.98057
506.54        24.06168
506.98        24.25369
507.42        24.40281
507.86        24.64928
508.30        24.76092
508.74        24.77654
509.18        24.71347
509.62        24.62839
510.06         24.6093
510.50         24.6776
510.94        24.80966
511.38        24.95622
511.82        25.03889
512.26        25.03814
512.70        24.98051
513.14        24.91178
513.58        24.89381
514.02        24.94275
514.46        25.05482
514.90        25.19323
515.34        25.21116
515.78        25.23804
516.22        25.17731
516.66        25.11274
517.10        25.10316
517.54        25.16284
517.98         25.2682
518.42        25.37598
518.86        25.42242
519.30        25.39121
519.74        25.30377
520.18        25.19819
520.62        25.13199
521.06        25.12159
521.50        25.15198
521.93        25.19565
522.37        25.19958
522.81        25.15439
523.25        25.07327
523.69        24.98837
524.13        24.94908
524.57        24.96229
525.01        25.00825
525.45         25.0444
525.89        25.00514
526.32        24.87559
526.76        24.68956
527.20        24.48899
527.64        24.34337
528.08        24.27223
528.52        24.25237
528.96        24.26245
529.40        24.26803
529.83        24.25427
530.27        24.23562
530.71         24.2044
531.15        24.14877
531.59         24.0708
532.03        23.97209
532.46        23.87362
532.90        23.82474
533.34        23.83025
533.78        23.87741
534.22         23.9382
534.66        23.96828
535.09        23.95496
535.53         23.9168
535.97        23.86994
536.41         23.8445
536.85        23.84917
537.28        23.87459
537.72        23.91109
538.16        23.94002
538.60        23.95821
539.04        23.97972
539.47        24.00309
539.91        24.03952
540.35        24.08516
540.79        24.13925
541.22        24.20159
541.66        24.27458
542.10        24.35546
542.54        24.44432
542.97        24.52941
543.41        24.60628
543.85        24.67198
544.29        24.73353
544.72        24.79854
545.16        24.89644
545.60        25.02519
546.04        25.17478
546.47        25.34015
546.91        25.50844
547.35         25.6692
547.79        25.83479
548.22        25.98574
548.66        26.08601
549.10        26.15075
549.53        26.28043
549.97        26.47263
550.41        26.63294
550.84        26.75647
551.28        26.90639
551.72        27.07142
552.15        27.19978
552.59        27.29574
553.03        27.36681
553.46        27.43651
553.90        27.56229
554.34        27.74604
554.77        27.97692
555.21        28.21139
555.65        28.38055
556.08        28.43969
556.52         28.4757
556.96        28.50404
557.39        28.59011
557.83        28.72385
558.27        28.76961
558.70        28.74317
559.14        28.77719
559.57        28.87076
560.01        28.98913
560.45         29.1012
560.88        29.14268
561.32        29.16605
561.75        29.25184
562.19        29.40125
562.63        29.59921
563.06        29.77054
563.50        29.69878
563.93        29.45293
564.37        29.40275
564.80        29.56501
565.24        29.75936
565.68        29.94675
566.11        30.13008
566.55        30.29983
566.98        30.47852
567.42        30.65224
567.85        30.71563
568.29        30.72788
568.72        30.77484
569.16        30.87384
569.60        31.09426
570.03        31.46601
570.47        31.53846
570.90        31.62394
571.34        32.42748
571.77        32.22309
572.21        32.13965
572.64        32.38675
573.08        32.21695
573.51        32.56485
573.95         32.7037
574.38        32.79486
574.82        32.92235
575.25        32.89604
575.69        32.89748
576.12        33.13613
576.56        33.33244
576.99        33.55085
577.42        33.32044
577.86         33.5414
578.29        33.41199
578.73        33.03715
579.16        32.94257
579.60        33.00167
580.03        32.95778
580.47        32.76107
580.90        32.93492
581.33        32.88011
581.77        33.09102
582.20        32.57693
582.64        32.30069
583.07        32.32226
583.51          32.168
583.94        32.02812
584.37         31.9631
584.81        31.94732
585.24        31.77381
585.68        31.57405
586.11        31.16218
586.54        31.21305
586.98        31.30288
587.41        31.39681
587.85        31.22717
588.28        31.08496
588.71        30.98499
589.15        31.07432
589.58        31.11114
590.01        31.13637
590.45        31.15159
590.88        30.69503
591.31        30.63021
591.75        30.80667
592.18        30.89393
592.61        30.92228
593.05        31.07597
593.48        31.39202
593.91        31.05419
594.35        31.23894
594.78          31.337
595.21        31.59358
595.65        31.64314
596.08        31.48619
596.51        31.85497
596.94        31.85279
597.38        32.17964
597.81        32.63549
598.24        32.43739
598.68        32.85711
599.11        33.42244
599.54        33.62841
599.97         33.5975
600.41        34.33868
600.84        34.65422
601.27        34.88023
601.70         35.2635
602.14        35.46644
602.57        36.01534
603.00        36.39127
603.43        36.82405
603.87        37.39248
604.30        37.60767
604.73        38.01414
605.16        38.65038
605.60        39.03509
606.03        39.54474
606.46        39.90718
606.89        40.54993
607.32        40.68055
607.76        41.39669
608.19        41.48125
608.62        41.75866
609.05        42.02553
609.48        42.39315
609.92        42.76218
610.35        43.36021
610.78         43.4398
611.21        43.33099
611.64        43.97868
612.07        44.31726
612.50        44.63241
612.94        44.98639
613.37        45.42952
613.80        45.47055
614.23        45.92228
614.66        46.21072
615.09        46.52687
615.52        46.83817
615.96        47.18602
616.39        47.12073
616.82        47.46656
617.25        47.91044
617.68        47.99714
618.11        48.23698
618.54        48.34194
618.97        48.66927
619.40        49.10249
619.84        49.48575
620.27        49.63778
620.70        49.71066
621.13        49.62011
621.56        50.07867
621.99         49.8861
622.42        49.88466
622.85         49.7913
623.28        50.10806
623.71        50.13663
624.14        49.88017
624.57        50.06072
625.00        50.42978
625.43        50.07892
625.86          50.118
626.29        50.20515
626.72        50.05129
627.15        49.88046
627.58        49.68705
628.01        49.63688
628.44        49.09982
628.87        48.78659
629.30        48.89393
629.73        48.37127
630.16        47.68412
630.59        47.74529
631.02        47.57634
631.45        47.46307
631.88        47.26049
632.31        46.96826
632.74        46.38498
633.17        45.99654
633.60        45.48162
634.03        44.99613
634.46        44.52236
634.89        44.06085
635.32        43.59361
635.75        43.11787
636.18        42.67768
636.61         42.2692
637.04        41.82804
637.47        41.37254
637.89        41.02379
638.32        40.76079
638.75         40.4578
639.18        40.10224
639.61        39.88054
640.04        39.55737
640.47        39.25208
640.90        38.89996
641.33        38.51006
641.76        38.11662
642.18        37.87448
642.61        37.65437
643.04        37.55518
643.47        37.50799
643.90        37.47009
644.33        37.42583
644.76          37.393
645.18        37.38105
645.61        37.39687
646.04        37.44687
646.47        37.52401
646.90        37.64376
647.33        37.82663
647.75        38.08069
648.18        38.42033
648.61        38.80495
649.04        39.16527
649.47        39.49316
649.89        39.77946
650.32        40.09072
650.75        40.59416
651.18        41.23944
651.61        41.84343
652.03        42.30304
652.46         42.5077
652.89        42.65056
653.32        42.99789
653.74        43.72523
654.17        44.78199
654.60         44.7543
655.03        45.11721
655.46        45.86224
655.88         47.0718
656.31        47.97219
656.74        49.48883
657.16        49.19211
657.59        49.32494
658.02         49.0885
658.45        49.82304
658.87        50.19822
659.30        50.70653
659.73        51.05341
660.15         50.7449
660.58        51.38232
661.01        51.89913
661.44        52.63835
661.86        52.92807
662.29        52.82453
662.72        52.86985
663.14        53.15092
663.57         53.5262
664.00        53.94371
664.42        54.27225
664.85        54.50314
665.27        54.76974
665.70        55.06025
666.13         55.2747
666.55        55.41511
666.98         55.5159
667.41        55.62749
667.83        55.81944
668.26        56.10011
668.69        56.45771
669.11         56.8294
669.54        57.11926
669.96        57.30932
670.39        57.37544
670.82        57.39423
671.24        57.57814
671.67        57.90227
672.09        58.12143
672.52        58.22367
672.94        58.29077
673.37        58.36246
673.80        58.48598
674.22        58.67245
674.65        58.81583
675.07        58.92875
675.50        59.07343
675.92         59.2498
676.35        59.40469
676.77        59.53907
677.20        59.66982
677.62        59.80981
678.05        59.95971
678.47        60.12258
678.90        60.30721
679.32        60.50169
679.75        60.69989
680.17        60.89137
680.60        61.07822
681.02        61.25447
681.45        61.38062
681.87        61.46265
682.30        61.53598
682.72        61.61172
683.15        61.65505
683.57        61.72708
684.00        61.89815
684.42        62.11272
684.85        62.50838
685.27        62.54613
685.70        62.68208
686.12        62.73349
686.54        63.00554
686.97        62.86039
687.39        62.95424
687.82        63.10804
688.24        63.10844
688.66        63.25608
689.09         63.3618
689.51        63.51487
689.94        63.62503
690.36        63.69663
690.78        63.72863
691.21        63.75624
691.63        63.86703
692.06        64.05735
692.48        64.23037
692.90        64.36176
693.33        64.47096
693.75        64.55217
694.17        64.58319
694.60         64.5858
695.02        64.63594
695.44        64.73738
695.87        64.89236
696.29        65.07946
696.71        65.21182
697.14        65.28812
697.56         65.4548
697.98        65.67043
698.41        65.82391
698.83        65.89388
699.25        65.95537
699.68        66.01874
700.10        66.12924
700.52        66.28412
700.94        66.47335
701.37        66.64436
701.79        66.74621
702.21        66.74848
702.64        66.68683
703.06        66.60151
703.48        66.57459
703.90        66.63631
704.33        66.76206
704.75        66.92908
705.17        67.07713
705.59        67.18074
706.01        67.22456
706.44        67.24692
706.86        67.39994
707.28        67.49518
707.70        67.75607
708.12        68.04008
708.55        67.97684
708.97        67.65074
709.39        67.63696
709.81        67.93893
710.23        68.07571
710.66        68.02699
711.08        68.10502
711.50        68.28235
711.92        68.39025
712.34        68.41945
712.76        68.41824
713.19        68.39857
713.61        68.42685
714.03        68.49995
714.45        68.59965
714.87        68.71724
715.29        68.84357
715.71        68.97322
716.13        69.10966
716.56        69.23109
716.98        69.37421
717.40        69.51379
717.82        69.64175
718.24        69.75723
718.66        69.87286
719.08        69.99995
719.50        70.08733
719.92        70.11469
720.34        70.19586
720.76        70.36402
721.19        70.02612
721.61        70.23345
722.03        70.15334
722.45        70.10011
722.87        70.04566
723.29        70.03215
723.71        70.10223
724.13        70.25169
724.55        70.48529
724.97        70.73435
725.39        70.85765
725.81        70.82611
726.23        70.72576
726.65        70.66972
727.07        70.56014
727.49        70.87837
727.91        71.20436
728.33        71.56018
728.75        71.74529
729.17        71.71346
729.59        71.52916
730.01        71.27113
730.43        71.08056
730.85         71.0035
731.27        70.98982
731.69        71.03896
732.10        71.16334
732.52        71.35141
732.94        71.60172
733.36        71.82928
733.78         71.9641
734.20        72.00397
734.62        71.70869
735.04        71.47695
735.46         71.6184
735.88        72.12712
736.30        72.22624
736.72         71.9405
737.13         72.0444
737.55         72.4529
737.97         72.5176
738.39        72.25509
738.81        72.05823
739.23        72.01804
739.65        72.20597
740.06        72.49461
740.48        72.61646
740.90        72.51219
741.32        72.42699
741.74        72.33002
742.16        72.36637
742.57        72.53539
742.99        72.80769
743.41        73.08694
743.83        73.20547
744.25        73.13208
744.67        72.91037
745.08        72.67694
745.50        72.61463
745.92         72.7858
746.34        73.13106
746.75        73.50934
747.17        73.69377
747.59        73.62754
748.01        73.36366
748.42        73.05257
748.84        72.92525
749.26        73.01469
749.68        73.29093
750.09        73.61146
750.51        73.56458
750.93        73.24188
751.35        73.29861
751.76        73.69673
752.18        73.81107
752.60        73.61236
753.01        73.51544
753.43        73.56615
753.85        73.55434
754.27        73.45729
754.68         73.9151
755.10        73.88481
755.52        74.05318
755.93        74.19704
756.35        74.39942
756.77         74.5862
757.18        74.70248
757.60        74.81597
758.02        74.57304
758.43        73.98486
758.85        74.72468
759.26        74.75833
759.68        74.12875
760.10        74.62518
760.51        73.75719
760.93         74.5592
761.34         74.5412
761.76        75.06737
762.18          74.961
762.59        74.57347
763.01        74.59808
763.42        75.05689
763.84        75.19303
764.26        75.01798
764.67        74.98815
765.09        75.14009
765.50        75.27077
765.92        75.34623
766.33         75.2196
766.75        74.90797
767.16        74.77549
767.58        74.83832
768.00        75.06291
768.41        75.35818
768.83        75.41969
769.24        75.25253
769.66        75.10574
770.07        75.02451
770.49        75.06386
770.90        75.21551
771.32        75.31493
771.73        75.35346
772.15        75.42879
772.56        75.54511
772.97         75.6273
773.39        75.64743
773.80        75.65427
774.22        75.64718
774.63        75.74328
775.05         75.8903
775.46        75.99021
775.88        76.00037
776.29        76.03094
776.70        76.08692
777.12        76.15306
777.53        76.24834
777.95        76.34422
778.36        76.45403
778.77        76.55669
779.19        76.64277
779.60        76.79253
780.02         76.9416
780.43        76.87676
780.84        76.65609
781.26        76.58133
781.67        76.73208
782.09        76.92985
782.50        77.02587
782.91         77.3735
783.33        76.89402
783.74         76.9044
784.15        77.08292
784.57        77.14341
784.98        77.09846
785.39        77.23042
785.81        77.49087
786.22        77.55418
786.63        77.43054
787.04        77.42622
787.46        77.56147
787.87        77.62321
788.28        77.61684
788.70        77.73817
789.11        77.72834
789.52        77.83694
789.93        77.96666
790.35        77.90498
790.76        77.73239
791.17        77.80156
791.58        78.07784
792.00         78.1463
792.41        78.00299
792.82        77.94729
793.23         78.0112
793.65        77.90715
794.06        77.74872
794.47        78.06795
794.88        78.72628
795.29        78.83412
795.71        78.82946
796.12        78.66563
796.53        78.54388
796.94        78.39373
797.35        78.27238
797.76        78.28043
798.18        78.39209
798.59        78.47064
799.00        78.50979
799.41        78.46873
799.82        78.55681
800.23        78.54217
800.64        78.49072
801.06        78.38156
801.47        78.30756
801.88         78.3371
802.29         78.4849
802.70        78.72907
803.11        78.99306
803.52        79.14752
803.93        79.15898
804.34        79.05889
804.75        78.92581
805.17        78.88998
805.58        79.01808
805.99        79.22169
806.40         79.4319
806.81        79.58215
807.22        79.60614
807.63         79.4362
808.04        79.15791
808.45        79.01703
808.86        79.06087
809.27        79.17232
809.68        79.30564
810.09        79.41805
810.50        79.48515
810.91        79.53014
811.32        79.55273
811.73        79.56562
812.14        79.57829
812.55        79.52902
812.96        79.46484
813.37        79.58973
813.78         79.8603
814.19          79.987
814.60         79.9466
815.01        79.93803
815.42        79.96323
815.83        79.88114
816.24        79.74274
816.65        79.72874
817.05        79.87067
817.46        80.07131
817.87         80.2734
818.28        80.33582
818.69        80.23064
819.10        80.00787
819.51        79.74171
819.92        79.57983
820.33        79.58098
820.74        79.65868
821.14        79.77639
821.55        80.03001
821.96        80.32687
822.37         80.4078
822.78        80.31576
823.19        80.37866
823.60        80.62453
824.00        80.88358
824.41         81.0319
824.82        81.05884
825.23         80.9484
825.64        80.71809
826.04        80.48715
826.45        80.40466
826.86        80.52252
827.27        80.79863
827.68        81.12504
828.08         81.3485
828.49        81.34634
828.90        81.20293
829.31        81.00463
829.72        80.89909
830.12        80.95496
830.53        81.07841
830.94        81.21569
831.35        81.24222
831.75        81.15019
832.16        80.93035
832.57        80.68845
832.97         80.5619
833.38        80.57964
833.79        80.70519
834.20        80.86399
834.60        80.93835
835.01        80.91953
835.42         80.8448
835.82        80.78931
836.23        80.79273
836.64        80.90301
837.04         81.1058
837.45        81.33321
837.86         81.5834
838.26        81.84851
838.67        82.11368
839.08        82.33936
839.48        82.44513
839.89        82.41393
840.29        82.25671
840.70        82.06864
841.11         82.0099
841.51        82.13403
841.92        82.37078
842.33        82.60516
842.73        82.63348
843.14        82.36372
843.54        81.89813
843.95        81.40629
844.35        81.18473
844.76        81.28844
845.17        81.62719
845.57        82.03953
845.98        82.21275
846.38        82.09104
846.79         81.7473
847.19        81.32583
847.60        81.00315
848.00        80.87628
848.41        80.85316
848.81        80.93743
849.22        81.05579
849.62        81.21436
850.03        81.41077
850.43        81.63305
850.84        81.76678
851.24         81.8451
851.65          81.812
852.05        81.79364
852.46        81.88827
852.86        82.11053
853.27        82.43339
853.67        82.67196
854.07        82.77684
854.48        82.68503
854.88        82.46322
855.29         82.0876
855.69        81.76027
856.10        81.44801
856.50        81.21235
856.90        80.98332
857.31        80.67677
857.71        80.33382
858.12         79.9445
858.52        79.63145
858.92        79.45016
859.33        79.39799
859.73        79.48721
860.13        79.63406
860.54        79.71976
860.94        79.74126
861.34        79.68658
861.75        79.56174
862.15        79.44601
862.55        79.33528
862.96        79.22694
863.36        79.10954
863.76        78.94926
864.17        78.74493
864.57        78.53454
864.97        78.38439
865.38        78.37352
865.78         78.5574
866.18        78.87367
866.58        79.20892
866.99        79.37541
867.39        79.34645
867.79        79.14237
868.19        78.84579
868.60        78.54112
869.00        78.25717
869.40        78.00796
869.80        77.81167
870.21         77.7145
870.61        77.80173
871.01         77.9894
871.41        78.24388
871.81        78.51342
872.22        78.74647
872.62        78.98618
873.02        79.18011
873.42        79.23013
873.82        79.12345
874.22        78.89793
874.63        78.68981
875.03        78.66031
875.43        78.85172
875.83        79.21107
876.23         79.6288
876.63        79.91805
877.03        80.00688
877.44        79.91596
877.84         79.7221
878.24        79.52425
878.64        79.35819
879.04        79.20694
879.44        79.01849
879.84        78.70728
880.24        78.27579
880.64        77.77951
881.04        77.33522
881.44        77.13461
881.84        77.22733
882.24        77.54031
882.65        77.94696
883.05        78.33572
883.45         78.5964
883.85        78.76811
884.25         78.8381
884.65        78.79851
885.05        78.66923
885.45        78.44052
885.85        78.20976
886.25         78.1573
886.65        78.31661
887.05         78.6373
887.45        78.97311
887.85        79.08913
888.25        78.93289
888.65         78.5771
889.04         78.1348
889.44         77.8383
889.84        77.73997
890.24        77.77023
890.64         77.8607
891.04        77.90533
891.44        77.87041
891.84         77.8048
892.24        77.71835
892.64        77.61642
893.04        77.51499
893.44        77.41078
893.83        77.36674
894.23        77.42223
894.63        77.60429
895.03        77.88309
895.43        78.20158
895.83        78.45751
896.23        78.62368
896.63        78.73926
897.02        78.80686
897.42        78.88349
897.82        78.97337
898.22         79.0559
898.62        79.18526
899.01        79.46581
899.41        79.87368
899.81        80.38287
900.21        80.85062
900.61        81.04452
901.00        80.90283
901.40        80.50816
901.80        80.01225
902.20        79.66901
902.59        79.56805
902.99        79.64461
903.39        79.80709
903.79        79.88219
904.18        79.82332
904.58         79.7023
904.98         79.6143
905.38        79.70927
905.77        79.98562
906.17        80.36376
906.57        80.71495
906.96        80.85514
907.36        80.70181
907.76        80.36104
908.15        79.89191
908.55         79.3151
908.95        78.73367
909.34        78.14022
909.74        77.74351
910.14        77.79684
910.53        78.32684
910.93        79.22877
911.33        80.21922
911.72        80.80141
912.12        80.81765
912.52        80.42027
912.91        79.82867
913.31         79.4098
913.70        79.25267
914.10         79.2529
914.49        79.35435
914.89        79.38405
915.29        79.31743
915.68        79.21931
916.08        79.16023
916.47        79.23067
916.87        79.44882
917.26        79.72676
917.66         79.9893
918.05        80.09219
918.45        79.99947
918.84        79.80733
919.24        79.52576
919.64        79.25972
920.03        79.08211
920.42        78.96343
920.82        78.98669
921.21        79.26821
921.61        79.78757
922.00        80.51093
922.40        81.27058
922.79        81.85499
923.19        82.12981
923.58        82.17397
923.98        81.99448
924.37        81.67609
924.77        81.26088
925.16        80.73396
925.55        80.21946
925.95         79.9203
926.34        79.90543
926.74        80.14377
927.13        80.52708
927.52        80.75893
927.92        80.78298
928.31        80.62883
928.70        80.47557
929.10        80.59691
929.49        81.03719
929.89        81.67606
930.28        82.30347
930.67        82.42835
931.07        81.93286
931.46        81.01302
931.85        79.99923
932.24        79.43575
932.64        79.45255
933.03        79.88747
933.42        80.49001
933.82        80.84497
934.21        80.83337
934.60         80.5885
934.99        80.26031
935.39        80.06326
935.78          80.119
936.17        80.34932
936.56        80.67525
936.96        80.96443
937.35        81.21288
937.74         81.4101
938.13        81.62654
938.53        81.97644
938.92        82.45577
939.31        82.98526
939.70         83.4032
940.09        83.43671
940.49        83.00748
940.88        82.28098
941.27        81.40656
941.66        80.60329
942.05         79.9761
942.44        79.51345
942.84        79.28168
943.23        79.31792
943.62        79.63394
944.01        80.20015
944.40        80.91811
944.79         81.5904
945.18        82.10062
945.57        82.43186
945.97        82.52186
946.36         82.3892
946.75        82.02847
947.14        81.44252
947.53        80.73888
947.92        80.11729
948.31        79.67374
948.70        79.42453
949.09        79.29789
949.48         79.1467
949.87        78.93517
950.26        78.69194
950.65        78.53991
951.04        78.67036
951.43        79.10229
951.82        79.76621
952.21         80.4101
952.60        80.61562
952.99        80.28791
953.38        79.55499
953.77        78.74986
954.16         78.3839
954.55        78.56982
954.94        79.16019
955.33        79.86692
955.72        80.20808
956.11        80.04008
956.50        79.49584
956.89        78.81644
957.28        78.41779
957.66        78.46344
958.05        78.81313
958.44        79.24906
958.83        79.42331
959.22        79.24117
959.61        78.78918
960.00        78.32119
960.39        78.22253
960.78        78.57072
961.16        79.29685
961.55        79.97933
961.94        80.02277
962.33        79.30891
962.72        78.07404
963.11        76.84155
963.49        76.37547
963.88        76.83492
964.27        77.99339
964.66        79.41431
965.04        80.32098
965.43        80.36525
965.82        79.83264
966.21        79.08199
966.60        78.66904
966.98        78.76049
967.37        79.13008
967.76        79.60992
968.15        79.87494
968.53        79.81688
968.92        79.56516
969.31        79.21986
969.69        78.88448
970.08        78.60359
970.47        78.35158
970.86        78.21669
971.24        78.38564
971.63        78.80574
972.02        79.41006
972.40        80.07449
972.79        80.49879
973.17        80.70034
973.56        80.67821
973.95        80.50313
974.33        80.27284
974.72        80.02209
975.11        79.72054
975.49        79.38905
975.88         79.0887
976.26        78.86588
976.65        78.73123
977.04        78.64691
977.42        78.51228
977.81        78.24632
978.19        77.83601
978.58        77.54252
978.96        77.76876
979.35        78.54047
979.74         79.7819
980.12        81.02821
980.51        81.30492
980.89        80.54951
981.28        78.92183
981.66        77.17014
982.05        76.68585
982.43        77.79961
982.82        79.96238
983.20        82.37957
983.59        83.66547
983.97        83.56678
984.35        82.49862
984.74        80.81219
985.12        79.16489
985.51        77.92995
985.89        76.97707
986.28         76.5457
986.66        77.06394
987.04        78.45076
987.43          80.524
987.81        82.76646
988.20        84.09251
988.58        84.21956
988.96         83.4285
989.35        81.98124
989.73         80.4259
990.12        78.93467
990.50        77.31003
990.88        75.96363
991.27        75.81174
991.65        77.04391
992.03        79.35685
992.42        81.63165
992.80        82.73483
993.18        82.39545
993.56        80.77538
993.95         78.4344
994.33        76.93711
994.71         77.0754
995.10        78.22504
995.48         79.5593
995.86         80.1064
996.24        79.76303
996.63        78.80363
997.01        77.70372
997.39        77.33029
997.77        78.02115
998.15        79.37479
998.54        80.83994
998.92        81.75153
999.30        81.94302
999.68        81.64318
1000.06        81.01231
1000.45        80.30308
1000.83        79.75761
1001.21        79.24652
1001.59        78.86714
1001.97        78.74284
1002.35        78.89873
1002.73         79.4368
1003.12        80.12994
1003.50        80.32712
1003.88        79.92146
1004.26        79.07845
1004.64         78.3794
1005.02        78.61708
1005.40        79.84709
1005.78        81.79386
1006.16        83.80376
1006.54        84.68626
1006.92        84.08008
1007.30        82.37247
1007.69        80.21266
1008.07        78.59727
1008.45        77.98334
1008.83        78.10583
1009.21        78.66316
1009.59        79.20654
1009.97        79.57329
1010.35        79.91016
1010.73        80.32223
1011.11        80.90683
1011.49        81.65533
1011.86        82.51431
1012.24        83.07355
1012.62        83.15216
1013.00         82.7643
1013.38        81.96289
1013.76        81.18696
1014.14        81.16099
1014.52        82.06564
1014.90         83.7869
1015.28        85.66415
1015.66        86.36546
1016.04        85.49104
1016.41        83.52459
1016.79        81.22659
1017.17        80.10358
1017.55         80.4239
1017.93        81.72533
1018.31        83.28745
1018.69         83.9371
1019.06        83.39931
1019.44        82.05623
1019.82          80.358
1020.20        79.28356
1020.58        79.26364
1020.95        79.79441
1021.33        80.79494
1021.71        82.19242
1022.09         83.8146
1022.46        85.64911
1022.84        87.17072
1023.22        87.20493
1023.60         85.3949
1023.97        81.76532
1024.35        77.12446
1024.73        73.40647
