SpectraSmart Spectrum 2.9.0.0
--------- Device Information -----------
Spectrum Name :  反射率_0
Saving Time :  2024/04/27 22:49:16
Spectro-Module Model Name : SE2030-DUVN
Spectro-Module Serial Number : OS361AC55029948
Wavelength Start : 200
Wavelength End : 1025
Wavelength Unit : Wavelength(nm)
Spectrum Unit : Reflectance(%)
-----------Spectrum Setting ------------
Integration Time : 20ms
Average : 10
Boxcar : 0
Background removal :  enabled
linearity correction :  enabled
SC :  disabled
Intensity correction :  disabled
DWT denoise :  enabled
savitzky-golay :  disabled
FFT :  disabled
Running average :  disabled
Kalman :  disabled
High pass :  disabled
---------------BEGIN--------------------
Wavelength(nm)             Reflectance(%)
200.29               0
200.75        52.97512
201.21        40.21572
201.67        28.28823
202.13        21.20252
202.58        17.03009
203.04        14.80978
203.50        15.31574
203.96        19.04369
204.42        24.92396
204.88        31.83507
205.34        38.03902
205.80        42.64545
206.26        46.00214
206.72        48.10152
207.18        49.45065
207.64        50.82117
208.10        51.78014
208.55        52.81893
209.01        51.33674
209.47        45.69037
209.93        32.85807
210.39      -0.1251761
210.85       -100.0629
211.31       -225.4681
211.77       -84.45583
212.23        11.64454
212.69        45.34174
213.14        53.72699
213.60        49.18578
214.06        33.84281
214.52         6.14239
214.98       -11.41233
215.44        2.233473
215.90        25.02652
216.36        42.94018
216.81        52.93304
217.27        57.47736
217.73        59.90088
218.19        59.78368
218.65        55.50259
219.11        46.89041
219.57        33.53253
220.02        18.48777
220.48        11.75845
220.94        16.16443
221.40        27.55416
221.86         39.9667
222.32        47.33028
222.77        49.49922
223.23        48.93059
223.69        46.86963
224.15        44.29724
224.61        41.62816
225.06        38.20243
225.52        35.55882
225.98        36.17421
226.44        39.58535
226.90        43.92639
227.36        47.36211
227.81        48.52536
228.27        47.61526
228.73        45.14726
229.19        41.60867
229.65        38.21501
230.10        35.64502
230.56         33.9869
231.02        32.96806
231.48        32.23727
231.93         31.6181
232.39         31.2943
232.85        31.48805
233.31        32.47166
233.77        34.14392
234.22        36.37902
234.68        38.36336
235.14        39.21043
235.60        38.80033
236.05        37.14417
236.51        35.34168
236.97        35.68318
237.43        38.86104
237.88        44.26646
238.34        49.52367
238.80        52.22229
239.26        51.73773
239.71        47.57415
240.17        39.74073
240.63        34.55367
241.08        38.17194
241.54        46.27419
242.00        53.02906
242.46        55.77792
242.91        54.95539
243.37        50.23991
243.83        38.63903
244.28        21.16083
244.74        14.77519
245.20          23.266
245.66        33.16879
246.11        36.82997
246.57        35.06714
247.03         29.8149
247.48        21.88225
247.94        19.67079
248.40        29.20406
248.85        43.42871
249.31          56.501
249.77        65.16013
250.22        69.68861
250.68        71.58257
251.14         71.8935
251.59        71.36943
252.05        70.23259
252.51        67.82424
252.96        63.60511
253.42        59.35709
253.88        56.97731
254.33        56.99825
254.79        57.94027
255.25        57.84262
255.70         56.7729
256.16        55.72245
256.62        55.69528
257.07        57.73094
257.53        61.24137
257.99        64.71846
258.44        66.84407
258.90        66.93653
259.35        65.10262
259.81        62.56625
260.27        59.89706
260.72        57.79574
261.18         56.6805
261.63        55.94942
262.09        55.56485
262.55        55.11737
263.00        54.46112
263.46        53.84742
263.91        53.22297
264.37        52.85118
264.83        52.64743
265.28        52.47423
265.74        52.26474
266.19        51.72903
266.65         50.9256
267.11        49.90383
267.56        48.78764
268.02        47.87493
268.47        47.19078
268.93        46.67268
269.38        46.21678
269.84        45.69071
270.30        45.03886
270.75        44.30043
271.21        43.49553
271.66        42.59834
272.12        41.65166
272.57        40.63963
273.03         39.6433
273.48          38.706
273.94        37.90619
274.39        37.19224
274.85        36.60884
275.31        36.12641
275.76        35.69177
276.22        35.31787
276.67        34.90947
277.13        34.43803
277.58        33.84888
278.04        33.22421
278.49        32.53201
278.95        31.84746
279.40        31.14936
279.86        30.49266
280.31        29.90437
280.77        29.54382
281.22        29.37048
281.68        29.37406
282.13        29.40222
282.59        29.29421
283.04        29.00556
283.50        28.61131
283.95        28.20056
284.41        27.96044
284.86        27.90111
285.32        27.96072
285.77        28.04066
286.22        28.04122
286.68         27.9511
287.13        27.78886
287.59        27.59051
288.04        27.32545
288.50        27.04939
288.95        26.75096
289.41        26.52693
289.86        26.47752
290.32        26.62899
290.77        26.92255
291.22        27.28533
291.68        27.59604
292.13        27.81449
292.59        28.00265
293.04         28.1779
293.50        28.39622
293.95        28.67728
294.40        29.01763
294.86        29.46196
295.31        30.07435
295.77         30.8607
296.22        31.77507
296.68        32.74844
297.13        33.63842
297.58        34.40154
298.04        35.06697
298.49        35.65075
298.95        36.21004
299.40        36.76916
299.85        37.32326
300.31        37.92132
300.76        38.59589
301.21        39.35197
301.67        40.17795
302.12        40.98906
302.58        41.71058
303.03        42.29826
303.48        42.78363
303.94        43.23241
304.39        43.69018
304.84        44.18795
305.30        44.71021
305.75        45.18695
306.20        45.56666
306.66        45.85372
307.11        46.04225
307.57        46.20186
308.02        46.35832
308.47        46.54085
308.93        46.73899
309.38        46.90285
309.83        46.99748
310.29        47.02789
310.74        46.99722
311.19        46.94108
311.65        46.90693
312.10         46.8862
312.55         46.8664
313.00        46.84195
313.46        46.80691
313.91        46.74683
314.36        46.67188
314.82        46.54992
315.27        46.32552
315.72        46.00142
316.18        45.61061
316.63        45.21519
317.08        44.93653
317.53        44.80072
317.99        44.76902
318.44        44.78533
318.89        44.73743
319.35        44.59263
319.80         44.3863
320.25        44.14957
320.70        43.94074
321.16         43.7685
321.61        43.61255
322.06        43.45937
322.51         43.2975
322.97        43.11179
323.42        42.92627
323.87        42.71161
324.32        42.42648
324.78        42.06635
325.23        41.65916
325.68        41.25704
326.13        40.95614
326.59        40.76695
327.04        40.68812
327.49        40.65247
327.94        40.55854
328.39        40.37288
328.85        40.11015
329.30        39.82288
329.75        39.57232
330.20        39.38483
330.66        39.22709
331.11        39.09645
331.56        38.93138
332.01        38.71708
332.46         38.4704
332.92        38.21429
333.37        38.03082
333.82        37.92368
334.27        37.87104
334.72        37.83055
335.17         37.7344
335.63        37.55355
336.08        37.32874
336.53        37.07912
336.98        36.85321
337.43        36.67367
337.88        36.53458
338.34        36.42611
338.79        36.34076
339.24        36.27112
339.69        36.21711
340.14        36.18834
340.59        36.19996
341.05        36.24485
341.50        36.31301
341.95        36.35386
342.40        36.30106
342.85        36.14397
343.30        35.90404
343.75        35.63733
344.20        35.43458
344.66        35.32838
345.11        35.29776
345.56        35.30394
346.01        35.27847
346.46         35.2022
346.91        35.09085
347.36        34.98682
347.81        34.95372
348.26        34.99645
348.72        35.08635
349.17        35.15462
349.62        35.09723
350.07        34.89587
350.52        34.58923
350.97        34.25953
351.42        34.03749
351.87        33.95647
352.32        33.97613
352.77        34.03326
353.22         34.0299
353.67        33.93866
354.13          33.804
354.58        33.63121
355.03        33.48095
355.48        33.37015
355.93         33.2769
356.38        33.18489
356.83        33.07296
357.28        32.93372
357.73         32.7788
358.18        32.61197
358.63        32.43607
359.08        32.25368
359.53         32.0619
359.98        31.86893
360.43        31.68911
360.88        31.52632
361.33        31.37771
361.78        31.22133
362.23        31.05383
362.68        30.87856
363.13        30.63942
363.58        30.34738
364.03        30.34177
364.48        30.10742
364.93        30.03918
365.38        29.95196
365.83         29.8124
366.28        29.60332
366.73        29.34545
367.18        29.05247
367.63        28.73342
368.08        28.40286
368.53        28.06413
368.98        27.74139
369.43         27.4696
369.88         27.2606
370.33        27.11534
370.78        27.00821
371.23        26.89467
371.68        26.75656
372.13        26.58847
372.58        26.42445
373.03        26.32286
373.48        26.29051
373.93        26.31543
374.38        26.31254
374.83        26.14829
375.28        25.81232
375.72        25.34662
376.17        24.91492
376.62          24.731
377.07        24.82698
377.52        25.10775
377.97        25.42959
378.42        25.56834
378.87        25.46276
379.32        25.19479
379.77        24.81841
380.22        24.41296
380.67        24.02191
381.11         23.6247
381.56        23.28051
382.01        23.09081
382.46        23.07104
382.91        23.19895
383.36        23.37522
383.81        23.43459
384.26        23.33591
384.71        23.11914
385.15        22.85287
385.60        22.68523
386.05        22.64037
386.50        22.67642
386.95        22.73597
387.40        22.73239
387.85        22.64913
388.29        22.50946
388.74        22.38582
389.19        22.32498
389.64        22.33093
390.09        22.36643
390.54        22.39989
390.98        22.38194
391.43        22.30972
391.88        22.20426
392.33        22.05492
392.78        21.88044
393.23        21.70421
393.67        21.43479
394.12        21.14534
394.57        21.18676
395.02         21.1865
395.47        21.08485
395.91        20.82709
396.36        20.73984
396.81        20.84055
397.26        20.95843
397.71        21.02431
398.15        21.01736
398.60        20.94952
399.05        20.74801
399.50        20.51716
399.95        20.53842
400.39        20.76493
400.84        20.85353
401.29        20.75155
401.74        20.57898
402.18        20.37848
402.63        20.21796
403.08          20.118
403.53         19.9969
403.97        19.87281
404.42        19.84755
404.87        19.89569
405.32        19.93683
405.76        19.95194
406.21        19.91019
406.66        19.84941
407.11        19.92441
407.55        20.08792
408.00        20.11048
408.45        19.96601
408.90         19.6894
409.34        19.37919
409.79        19.29809
410.24        19.41464
410.68        19.42409
411.13        19.31125
411.58        19.28029
412.03        19.33039
412.47        19.35509
412.92        19.33707
413.37        19.31107
413.81        19.28405
414.26        19.28193
414.71        19.30278
415.15        19.33652
415.60        19.36465
416.05          19.368
416.49        19.34335
416.94        19.29705
417.39        19.23809
417.83        19.18173
418.28        19.12775
418.73         19.0625
419.17        19.00327
419.62        18.98029
420.07        19.00316
420.51        19.07466
420.96         19.1381
421.41        19.12695
421.85        19.02876
422.30        18.78028
422.74        18.50754
423.19        18.62838
423.64        19.07528
424.08        19.32185
424.53        19.24821
424.98        19.20996
425.42         19.2094
425.87        18.89553
426.31        18.42229
426.76        18.42082
427.21        18.81407
427.65        18.90223
428.10        18.68114
428.54         18.6249
428.99         18.7305
429.44        18.90601
429.88        19.03574
430.33         18.7115
430.77        18.14799
431.22        18.13502
431.66        18.63506
432.11        19.02136
432.56        19.17759
433.00        19.23871
433.45        19.05606
433.89        18.66857
434.34        18.40917
434.78        17.44335
435.23        18.01145
435.67        18.53532
436.12        18.78481
436.57        18.85337
437.01        18.60758
437.46        18.47032
437.90        18.54437
438.35        18.70285
438.79        18.35946
439.24        18.26694
439.68        18.27524
440.13        18.32795
440.57        18.37755
441.02        18.51449
441.46        18.67447
441.91        18.44925
442.35        18.01915
442.80        18.21478
443.24        18.87893
443.69        18.93577
444.13        18.40072
444.58        18.17606
445.02        18.26673
445.47        18.19587
445.91        17.97908
446.36        17.89091
446.80        17.93781
447.24        18.03212
447.69        18.14057
448.13        18.25676
448.58        18.33981
449.02        18.30983
449.47        18.20406
449.91        18.16269
450.36        18.20491
450.80         18.2487
451.25        18.28597
451.69        18.33504
452.13         18.3817
452.58        18.40282
453.02        18.38672
453.47        18.32463
453.91        18.21619
454.36        18.09841
454.80        17.96103
455.24        17.76915
455.69        17.57716
456.13        17.41809
456.58        17.33656
457.02        17.46075
457.46        17.68486
457.91        17.68407
458.35        17.54091
458.79        17.49479
459.24        17.57128
459.68        17.60479
460.13        17.59005
460.57         17.4945
461.01        17.40033
461.46        17.33181
461.90        17.22594
462.34        17.17521
462.79        17.45146
463.23        17.56985
463.68         17.5949
464.12        17.58967
464.56        17.56722
465.01         17.5847
465.45         17.5826
465.89        17.46503
466.34        17.29862
466.78        17.16866
467.22        17.07605
467.67        17.38261
468.11        17.30883
468.55        17.29243
468.99        17.14536
469.44        17.10698
469.88        17.18268
470.32        17.23215
470.77        17.24691
471.21        17.26907
471.65        17.29838
472.10        17.32817
472.54        17.34247
472.98        17.34308
473.42        17.33596
473.87        17.27262
474.31        17.19026
474.75        17.30663
475.20        17.56393
475.64        17.62078
476.08        17.47226
476.52        17.44722
476.97        17.56562
477.41        17.48068
477.85        17.37189
478.29         17.4938
478.74        17.41055
479.18        17.31909
479.62        17.64895
480.06        17.73723
480.50        17.76262
480.95        17.72783
481.39         17.6363
481.83        17.87388
482.27        17.91043
482.72        17.87938
483.16        18.15968
483.60        18.23403
484.04        18.25727
484.48          18.272
484.93          18.416
485.37        18.36788
485.81        18.93693
486.25        18.97532
486.69        18.83822
487.14        18.39953
487.58         19.3979
488.02        19.33176
488.46        18.99912
488.90        19.44167
489.34        18.85367
489.79        18.74753
490.23         19.2862
490.67        19.53721
491.11        19.66595
491.55        19.73388
491.99        19.79391
492.43        19.90609
492.88        20.07093
493.32        20.19951
493.76         20.2897
494.20        20.44342
494.64        20.67887
495.08        20.89701
495.52        21.08117
495.96        21.39256
496.41        21.78936
496.85        21.72516
497.29          21.352
497.73        21.47141
498.17        22.00307
498.61        22.24554
499.05        22.13466
499.49        22.08511
499.93        22.17263
500.37        22.33167
500.82        22.52658
501.26        22.74121
501.70        22.97121
502.14        22.75432
502.58        22.93825
503.02        22.97503
503.46        23.02272
503.90        23.09343
504.34        23.15974
504.78        23.25045
505.22        23.34997
505.66        23.41671
506.10        23.45999
506.54        23.55598
506.98        23.71339
507.42        23.79235
507.86        23.96661
508.30        24.06993
508.74        24.15182
509.18        24.20985
509.62        24.25301
510.06          24.293
510.50          24.332
510.94        24.36787
511.38        24.39738
511.82        24.41576
512.26        24.42255
512.70        24.42365
513.14        24.42348
513.58        24.41745
514.02        24.40731
514.46        24.41331
514.90        24.44248
515.34         24.4188
515.78        24.48324
516.22        24.51851
516.66        24.56601
517.10        24.62175
517.54        24.68141
517.98        24.73844
518.42        24.77799
518.86        24.78197
519.30         24.7469
519.74        24.68044
520.18        24.59643
520.62        24.51555
521.06        24.44815
521.50          24.395
521.93        24.35787
522.37        24.32873
522.81        24.30803
523.25        24.29217
523.69        24.28474
524.13         24.2916
524.57        24.30659
525.01        24.32175
525.45        24.31179
525.89         24.2381
526.32        24.09533
526.76         23.9115
527.20        23.71652
527.64        23.56206
528.08        23.46396
528.52         23.4033
528.96        23.37916
529.40        23.38774
529.83        23.41613
530.27         23.4662
530.71        23.49381
531.15        23.43064
531.59         23.2695
532.03         23.0322
532.46         22.7822
532.90        22.63731
533.34        22.62042
533.78        22.69769
534.22         22.8105
534.66        22.86671
535.09        22.84062
535.53        22.76673
535.97        22.67534
536.41        22.61772
536.85        22.60922
537.28         22.6305
537.72        22.66791
538.16        22.69899
538.60        22.71799
539.04        22.74158
539.47        22.76644
539.91        22.79838
540.35        22.83451
540.79        22.87675
541.22        22.93007
541.66        23.00527
542.10        23.10198
542.54         23.2171
542.97         23.3377
543.41        23.45686
543.85        23.56873
544.29         23.6785
544.72        23.78765
545.16        23.91667
545.60         24.0612
546.04        24.21249
546.47         24.3707
546.91        24.53174
547.35        24.68952
547.79        24.85729
548.22        25.01315
548.66        25.11664
549.10        25.18348
549.53        25.31426
549.97        25.51693
550.41        25.71676
550.84        25.90865
551.28        26.14304
551.72        26.39398
552.15        26.58765
552.59        26.72082
553.03        26.80892
553.46        26.87714
553.90        26.98574
554.34        27.14332
554.77        27.34095
555.21        27.55276
555.65        27.73801
556.08        27.85534
556.52        27.97847
556.96        28.10133
557.39        28.25624
557.83        28.42425
558.27        28.47915
558.70        28.44279
559.14        28.45843
559.57        28.53156
560.01        28.62556
560.45        28.71509
560.88        28.74487
561.32         28.7689
561.75        28.86752
562.19         29.0373
562.63        29.25445
563.06         29.4424
563.50        29.38837
563.93         29.1643
564.37        29.14291
564.80        29.34089
565.24        29.57489
565.68        29.79857
566.11        30.00491
566.55        30.18187
566.98        30.35416
567.42        30.51422
567.85        30.56639
568.29        30.57136
568.72        30.61833
569.16        30.73218
569.60        30.93837
570.03        31.25895
570.47        31.35189
570.90        31.55157
571.34        32.12212
571.77         32.1657
572.21        32.08914
572.64        32.32061
573.08        32.30249
573.51         32.6737
573.95        32.74439
574.38        32.64193
574.82        32.77431
575.25        32.88417
575.69        32.86083
576.12        32.89602
576.56        33.18145
576.99        33.33172
577.42        33.22969
577.86        33.21246
578.29        33.29112
578.73        33.12793
579.16        33.06796
579.60        32.93517
580.03        32.80889
580.47        32.67789
580.90         32.6992
581.33        32.87223
581.77        32.67126
582.20        32.40203
582.64        32.29508
583.07        32.02342
583.51        31.91953
583.94         31.9512
584.37        31.82809
584.81        31.54252
585.24        31.37495
585.68        31.40972
586.11        31.05512
586.54        30.94824
586.98        30.92211
587.41        31.08851
587.85        30.57551
588.28        30.90498
588.71        30.64657
589.15        30.78975
589.58          30.581
590.01        30.63414
590.45        30.60795
590.88        30.18094
591.31        30.09337
591.75        30.21968
592.18        30.25563
592.61        30.22693
593.05        30.57616
593.48        30.93081
593.91        30.57759
594.35        30.68846
594.78        30.86018
595.21        30.91415
595.65        30.97455
596.08        30.90872
596.51        31.23472
596.94        31.37514
597.38        31.70922
597.81        32.08677
598.24        32.01031
598.68        32.53069
599.11        32.86237
599.54        33.02364
599.97        33.47179
600.41         34.0605
600.84        34.49347
601.27        34.72554
601.70         34.9729
602.14        35.03925
602.57        35.67156
603.00        36.30633
603.43        36.85951
603.87        37.03664
604.30         37.1807
604.73         37.7713
605.16        38.41644
605.60        39.09247
606.03        39.64617
606.46        39.95467
606.89        40.35472
607.32        40.74869
607.76        41.07767
608.19         41.4111
608.62        41.80215
609.05        42.29322
609.48        42.59087
609.92        42.68613
610.35        43.19934
610.78        43.70765
611.21        43.65648
611.64        44.34259
612.07         44.5574
612.50        44.74494
612.94        44.94082
613.37        45.17977
613.80        45.53699
614.23        45.67733
614.66        46.00888
615.09        46.37606
615.52         46.7567
615.96        47.16959
616.39        47.11999
616.82        47.42684
617.25        47.88799
617.68        47.92503
618.11         48.0351
618.54        48.07771
618.97        48.39664
619.40        48.87939
619.84        49.39981
620.27        49.38348
620.70        49.41006
621.13        49.29564
621.56        49.68529
621.99        49.43962
622.42        49.43286
622.85         49.7266
623.28        50.04461
623.71        49.79247
624.14        49.47406
624.57         49.7003
625.00        49.65508
625.43        49.38363
625.86        49.35775
626.29        49.54268
626.72        49.11989
627.15        49.10637
627.58         48.8358
628.01        48.70122
628.44        48.23429
628.87        48.15669
629.30        48.20383
629.73        47.69685
630.16        47.36059
630.59        47.10999
631.02        46.86123
631.45        46.60182
631.88        46.27302
632.31        45.88561
632.74        45.24351
633.17        44.84484
633.60        44.38124
634.03        44.00005
634.46        43.67813
634.89        43.36465
635.32        42.95748
635.75        42.43415
636.18        41.85812
636.61        41.27762
637.04        40.71864
637.47        40.22864
637.89        39.89766
638.32        39.66777
638.75        39.38293
639.18        39.02208
639.61        38.66509
640.04        38.32944
640.47        38.01967
640.90        37.74494
641.33        37.48729
641.76        37.23323
642.18        37.05612
642.61        36.81035
643.04        36.62029
643.47        36.46752
643.90        36.39004
644.33        36.39321
644.76          36.467
645.18        36.58448
645.61        36.69506
646.04          36.786
646.47        36.86826
646.90        36.97027
647.33        37.13372
647.75        37.37661
648.18        37.70537
648.61        38.08401
649.04        38.45544
649.47        38.81843
649.89        39.15982
650.32        39.53926
650.75         40.1489
651.18        40.93238
651.61        41.60076
652.03        42.09555
652.46        42.50031
652.89        42.90861
653.32        43.30769
653.74        44.03057
654.17        44.57241
654.60        45.16927
655.03        45.60524
655.46        46.09833
655.88        47.09864
656.31        49.04731
656.74        51.44712
657.16        50.72823
657.59        50.54424
658.02        49.28037
658.45         50.1614
658.87        51.12511
659.30        51.23429
659.73        51.40236
660.15        51.67504
660.58        51.95829
661.01        52.39022
661.44        52.79428
661.86        53.15225
662.29        53.42899
662.72        53.65146
663.14        53.87035
663.57        54.16347
664.00         54.5094
664.42        54.74836
664.85        54.88331
665.27        55.02362
665.70        55.18069
666.13        55.32225
666.55         55.4573
666.98        55.59442
667.41        55.74952
667.83        55.93761
668.26        56.15223
668.69        56.40092
669.11        56.64463
669.54        56.82283
669.96         56.9293
670.39        56.93851
670.82        56.92852
671.24        57.07954
671.67        57.37682
672.09        57.65382
672.52        57.84551
672.94        57.88288
673.37         57.7926
673.80        57.68832
674.22        57.63976
674.65        57.62428
675.07        57.68297
675.50        57.85213
675.92        58.08982
676.35        58.27377
676.77        58.38334
677.20        58.45848
677.62        58.52285
678.05        58.59772
678.47        58.69231
678.90        58.79616
679.32        58.91617
679.75        59.07416
680.17        59.26495
680.60        59.50204
681.02         59.7297
681.45        59.78716
681.87        59.80246
682.30        59.61319
682.72        59.36954
683.15        59.45757
683.57        59.82662
684.00        59.89968
684.42        59.72193
684.85        59.82816
685.27        60.21366
685.70        60.57261
686.12        60.81534
686.54        60.96352
686.97        60.99814
687.39         60.9057
687.82        60.74253
688.24        60.59897
688.66        60.83294
689.09        60.64326
689.51        60.98525
689.94         61.0936
690.36        61.20441
690.78        61.23755
691.21        61.22205
691.63        61.25068
692.06        61.32938
692.48        61.40549
692.90        61.47691
693.33        61.55835
693.75         61.6537
694.17        61.76636
694.60        61.87187
695.02        61.97344
695.44         62.0614
695.87        62.07346
696.29         62.0524
696.71        62.21502
697.14        62.48693
697.56        62.52094
697.98        62.33868
698.41        62.31831
698.83        62.45396
699.25        62.55352
699.68        62.59528
700.10        62.68703
700.52        62.81456
700.94        62.96714
701.37        63.06952
701.79        63.08944
702.21        62.99845
702.64        62.83726
703.06        62.67542
703.48        62.63723
703.90        62.75645
704.33        62.99339
704.75        63.28518
705.17        63.50385
705.59        63.60516
706.01         63.5956
706.44        63.53731
706.86        63.61537
707.28        63.65462
707.70        63.88325
708.12         64.1806
708.55        64.10213
708.97        63.67657
709.39        63.98893
709.81        63.98665
710.23        64.11475
710.66        64.04282
711.08        64.06069
711.50        64.14639
711.92         64.1867
712.34        64.19181
712.76        64.18703
713.19        64.18925
713.61        64.26736
714.03        64.40997
714.45        64.58772
714.87        64.77393
715.29        64.93385
715.71         65.0536
716.13        65.14358
716.56        65.17999
716.98        65.19447
717.40        65.17592
717.82         65.1307
718.24        65.09454
718.66        65.12627
719.08        65.23405
719.50        65.39214
719.92        65.56935
720.34        65.71236
720.76        65.79966
721.19        65.84054
721.61        65.83311
722.03        65.74608
722.45        65.58942
722.87        65.37814
723.29        65.18316
723.71        65.11877
724.13        65.21227
724.55        65.43522
724.97        65.71711
725.39        65.93611
725.81        66.05136
726.23        66.08774
726.65        66.08563
727.07        66.11568
727.49        66.19543
727.91        66.29707
728.33          66.386
728.75        66.40894
729.17        66.35709
729.59         66.2621
730.01        66.16013
730.43        66.10183
730.85         66.1051
731.27         66.1536
731.69        66.24289
732.10        66.36765
732.52        66.49821
732.94        66.66763
733.36        66.83364
733.78        66.87685
734.20        66.77425
734.62        66.97466
735.04        66.37386
735.46        66.84438
735.88        66.42042
736.30        66.50645
736.72        66.59693
737.13        66.66343
737.55        66.68994
737.97        66.85969
738.39        67.13329
738.81        67.17653
739.23        67.02164
739.65        67.05325
740.06        67.21743
740.48         67.2345
740.90        67.07155
741.32        66.96555
741.74        66.86774
742.16         66.8791
742.57        66.99209
742.99        67.18881
743.41        67.41191
743.83        67.55212
744.25        67.58624
744.67        67.53785
745.08        67.47477
745.50        67.48018
745.92        67.58389
746.34        67.73561
746.75        67.88005
747.17        67.95882
747.59        67.83322
748.01        67.73543
748.42        67.66853
748.84        67.39373
749.26        67.11909
749.68         67.3115
750.09        67.86048
750.51        68.01765
750.93        67.77704
751.35        67.70679
751.76        67.82416
752.18        67.80349
752.60        67.65586
753.01        67.54913
753.43        67.48866
753.85         67.4616
754.27        67.47634
754.68        67.53374
755.10        67.62708
755.52         67.7466
755.93        67.88692
756.35          68.038
756.77         68.1592
757.18         68.2934
757.60        68.46127
758.02         68.4142
758.43        68.16933
758.85        68.62783
759.26        68.72681
759.68        68.55407
760.10        68.05005
760.51        67.42173
760.93        68.16043
761.34        68.29396
761.76        68.58032
762.18        68.61649
762.59        68.59313
763.01        68.66618
763.42        68.87021
763.84        68.92908
764.26        68.88171
764.67        68.85277
765.09        68.90005
765.50        69.08916
765.92        69.33709
766.33         69.2207
766.75        68.75547
767.16        68.52133
767.58        68.54105
768.00        68.60449
768.41        68.71205
768.83        68.65311
769.24        68.85963
769.66         68.9191
770.07        68.95419
770.49        69.11128
770.90        69.34882
771.32          69.374
771.73        69.22874
772.15        69.17712
772.56        69.24403
772.97        69.34594
773.39        69.41819
773.80        69.33162
774.22        69.12813
774.63        69.21652
775.05        69.52204
775.46        69.64668
775.88        69.52875
776.29        69.43677
776.70        69.41113
777.12        69.41656
777.53        69.48911
777.95        69.62189
778.36        69.78574
778.77         69.9129
779.19        69.98254
779.60        70.01003
780.02        70.01627
780.43        70.07706
780.84        70.21898
781.26        70.32562
781.67        70.36459
782.09        70.46872
782.50        70.62968
782.91         70.0489
783.33        70.04765
783.74         69.8494
784.15        69.85907
784.57        69.96689
784.98        70.14243
785.39        70.28025
785.81        70.35559
786.22        70.49997
786.63        70.69165
787.04        70.84373
787.46        70.95429
787.87        71.04027
788.28        71.10538
788.70        71.10983
789.11        71.03313
789.52        70.97465
789.93        70.93266
790.35        70.72556
790.76        70.46217
791.17        70.49904
791.58        70.78926
792.00        70.94876
792.41        70.94808
792.82        70.90956
793.23        70.89883
793.65        70.98197
794.06        71.17236
794.47        71.43578
794.88        71.70309
795.29        71.63867
795.71        71.65866
796.12        71.49899
796.53        71.33253
796.94        71.11491
797.35        70.93703
797.76        71.07686
798.18        71.45147
798.59        71.63046
799.00        71.57262
799.41        71.49123
799.82        71.43533
800.23        71.40457
800.64        71.41908
801.06        71.44721
801.47        71.50768
801.88         71.5582
802.29        71.58708
802.70        71.60558
803.11        71.60624
803.52         71.5744
803.93        71.51758
804.34        71.44175
804.75        71.37943
805.17        71.39716
805.58         71.5369
805.99        71.68772
806.40        71.82479
806.81        72.05807
807.22        72.27879
807.63        72.16152
808.04        71.78633
808.45        71.59858
808.86        71.65981
809.27        71.73462
809.68        71.79023
810.09        71.87684
810.50        71.97716
810.91        72.06973
811.32        72.16219
811.73        72.27879
812.14        72.41834
812.55        72.53342
812.96        72.57697
813.37         72.5806
813.78        72.49635
814.19        72.12726
814.60        71.63775
815.01        71.47969
815.42        71.70827
815.83        72.12005
816.24        72.60654
816.65        73.02379
817.05        73.27941
817.46        73.36662
817.87        73.32119
818.28        73.15575
818.69        72.89846
819.10         72.5468
819.51        72.18702
819.92        71.98431
820.33         71.9909
820.74        72.17271
821.14        72.43948
821.55        72.67216
821.96        72.80579
822.37        72.86775
822.78        72.87125
823.19        72.84313
823.60        72.80347
824.00        72.76856
824.41        72.69507
824.82        72.61063
825.23        72.52435
825.64        72.43501
826.04        72.42325
826.45        72.57439
826.86        72.89892
827.27        73.36339
827.68        73.80931
828.08        74.00481
828.49        73.83012
828.90        73.39533
829.31        72.88644
829.72        72.62534
830.12        72.72492
830.53        73.04532
830.94        73.46537
831.35        73.74144
831.75        73.81025
832.16         73.7006
832.57        73.48579
832.97        73.25658
833.38        73.05847
833.79        72.87562
834.20        72.72984
834.60        72.65302
835.01        72.66023
835.42        72.74422
835.82        72.90946
836.23        73.07199
836.64        73.22719
837.04        73.39752
837.45        73.51879
837.86        73.59296
838.26        73.63158
838.67        73.62219
839.08        73.59884
839.48        73.60398
839.89        73.65311
840.29        73.73625
840.70        73.85836
841.11        74.02645
841.51        74.24985
841.92        74.48508
842.33        74.69913
842.73        74.83344
843.14        74.81935
843.54         74.6921
843.95        74.49847
844.35        74.34077
844.76        74.23782
845.17        74.17637
845.57        74.11162
845.98        73.92461
846.38        73.62669
846.79        73.24745
847.19        72.89486
847.60        72.68697
848.00        72.68028
848.41          72.799
848.81        73.01144
849.22        73.18913
849.62        73.32112
850.03        73.40954
850.43        73.46626
850.84        73.43294
851.24        73.35683
851.65        73.18214
852.05        73.03886
852.46        73.05484
852.86        73.25078
853.27        73.59854
853.67        73.89925
854.07        74.05194
854.48        73.99874
854.88        73.82279
855.29        73.52541
855.69        73.32668
856.10        73.20132
856.50        73.16126
856.90        73.15322
857.31        73.12406
857.71        73.09844
858.12        73.05692
858.52        72.99528
858.92        72.77172
859.33        72.36008
859.73        71.82854
860.13        71.30685
860.54          71.056
860.94        71.18095
861.34        71.57841
861.75        72.04493
862.15        72.31588
862.55        72.29161
862.96        72.07061
863.36        71.76201
863.76        71.54156
864.17        71.46412
864.57        71.47169
864.97        71.55949
865.38        71.70987
865.78        71.94096
866.18         72.2416
866.58        72.49087
866.99        72.48244
867.39        72.20578
867.79        71.69199
868.19        71.11591
868.60        70.70161
869.00        70.49472
869.40        70.47729
869.80        70.55149
870.21        70.53685
870.61        70.45793
871.01        70.32048
871.41        70.21511
871.81        70.26859
872.22        70.46944
872.62        70.78062
873.02        71.11991
873.42        71.32952
873.82        71.35445
874.22        71.26599
874.63        71.11327
875.03        70.93707
875.43        70.77606
875.83        70.60497
876.23        70.50941
876.63        70.63344
877.03        70.98396
877.44        71.50669
877.84        72.01815
878.24        72.17767
878.64        71.91445
879.04        71.34293
879.44        70.68399
879.84         70.2506
880.24        70.11191
880.64        70.18312
881.04        70.34125
881.44        70.37232
881.84        70.21278
882.24        69.93375
882.65        69.61772
883.05        69.49641
883.45        69.58199
883.85        69.80662
884.25        70.06683
884.65        70.21681
885.05        70.22672
885.45        70.14906
885.85        70.06178
886.25        70.09592
886.65        70.28353
887.05        70.56591
887.45        70.87446
887.85        71.11474
888.25        71.24844
888.65         71.2939
889.04        71.25269
889.44        71.17273
889.84        71.05209
890.24        70.88288
890.64        70.66956
891.04        70.42294
891.44        70.16363
891.84         69.9222
892.24        69.71714
892.64        69.56393
893.04         69.4733
893.44        69.44137
893.83        69.51505
894.23        69.69778
894.63        69.99897
895.03        70.38998
895.43        70.77846
895.83        71.02079
896.23        71.07889
896.63        70.98372
897.02        70.81727
897.42        70.74694
897.82        70.79966
898.22        70.94944
898.62        71.12141
899.01         71.1953
899.41        71.13039
899.81        70.98673
900.21        70.87056
900.61        70.95111
901.00        71.24737
901.40        71.69894
901.80        72.17787
902.20        72.50378
902.59        72.63013
902.99        72.59352
903.39        72.44341
903.79        72.25612
904.18        72.06961
904.58        71.87582
904.98        71.70534
905.38        71.60509
905.77        71.57253
906.17        71.62113
906.57        71.69704
906.96        71.71902
907.36        71.64624
907.76        71.51704
908.15        71.40125
908.55        71.34982
908.95        71.40414
909.34        71.50005
909.74        71.63667
910.14        71.75917
910.53        71.84588
910.93        71.89869
911.33        71.87531
911.72        71.70483
912.12        71.39282
912.52         71.0154
912.91        70.66122
913.31        70.47941
913.70        70.49147
914.10        70.62576
914.49         70.8945
914.89        71.24518
915.29        71.63673
915.68        72.05966
916.08        72.36358
916.47        72.31833
916.87        71.92307
917.26        71.23996
917.66        70.51884
918.05        70.12292
918.45         70.1343
918.84        70.47825
919.24        70.95528
919.64        71.30242
920.03        71.44727
920.42        71.46832
920.82        71.44041
921.21        71.47131
921.61        71.58168
922.00         71.7183
922.40        71.88882
922.79        72.19531
923.19        72.58752
923.58        73.07219
923.98        73.44784
924.37        73.46621
924.77        73.07792
925.16        72.33932
925.55         71.5087
925.95        71.03431
926.34        71.04869
926.74        71.44102
927.13        71.97267
927.52        72.14767
927.92        71.88551
928.31        71.33015
928.70          70.793
929.10        70.74199
929.49        71.26917
929.89        72.17508
930.28        73.20472
930.67        73.80028
931.07        73.76868
931.46         73.2976
931.85        72.58833
932.24        71.99286
932.64         71.6321
933.03        71.41451
933.42        71.28622
933.82        71.15785
934.21        71.00887
934.60        70.90816
934.99        70.88622
935.39         70.9441
935.78        71.11214
936.17        71.35182
936.56        71.64682
936.96        71.96886
937.35        72.32967
937.74        72.67593
938.13        72.95968
938.53        73.13256
938.92        73.18806
939.31        73.11967
939.70        72.96825
940.09        72.80766
940.49        72.64739
940.88          72.534
941.27        72.41149
941.66        72.18427
942.05        71.85832
942.44        71.49158
942.84        71.22278
943.23        71.21441
943.62        71.51836
944.01        72.04552
944.40          72.663
944.79        73.13371
945.18        73.34539
945.57        73.34178
945.97         73.0979
946.36        72.66055
946.75        72.04491
947.14        71.26361
947.53        70.45398
947.92        69.86824
948.31        69.59502
948.70        69.59648
949.09        69.76971
949.48        69.92022
949.87        69.98737
950.26        70.02846
950.65        70.06736
951.04         70.1464
951.43        70.28029
951.82        70.42544
952.21        70.59199
952.60        70.81911
952.99        71.08318
953.38        71.34306
953.77        71.52892
954.16        71.53586
954.55        71.34372
954.94        70.99926
955.33        70.52923
955.72         69.9796
956.11        69.39763
956.50        68.79708
956.89        68.28251
957.28        68.01773
957.66        68.07327
958.05        68.40585
958.44        68.88776
958.83        69.29501
959.22        69.54376
959.61        69.63594
960.00        69.67458
960.39         69.8447
960.78        70.17068
961.16        70.62003
961.55        70.92684
961.94        70.75853
962.33        70.07101
962.72        69.03278
963.11        67.98287
963.49        67.40211
963.88        67.39092
964.27        67.80525
964.66        68.41864
965.04        68.83514
965.43        68.83196
965.82        68.58225
966.21        68.19852
966.60        67.85643
966.98        67.62444
967.37        67.39184
967.76        67.21001
968.15        67.16667
968.53        67.29791
968.92        67.63098
969.31        68.03051
969.69         68.2526
970.08        68.26445
970.47        68.13932
970.86        68.14735
971.24        68.77534
971.63         69.9793
972.02        71.48676
972.40        72.97022
972.79         73.8717
973.17        74.17108
973.56        73.99059
973.95        73.42445
974.33        72.60865
974.72        71.66629
975.11         70.5683
975.49        69.54951
975.88        69.04025
976.26        69.12842
976.65        69.72446
977.04        70.47337
977.42        70.69784
977.81          70.164
978.19        69.04763
978.58        67.77383
978.96        67.05145
979.35        67.09785
979.74        67.72549
980.12        68.71066
980.51        69.47455
980.89        69.94526
981.28        70.19575
981.66        70.36127
982.05        70.69215
982.43        71.22594
982.82        71.80741
983.20        72.31739
983.59        72.43726
983.97        72.21227
984.35        71.69862
984.74        71.11827
985.12        70.83379
985.51        70.94634
985.89        71.38307
986.28        71.94129
986.66        72.40446
987.04        72.66657
987.43         72.7305
987.81        72.71325
988.20        72.73003
988.58        72.84933
988.96        73.02792
989.35        72.98238
989.73        72.37215
990.12        71.06765
990.50        69.05113
990.88        66.86229
991.27        65.77203
991.65        66.23722
992.03        67.96963
992.42        69.75658
992.80        70.32961
993.18        69.34483
993.56        66.97195
993.95        64.22021
994.33        63.44439
994.71         65.4838
995.10        69.05445
995.48        72.40745
995.86        73.72607
996.24        72.87618
996.63        70.27225
997.01        66.82182
997.39        64.60891
997.77        64.62021
998.15        66.28926
998.54        68.34238
998.92        68.98695
999.30        67.84894
999.68        65.51778
1000.06        63.05965
1000.45        62.35183
1000.83        63.95154
1001.21        67.00146
1001.59        70.37539
1001.97        72.53794
1002.35        73.10538
1002.73        72.60854
1003.12        71.28136
1003.50        69.59008
1003.88        68.05132
1004.26        66.49403
1004.64        65.52118
1005.02        65.90192
1005.40        67.60547
1005.78        70.55371
1006.16        73.60332
1006.54        74.58709
1006.92        72.94199
1007.30        69.21584
1007.69        65.06521
1008.07        63.25475
1008.45        64.54373
1008.83        68.00621
1009.21        71.98029
1009.59        74.07827
1009.97        73.64479
1010.35        71.17699
1010.73        67.55637
1011.11        65.12494
1011.49        65.11501
1011.86          66.925
1012.24          69.228
1012.62        70.45258
1013.00        70.24458
1013.38        69.19553
1013.76        67.95548
1014.14        67.51512
1014.52        68.19333
1014.90        69.63203
1015.28        71.36745
1015.66        72.53628
1016.04        72.77978
1016.41        72.47731
1016.79        71.78443
1017.17        71.29517
1017.55        71.16984
1017.93        71.23553
1018.31        71.44944
1018.69        71.73758
1019.06        72.11948
1019.44         72.7344
1019.82        73.45037
1020.20        73.95692
1020.58        74.08434
1020.95        73.66681
1021.33         73.1615
1021.71        73.18071
1022.09        73.72604
1022.46        74.63483
1022.84        75.08673
1023.22        73.41639
1023.60        69.09183
1023.97        62.06005
1024.35         53.9533
1024.73        48.51759
