SpectraSmart Spectrum 2.9.0.0
--------- Device Information -----------
Spectrum Name :  反射率_0
Saving Time :  2024/04/27 23:07:32
Spectro-Module Model Name : SE2030-DUVN
Spectro-Module Serial Number : OS361AC55029948
Wavelength Start : 200
Wavelength End : 1025
Wavelength Unit : Wavelength(nm)
Spectrum Unit : Reflectance(%)
-----------Spectrum Setting ------------
Integration Time : 20ms
Average : 10
Boxcar : 0
Background removal :  enabled
linearity correction :  enabled
SC :  disabled
Intensity correction :  disabled
DWT denoise :  enabled
savitzky-golay :  disabled
FFT :  disabled
Running average :  disabled
Kalman :  disabled
High pass :  disabled
---------------BEGIN--------------------
Wavelength(nm)             Reflectance(%)
200.29               0
200.75       -53.36334
201.21       -8.626261
201.67        27.00248
202.13        38.98833
202.58        35.45411
203.04        24.28842
203.50        14.37017
203.96        17.14713
204.42        31.30778
204.88        49.55121
205.34        64.86346
205.80        71.77863
206.26        69.85555
206.72        58.58448
207.18        37.15881
207.64        19.95742
208.10        21.46455
208.55        34.11394
209.01        42.72607
209.47        40.88747
209.93        26.11908
210.39       -16.77317
210.85       -147.6723
211.31       -298.2617
211.77       -101.6141
212.23        22.02567
212.69        63.72732
213.14        73.84637
213.60        68.28558
214.06        49.02753
214.52        12.64951
214.98       -15.96971
215.44       -7.264902
215.90         15.9229
216.36         35.8112
216.81        47.07928
217.27        52.04396
217.73        54.78377
218.19        55.13556
218.65        51.60902
219.11        44.27462
219.57        33.02945
220.02         20.4735
220.48        15.43452
220.94        20.35161
221.40        31.15775
221.86        43.83544
222.32        54.54267
222.77        62.26837
223.23        67.82087
223.69        70.41692
224.15        68.93273
224.61        63.75618
225.06        55.22667
225.52        45.87196
225.98        40.95687
226.44        41.59288
226.90        45.05704
227.36         48.7103
227.81        50.46811
228.27        50.30995
228.73        48.96126
229.19        46.75967
229.65        44.40586
230.10        42.39429
230.56        40.93616
231.02        39.91407
231.48        39.30893
231.93        39.02237
232.39        39.03308
232.85        39.75734
233.31        41.77147
233.77        44.84125
234.22        48.64928
234.68         51.8335
235.14        52.67638
235.60        50.92117
236.05        46.74889
236.51         41.6741
236.97         39.3473
237.43        41.25317
237.88        46.60903
238.34        52.45888
238.80        55.40732
239.26        54.44432
239.71        49.09828
240.17        39.33528
240.63        32.79822
241.08        37.01503
241.54        46.74141
242.00        54.76448
242.46        57.77301
242.91        56.17178
243.37        49.23648
243.83        32.85474
244.28        9.251941
244.74        2.416362
245.20        16.24708
245.66        30.94922
246.11        36.21844
246.57        33.46003
247.03        24.81052
247.48        10.52472
247.94        1.657684
248.40        8.722578
248.85        23.70932
249.31        39.04969
249.77        49.83799
250.22        55.89677
250.68         59.2247
251.14        60.53925
251.59        60.18182
252.05        58.40634
252.51        54.26382
252.96         47.9037
253.42        44.00474
253.88        45.08659
254.33        49.57868
254.79        53.31839
255.25        53.14124
255.70         50.0733
256.16        46.24177
256.62        44.00937
257.07        45.77366
257.53        50.49784
257.99        55.76233
258.44        59.50801
258.90        60.41022
259.35        58.71138
259.81        55.92735
260.27        52.96049
260.72        50.85049
261.18        49.97708
261.63        49.61552
262.09        49.49545
262.55        49.00725
263.00        48.04091
263.46        46.94931
263.91          45.903
264.37         45.4202
264.83        45.43055
265.28        45.67155
265.74        45.86683
266.19        45.49565
266.65        44.58576
267.11        43.29712
267.56        41.88611
268.02        40.84529
268.47        40.25143
268.93        39.95911
269.38        39.80643
269.84        39.56376
270.30        39.14407
270.75        38.63346
271.21        38.01973
271.66        37.23496
272.12        36.31644
272.57        35.23038
273.03        34.16635
273.48        33.34991
273.94        32.86396
274.39        32.60861
274.85        32.41296
275.31        31.94485
275.76        31.15227
276.22        30.19112
276.67        29.23967
277.13        28.64037
277.58        28.38977
278.04        28.39319
278.49        28.42188
278.95        28.25497
279.40        27.79832
279.86        27.20836
280.31        26.56041
280.77        26.07265
281.22        25.75533
281.68        25.57429
282.13         25.4551
282.59        25.34389
283.04        25.19988
283.50        25.05291
283.95        24.89913
284.41        24.76389
284.86        24.63327
285.32        24.51173
285.77        24.36301
286.22        24.17081
286.68        23.95325
287.13        23.69797
287.59         23.4654
288.04        23.27334
288.50        23.15838
288.95        23.08672
289.41        23.06123
289.86        23.04069
290.32        23.03363
290.77         23.0463
291.22        23.08434
291.68        23.15075
292.13        23.24055
292.59        23.35894
293.04        23.52381
293.50        23.78947
293.95        24.14802
294.40        24.58974
294.86        25.05884
295.31        25.46006
295.77        25.78445
296.22        26.05028
296.68        26.33084
297.13        26.71928
297.58        27.24087
298.04        27.85805
298.49         28.5071
298.95        29.10605
299.40         29.6328
299.85        30.11423
300.31        30.60515
300.76        31.15141
301.21        31.76327
301.67        32.40857
302.12        33.01519
302.58        33.52343
303.03        33.90235
303.48         34.1868
303.94        34.43925
304.39        34.70324
304.84        35.01447
305.30        35.37074
305.75         35.7182
306.20         36.0146
306.66        36.26133
307.11        36.43886
307.57        36.61969
308.02        36.84851
308.47        37.13785
308.93        37.45815
309.38        37.70308
309.83        37.74365
310.29        37.57559
310.74        37.24097
311.19        36.85361
311.65        36.59025
312.10        36.48294
312.55         36.4869
313.00        36.54704
313.46        36.57491
313.91        36.53239
314.36        36.45139
314.82        36.31966
315.27        36.11255
315.72        35.83704
316.18        35.50308
316.63        35.15402
317.08        34.88576
317.53        34.71889
317.99        34.62846
318.44        34.56767
318.89        34.43974
319.35        34.21987
319.80        33.93698
320.25        33.63473
320.70         33.3895
321.16        33.21185
321.61        33.07958
322.06        32.94819
322.51         32.7519
322.97        32.47019
323.42        32.14167
323.87        31.78753
324.32        31.44953
324.78        31.14311
325.23        30.86096
325.68         30.6099
326.13        30.40823
326.59        30.23872
327.04        30.11402
327.49        29.98032
327.94        29.75701
328.39        29.42363
328.85        28.99426
329.30        28.52598
329.75        28.11105
330.20        27.78946
330.66        27.53582
331.11         27.3389
331.56        27.12435
332.01         26.8707
332.46         26.5976
332.92        26.33313
333.37        26.15038
333.82        26.05559
334.27        26.02067
334.72        25.99714
335.17         25.9101
335.63        25.73324
336.08        25.50741
336.53         25.2565
336.98        25.03362
337.43        24.86271
337.88        24.73025
338.34        24.64231
338.79         24.6104
339.24          24.628
339.69        24.68991
340.14        24.75933
340.59        24.77499
341.05        24.72198
341.50        24.62065
341.95        24.49125
342.40        24.37989
342.85        24.29902
343.30        24.22694
343.75        24.16498
344.20         24.1156
344.66        24.07605
345.11        24.04844
345.56        23.99508
346.01        23.85099
346.46        23.61375
346.91        23.30799
347.36        23.01332
347.81         22.8498
348.26        22.84135
348.72        22.95369
349.17        23.10321
349.62        23.15383
350.07        23.06747
350.52        22.87413
350.97        22.65674
351.42        22.54876
351.87        22.57858
352.32         22.7058
352.77        22.82375
353.22        22.77463
353.67        22.53059
354.13          22.154
354.58         21.7558
355.03        21.56025
355.48        21.61679
355.93        21.86492
356.38        22.14256
356.83        22.19724
357.28        21.97883
357.73        21.56783
358.18        21.13808
358.63        20.95983
359.08        21.08208
359.53         21.4028
359.98        21.74922
360.43        21.85421
360.88        21.65475
361.33        21.24337
361.78        20.74084
362.23        20.37577
362.68        20.22294
363.13        20.14703
363.58          20.078
364.03        20.27543
364.48        20.11019
364.93        20.08199
365.38        20.02578
365.83        19.96793
366.28        19.90548
366.73        19.83378
367.18        19.72922
367.63        19.54692
368.08        19.29012
368.53        18.98069
368.98        18.68369
369.43        18.49941
369.88        18.44997
370.33        18.50669
370.78        18.60034
371.23        18.61694
371.68        18.51879
372.13         18.3279
372.58        18.09542
373.03        17.90733
373.48        17.79161
373.93        17.73384
374.38        17.67957
374.83         17.5425
375.28        17.31447
375.72         17.0207
376.17        16.77719
376.62        16.72304
377.07        16.86996
377.52        17.14524
377.97        17.42881
378.42        17.53535
378.87        17.42334
379.32        17.16937
379.77        16.83372
380.22         16.5067
380.67         16.2298
381.11         15.9734
381.56        15.79041
382.01        15.76748
382.46        15.90319
382.91        16.16891
383.36        16.43572
383.81        16.49747
384.26        16.31427
384.71        15.94811
385.15         15.5153
385.60        15.23567
386.05        15.15741
386.50        15.22147
386.95        15.35455
387.40        15.43976
387.85        15.44306
388.29        15.39546
388.74        15.34901
389.19        15.33848
389.64        15.36819
390.09         15.4061
390.54        15.43018
390.98        15.41128
391.43        15.34912
391.88        15.26229
392.33        15.14704
392.78        15.02016
393.23        14.89746
393.67         14.7122
394.12        14.51625
394.57        14.54882
395.02        14.55307
395.47        14.49009
395.91        14.31223
396.36        14.22742
396.81        14.24784
397.26        14.26249
397.71        14.24946
398.15        14.23055
398.60         14.2163
399.05        14.14387
399.50        14.05467
399.95        14.09865
400.39        14.23648
400.84        14.24677
401.29        14.11853
401.74        13.97611
402.18        13.85978
402.63        13.80076
403.08        13.79817
403.53        13.77203
403.97        13.72367
404.42        13.72969
404.87        13.76918
405.32        13.78062
405.76        13.75329
406.21         13.6674
406.66        13.56377
407.11        13.57181
407.55        13.66448
408.00        13.68171
408.45        13.59495
408.90        13.40595
409.34        13.17813
409.79        13.10202
410.24        13.16243
410.68        13.16331
411.13        13.09674
411.58        13.09057
412.03        13.15098
412.47        13.21842
412.92        13.27399
413.37        13.33484
413.81        13.37205
414.26        13.35293
414.71        13.27252
415.15        13.14286
415.60        12.99729
416.05        12.90181
416.49         12.8791
416.94         12.9086
417.39        12.96793
417.83         13.0209
418.28        13.04733
418.73        13.05078
419.17        13.03272
419.62        12.99885
420.07        12.95803
420.51        12.91571
420.96        12.86213
421.41        12.80002
421.85        12.73016
422.30        12.59769
422.74        12.46094
423.19        12.56223
423.64        12.84548
424.08        12.96722
424.53        12.86134
424.98        12.79443
425.42        12.77604
425.87         12.5679
426.31        12.25657
426.76        12.24558
427.21        12.47586
427.65         12.4878
428.10        12.30196
428.54        12.26451
428.99        12.37573
429.44        12.56639
429.88        12.72126
430.33        12.51111
430.77        12.07285
431.22        11.95265
431.66        12.16692
432.11          12.367
432.56        12.49909
433.00        12.66245
433.45        12.70717
433.89          12.487
434.34        12.23178
434.78        11.55978
435.23         11.9774
435.67         12.3616
436.12        12.56062
436.57        12.68828
437.01        12.62716
437.46        12.58219
437.90         12.6141
438.35        12.66577
438.79        12.34964
439.24        12.19092
439.68        12.09867
440.13        12.03307
440.57        11.99118
441.02        12.07666
441.46         12.2506
441.91        12.22257
442.35        12.06042
442.80        12.25803
443.24        12.70143
443.69        12.67952
444.13         12.2352
444.58        12.02141
445.02        12.05188
445.47        12.00262
445.91         11.8633
446.36         11.7861
446.80        11.77019
447.24        11.77289
447.69        11.79804
448.13        11.88197
448.58        12.00084
449.02        12.08546
449.47        12.12454
449.91        12.15971
450.36        12.19018
450.80        12.17795
451.25         12.1395
451.69        12.12354
452.13        12.13215
452.58        12.13974
453.02        12.13238
453.47        12.09487
453.91        12.02311
454.36        11.94817
454.80        11.86193
455.24        11.73805
455.69        11.61233
456.13        11.50491
456.58        11.44992
457.02        11.53938
457.46        11.70504
457.91        11.72914
458.35        11.65976
458.79        11.64401
459.24        11.69895
459.68        11.71852
460.13        11.70817
460.57        11.65849
461.01        11.62624
461.46        11.61953
461.90        11.59047
462.34        11.59074
462.79        11.79896
463.23        11.89392
463.68        11.91108
464.12        11.88514
464.56        11.82737
465.01         11.7827
465.45        11.73088
465.89        11.64025
466.34        11.55831
466.78        11.52925
467.22        11.53188
467.67        11.77228
468.11        11.71173
468.55        11.65998
468.99         11.5045
469.44        11.42976
469.88        11.44797
470.32        11.45854
470.77        11.46269
471.21        11.49802
471.65        11.56321
472.10        11.65075
472.54        11.73077
472.98        11.77234
473.42        11.77379
473.87        11.71204
474.31        11.63093
474.75        11.70998
475.20        11.91726
475.64        12.01086
476.08        11.97225
476.52        12.00592
476.97         12.1219
477.41        12.08778
477.85        12.03087
478.29        12.13287
478.74        12.09395
479.18        12.04774
479.62        12.29421
480.06        12.37501
480.50        12.41362
480.95        12.40952
481.39        12.36386
481.83        12.54771
482.27        12.58883
482.72        12.58257
483.16        12.79194
483.60        12.83682
484.04        12.80729
484.48        12.79286
484.93         12.9299
485.37        12.86617
485.81        13.13419
486.25        13.65783
486.69        13.19663
487.14        12.95731
487.58        14.06643
488.02        13.60741
488.46         13.7744
488.90        14.00824
489.34        13.65391
489.79        13.51687
490.23        13.80525
490.67        14.09097
491.11        14.41649
491.55        14.48306
491.99        14.34948
492.43        14.39598
492.88        14.63761
493.32         14.8124
493.76        14.90053
494.20        15.03896
494.64        15.23913
495.08        15.41703
495.52        15.56209
495.96        15.79021
496.41        16.09048
496.85         16.0389
497.29        15.77175
497.73        15.92479
498.17        16.43888
498.61        16.74496
499.05        16.75272
499.49        16.76719
499.93        16.82535
500.37        16.82188
500.82        16.79376
501.26        16.89124
501.70        17.13815
502.14        17.12038
502.58        17.41969
503.02        17.55466
503.46        17.62081
503.90        17.65185
504.34        17.65248
504.78        17.68675
505.22        17.75722
505.66        17.81374
506.10        17.86146
506.54        17.95819
506.98        18.10597
507.42        18.20241
507.86        18.36142
508.30        18.42164
508.74        18.41843
509.18        18.36312
509.62        18.29534
510.06        18.27765
510.50        18.32583
510.94        18.42246
511.38        18.54108
511.82        18.63866
512.26        18.69993
512.70        18.73736
513.14         18.7603
513.58        18.77577
514.02        18.78818
514.46        18.80742
514.90        18.83362
515.34        18.80264
515.78        18.82388
516.22        18.81221
516.66        18.81155
517.10        18.83558
517.54        18.88481
517.98        18.95005
518.42        19.00741
518.86        19.02204
519.30        18.98614
519.74        18.91173
520.18        18.82091
520.62        18.74763
521.06        18.70441
521.50        18.68611
521.93        18.68501
522.37        18.67923
522.81        18.66526
523.25         18.6445
523.69        18.62826
524.13        18.63402
524.57        18.65984
525.01        18.69543
525.45        18.71112
525.89        18.66183
526.32        18.53971
526.76        18.37164
527.20         18.1934
527.64        18.06473
528.08        18.00209
528.52        17.98518
528.96        17.99809
529.40        18.01415
529.83        18.01941
530.27        18.02259
530.71        18.00772
531.15        17.94919
531.59        17.84778
532.03        17.71235
532.46        17.57391
532.90        17.49655
533.34        17.49007
533.78        17.53578
534.22         17.6052
534.66        17.65311
535.09        17.66419
535.53        17.65489
535.97        17.63066
536.41        17.60259
536.85        17.57786
537.28        17.55459
537.72        17.54083
538.16         17.5476
538.60        17.57966
539.04        17.64109
539.47        17.72021
539.91        17.80922
540.35        17.89775
540.79        17.98507
541.22        18.07409
541.66        18.17095
542.10        18.27406
542.54        18.38379
542.97        18.47805
543.41        18.53469
543.85        18.55233
544.29        18.54319
544.72        18.54578
545.16        18.63424
545.60        18.81404
546.04        19.06195
546.47        19.32926
546.91        19.53159
547.35        19.64586
547.79        19.70616
548.22         19.7423
548.66        19.79795
549.10        19.90091
549.53        20.10558
549.97        20.37854
550.41        20.59674
550.84         20.7397
551.28         20.8712
551.72        21.00185
552.15        21.12139
552.59        21.24001
553.03        21.35016
553.46        21.45347
553.90        21.57144
554.34        21.70254
554.77        21.85103
555.21        21.99799
555.65         22.1115
556.08        22.16322
556.52        22.21587
556.96        22.27597
557.39        22.37844
557.83        22.51499
558.27        22.59994
558.70        22.63189
559.14        22.67598
559.57        22.72877
560.01        22.78174
560.45        22.82861
560.88        22.84254
561.32        22.87206
561.75        22.97421
562.19        23.13855
562.63        23.33794
563.06        23.50572
563.50        23.47092
563.93        23.29236
564.37        23.27202
564.80        23.42587
565.24         23.6092
565.68        23.77455
566.11        23.91287
566.55        24.01832
566.98        24.07897
567.42        24.12262
567.85        24.21119
568.29         24.3547
568.72        24.41727
569.16        24.43656
569.60        24.60019
570.03        24.92183
570.47        25.05914
570.90        25.28476
571.34        25.67698
571.77        25.78543
572.21        25.74502
572.64        25.98351
573.08        25.87554
573.51        26.17141
573.95        26.25657
574.38        26.24994
574.82        26.36968
575.25        26.26187
575.69        26.30251
576.12        26.25649
576.56        26.74269
576.99        26.65104
577.42         26.8508
577.86        26.60264
578.29        26.71504
578.73        26.71713
579.16        26.70201
579.60        26.52029
580.03        26.39035
580.47        26.34267
580.90        26.14758
581.33         26.1197
581.77        26.18759
582.20        25.76512
582.64        25.83096
583.07        25.54555
583.51         25.4623
583.94        25.46495
584.37        25.42841
584.81        25.32676
585.24         25.1861
585.68        25.10877
586.11        24.79371
586.54        24.79766
586.98        24.69751
587.41        24.92838
587.85        24.41731
588.28         24.4101
588.71        24.62245
589.15        24.62244
589.58        24.32856
590.01        24.55845
590.45        24.69751
590.88        24.38138
591.31        24.29127
591.75        24.28616
592.18          24.302
592.61         24.3435
593.05        24.61548
593.48        24.76803
593.91        24.47572
594.35        24.58412
594.78        24.74941
595.21        24.81538
595.65        24.92632
596.08        24.92871
596.51        25.33045
596.94        25.26496
597.38        25.54881
597.81        25.97143
598.24        25.85736
598.68        26.29854
599.11        26.62187
599.54        26.92754
599.97        27.00962
600.41        27.61036
600.84        27.90937
601.27        28.12019
601.70         28.4116
602.14        28.52871
602.57        29.04741
603.00        29.51515
603.43        29.88835
603.87        30.16226
604.30        30.44561
604.73        30.72671
605.16         31.4123
605.60        31.57831
606.03        31.97217
606.46         32.3121
606.89         32.6721
607.32        33.02014
607.76        33.68523
608.19        33.70623
608.62         33.9469
609.05        34.18859
609.48        34.51814
609.92        34.89108
610.35        35.18924
610.78        35.47427
611.21        35.44767
611.64        35.99703
612.07        36.18387
612.50        36.29544
612.94        36.44682
613.37        36.65854
613.80        37.08939
614.23        37.22898
614.66        37.51799
615.09         37.7592
615.52        37.95705
615.96        38.17008
616.39        38.07509
616.82        38.35484
617.25        38.79816
617.68        38.95266
618.11        39.07554
618.54        39.05503
618.97        39.23383
619.40        39.56598
619.84        39.93331
620.27        39.87803
620.70        39.99584
621.13        40.11591
621.56        40.18715
621.99        40.12824
622.42        40.04625
622.85        40.25061
623.28        40.67941
623.71        40.46376
624.14        40.25825
624.57        40.43805
625.00        40.40724
625.43        40.22852
625.86         40.2363
626.29        40.30363
626.72        40.07795
627.15        40.04308
627.58        39.95724
628.01        40.00433
628.44        39.50689
628.87        39.07722
629.30        39.11884
629.73         38.7902
630.16        38.25526
630.59        38.24292
631.02        38.10444
631.45        38.05572
631.88        37.89044
632.31        37.60259
632.74        37.05624
633.17         36.6748
633.60         36.2584
634.03        35.94051
634.46        35.68272
634.89        35.43718
635.32        35.11362
635.75        34.69075
636.18        34.22873
636.61        33.76263
637.04        33.30404
637.47         32.8907
637.89        32.59488
638.32        32.38509
638.75        32.16235
639.18        31.91359
639.61        31.69738
640.04        31.49536
640.47        31.25895
640.90        30.98629
641.33        30.67722
641.76        30.36505
642.18        30.18327
642.61        30.02817
643.04        29.97509
643.47        29.96051
643.90        29.93671
644.33        29.88861
644.76         29.8373
645.18         29.7954
645.61        29.77655
646.04        29.79171
646.47        29.83367
646.90        29.92119
647.33        30.08689
647.75        30.33597
648.18        30.65641
648.61        31.00651
649.04        31.35013
649.47        31.66636
649.89        31.88276
650.32          32.061
650.75        32.45265
651.18        33.03633
651.61        33.49936
652.03        33.77829
652.46        34.15768
652.89        34.72398
653.32        34.92756
653.74        34.94976
654.17        36.05803
654.60        36.50098
655.03        36.28512
655.46        36.99285
655.88        37.72541
656.31        38.57022
656.74        39.68829
657.16        39.83424
657.59        39.90506
658.02        39.22276
658.45        39.60411
658.87        40.28949
659.30        40.40825
659.73        40.45403
660.15        40.66457
660.58         41.0168
661.01        41.38097
661.44         41.6698
661.86        41.89771
662.29        42.06648
662.72        42.24188
663.14        42.45123
663.57        42.66774
664.00        42.87702
664.42        43.03591
664.85        43.15082
665.27        43.26133
665.70        43.37497
666.13        43.48701
666.55        43.60508
666.98        43.72966
667.41        43.87321
667.83        44.04919
668.26        44.25035
668.69        44.47825
669.11        44.70104
669.54        44.87346
669.96        44.99349
670.39        45.03069
670.82         45.0386
671.24        45.19202
671.67        45.46754
672.09        45.62606
672.52        45.66986
672.94        45.77261
673.37        45.93332
673.80         45.9907
674.22        45.97584
674.65        46.04662
675.07        46.20138
675.50        46.26608
675.92        46.24938
676.35        46.27709
676.77        46.35836
677.20        46.42569
677.62        46.48338
678.05        46.55722
678.47        46.64584
678.90        46.74551
679.32        46.85213
679.75        46.96979
680.17        47.09593
680.60        47.23384
681.02        47.35736
681.45        47.43185
681.87        47.46642
682.30          47.398
682.72        47.29528
683.15        47.43864
683.57        47.77445
684.00        47.84329
684.42        47.69025
684.85        47.76655
685.27        48.07587
685.70        48.35757
686.12        48.54799
686.54        48.68526
686.97        48.74195
687.39        48.70164
687.82         48.6096
688.24        48.47773
688.66        48.55459
689.09        48.54295
689.51        48.53959
689.94        48.58559
690.36         48.6835
690.78        48.79132
691.21        48.89433
691.63        48.95908
692.06        48.97266
692.48        49.05798
692.90        49.00992
693.33        49.04976
693.75        49.11917
694.17         49.2395
694.60        49.36626
695.02         49.4028
695.44        49.36348
695.87        49.35331
696.29        49.39357
696.71        49.52162
697.14        49.71282
697.56        49.77901
697.98        49.69064
698.41        50.03846
698.83        50.01288
699.25        50.17616
699.68        50.27325
700.10        50.38993
700.52        50.49431
700.94        50.59263
701.37        50.65923
701.79        50.66852
702.21        50.60923
702.64        50.50743
703.06        50.40267
703.48        50.36817
703.90        50.42632
704.33        50.55601
704.75         50.7227
705.17        50.85013
705.59        50.91271
706.01        50.90629
706.44        50.87442
706.86         50.9692
707.28         51.0582
707.70         51.2668
708.12         51.4823
708.55        51.49609
708.97        51.33049
709.39        51.24581
709.81         51.2853
710.23        51.31987
710.66        51.35876
711.08        51.51412
711.50        51.72263
711.92        51.84109
712.34        51.84806
712.76        51.78539
713.19        51.69331
713.61        51.67468
714.03        51.74054
714.45        51.85897
714.87        51.99644
715.29        52.10494
715.71        52.17096
716.13        52.21225
716.56        52.22861
716.98        52.28015
717.40         52.3616
717.82        52.43685
718.24         52.5037
718.66         52.6199
719.08        52.75293
719.50        52.76981
719.92        52.69687
720.34        52.68988
720.76        52.75953
721.19        52.81911
721.61        52.84382
722.03        52.80388
722.45        52.69432
722.87        52.53199
723.29        52.37472
723.71        52.31293
724.13        52.36956
724.55         52.5224
724.97        52.72881
725.39        52.88598
725.81        52.95872
726.23        53.02121
726.65        53.11273
727.07        53.00776
727.49        53.18055
727.91        53.24372
728.33         53.3089
728.75         53.3232
729.17        53.28275
729.59        53.20726
730.01         53.1309
730.43        53.10252
730.85        53.14262
731.27        53.26614
731.69         53.4296
732.10        53.53894
732.52        53.55889
732.94         53.5551
733.36        53.57157
733.78          53.562
734.20        53.51991
734.62         53.8913
735.04        53.82345
735.46        53.92452
735.88        53.93133
736.30        53.81895
736.72        53.66388
737.13        53.66423
737.55        53.81969
737.97        54.07823
738.39        54.33788
738.81        54.33448
739.23        54.10752
739.65        54.07447
740.06        54.21446
740.48        54.22417
740.90        54.07957
741.32        54.03642
741.74        54.03643
742.16        54.06738
742.57        54.10617
742.99        54.21422
743.41        54.35481
743.83        54.34079
744.25        54.21198
744.67        54.22838
745.08         54.3974
745.50        54.47418
745.92         54.4602
746.34        54.50147
746.75        54.57077
747.17        54.56405
747.59        54.47795
748.01        54.30478
748.42        54.11853
748.84        54.11556
749.26         54.2664
749.68        54.37038
750.09        54.40109
750.51        54.35119
750.93        54.25859
751.35         54.3952
751.76        54.74761
752.18        54.57404
752.60        54.68304
753.01        54.58192
753.43        54.54501
753.85        54.53338
754.27        54.56128
754.68        54.66732
755.10        54.83668
755.52        54.83294
755.93        55.01872
756.35        55.10897
756.77        55.18069
757.18        55.29232
757.60        55.47306
758.02        55.41402
758.43         55.1215
758.85        55.66286
759.26        55.76951
759.68        55.50336
760.10        55.36354
760.51        54.60904
760.93        54.76392
761.34        54.65357
761.76        55.77531
762.18        55.91099
762.59        55.46255
763.01        55.21104
763.42        55.31401
763.84        55.29107
764.26        55.17899
764.67        55.35873
765.09        55.72777
765.50         55.7074
765.92        55.38458
766.33        55.32024
766.75        55.48892
767.16        55.51809
767.58        55.37932
768.00        55.38017
768.41        55.51621
768.83        55.63671
769.24        55.70304
769.66        55.55901
770.07         55.2807
770.49        55.38936
770.90        55.81011
771.32        55.83714
771.73        55.51116
772.15        55.42499
772.56        55.60863
772.97        55.72806
773.39        55.73216
773.80        55.74774
774.22        55.75487
774.63        55.77739
775.05        55.78808
775.46        55.77552
775.88        55.71917
776.29        55.66559
776.70        55.63483
777.12        55.65517
777.53         55.7469
777.95        55.88525
778.36        56.04002
778.77        56.14631
779.19        56.19066
779.60        56.20107
780.02        56.18995
780.43        56.22573
780.84        56.30606
781.26        56.33964
781.67        56.39043
782.09        56.58223
782.50        56.72902
782.91        57.09282
783.33        56.26038
783.74        56.12101
784.15        56.28478
784.57        56.35135
784.98        56.30442
785.39        56.42801
785.81        56.66424
786.22        56.69298
786.63        56.53367
787.04        56.46867
787.46        56.52431
787.87        56.54184
788.28        56.51988
788.70        56.53895
789.11         56.5913
789.52        56.60524
789.93        56.61972
790.35        56.82666
790.76        57.17789
791.17        57.30738
791.58        57.21547
792.00        57.20737
792.41        57.30701
792.82        57.31121
793.23        57.24527
793.65        57.22221
794.06        57.27637
794.47         57.4425
794.88         57.6316
795.29        57.58447
795.71        57.48618
796.12        57.16038
796.53        56.78942
796.94        56.82287
797.35        57.21822
797.76        57.35406
798.18        57.20688
798.59        57.23541
799.00        57.44083
799.41        57.52663
799.82        57.47915
800.23        57.44559
800.64        57.43699
801.06        57.38961
801.47        57.35675
801.88        57.36988
802.29        57.43314
802.70        57.54021
803.11        57.65336
803.52         57.7001
803.93        57.66809
804.34        57.58359
804.75        57.47732
805.17        57.41855
805.58        57.45634
805.99        57.47203
806.40         57.4759
806.81        57.68222
807.22        57.97472
807.63        57.91378
808.04        57.57042
808.45        57.45745
808.86        57.62396
809.27        57.77956
809.68        57.87475
810.09        57.95816
810.50        58.01256
810.91         58.0241
811.32        58.01869
811.73        58.05083
812.14        58.13211
812.55        58.21113
812.96        58.26181
813.37        58.32738
813.78        58.35591
814.19        58.17208
814.60        57.85017
815.01        57.66418
815.42        57.64703
815.83        57.67375
816.24        57.71055
816.65        57.75128
817.05        57.78337
817.46        57.78088
817.87        57.79582
818.28        57.86602
818.69        57.99603
819.10        58.16686
819.51        58.34204
819.92        58.45711
820.33        58.48897
820.74        58.45376
821.14        58.37185
821.55        58.31174
821.96        58.27379
822.37        58.24555
822.78        58.21961
823.19        58.18119
823.60        58.12978
824.00        58.09795
824.41        58.05323
824.82        58.00929
825.23         57.9691
825.64        57.93055
826.04         57.9342
826.45        58.02039
826.86        58.19848
827.27         58.4562
827.68         58.7229
828.08        58.91109
828.49         58.9313
828.90        58.82859
829.31        58.69042
829.72        58.67093
830.12        58.82234
830.53        59.06813
830.94        59.29702
831.35        59.29445
831.75        59.03014
832.16        58.54012
832.57        58.00572
832.97        57.71014
833.38        57.73275
833.79        57.99018
834.20        58.33632
834.60        58.54765
835.01        58.57301
835.42        58.47147
835.82        58.33645
836.23        58.26646
836.64        58.32006
837.04        58.47256
837.45        58.62573
837.86        58.71519
838.26        58.72636
838.67        58.67358
839.08        58.62098
839.48        58.65247
839.89        58.78622
840.29         58.9844
840.70         59.1797
841.11        59.27012
841.51        59.24905
841.92        59.12166
842.33        58.95092
842.73        58.83705
843.14        58.76993
843.54        58.74108
843.95        58.74023
844.35        58.76088
844.76        58.78638
845.17         58.8253
845.57        58.84586
845.98        58.76195
846.38        58.58348
846.79        58.32479
847.19        58.06678
847.60        57.90901
848.00        57.90026
848.41        57.98454
848.81        58.15051
849.22         58.3133
849.62        58.46585
850.03        58.59405
850.43        58.69447
850.84        58.69382
851.24         58.6208
851.65        58.44959
852.05        58.26253
852.46        58.15145
852.86        58.14148
853.27        58.21946
853.67        58.29826
854.07        58.37568
854.48        58.41348
854.88        58.46778
855.29        58.44902
855.69         58.3432
856.10        58.09046
856.50        57.76092
856.90        57.47271
857.31        57.44136
857.71        57.74436
858.12        58.26291
858.52        58.85039
858.92        59.14769
859.33        59.05492
859.73        58.69444
860.13          58.203
860.54        57.85691
860.94        57.77869
861.34        57.85257
861.75         57.9865
862.15            58.1
862.55        58.12553
862.96        58.13782
863.36        58.08195
863.76        57.85336
864.17        57.45178
864.57        56.91005
864.97        56.41954
865.38        56.27821
865.78        56.57722
866.18        57.21453
866.58        57.91926
866.99        58.20982
867.39        57.97187
867.79        57.33277
868.19        56.56476
868.60        56.04297
869.00         55.8582
869.40        55.93269
869.80        56.14877
870.21        56.29302
870.61        56.35062
871.01        56.34944
871.41        56.35564
871.81        56.45726
872.22        56.64944
872.62        56.89365
873.02        57.13962
873.42        57.29641
873.82         57.3324
874.22         57.3008
874.63        57.22164
875.03        57.11155
875.43        56.99197
875.83         56.8475
876.23        56.76455
876.63        56.89008
877.03         57.2273
877.44        57.71125
877.84        58.16033
878.24        58.25315
878.64        57.93051
879.04        57.32625
879.44        56.63278
879.84        56.11109
880.24        55.83854
880.64        55.75335
881.04        55.82155
881.44        55.98243
881.84        56.18777
882.24        56.42867
882.65        56.66402
883.05         56.9089
883.45         57.1047
883.85        57.24914
884.25        57.25916
884.65        57.02364
885.05         56.5563
885.45        55.90648
885.85        55.28986
886.25        55.07813
886.65         55.3529
887.05        55.99112
887.45        56.73243
887.85        57.17223
888.25        57.19766
888.65         56.9145
889.04         56.4548
889.44        56.10191
889.84        55.92653
890.24        55.84565
890.64        55.79729
891.04        55.69206
891.44        55.51025
891.84        55.31554
892.24        55.14185
892.64        55.01863
893.04        54.96475
893.44        54.96954
893.83        55.05919
894.23        55.21703
894.63        55.44941
895.03        55.72742
895.43        56.02011
895.83        56.27696
896.23        56.47305
896.63        56.62151
897.02        56.68887
897.42        56.65296
897.82        56.52169
898.22        56.31419
898.62         56.1223
899.01        56.10988
899.41        56.28846
899.81        56.59977
900.21        56.93945
900.61        57.12593
901.00        57.10025
901.40        56.96225
901.80        56.71807
902.20         56.3951
902.59         56.0429
902.99        55.62916
903.39        55.32392
903.79        55.39443
904.18        55.85283
904.58        56.59438
904.98        57.31964
905.38        57.58124
905.77         57.2879
906.17        56.57703
906.57        55.70824
906.96         55.1581
907.36        55.06354
907.76        55.30738
908.15        55.70088
908.55        55.85736
908.95        55.69963
909.34        55.34662
909.74        54.99228
910.14        54.86615
910.53         55.0298
910.93        55.36813
911.33        55.77998
911.72         56.1094
912.12        56.27488
912.52        56.35559
912.91         56.3592
913.31        56.29871
913.70        56.19815
914.10         56.0213
914.49        55.87786
914.89        55.93624
915.29        56.23165
915.68        56.71912
916.08        57.19377
916.47        57.31796
916.87        57.04711
917.26         56.4674
917.66        55.84363
918.05        55.56282
918.45         55.7075
918.84        56.18587
919.24        56.75024
919.64         57.0636
920.03        57.04937
920.42        56.81778
920.82        56.54086
921.21        56.47702
921.61        56.67964
922.00         57.0396
922.40        57.46916
922.79        57.87612
923.19        58.15686
923.58        58.37637
923.98        58.41513
924.37        58.14492
924.77        57.57001
925.16        56.74414
925.55        55.89671
925.95         55.4333
926.34          55.457
926.74        55.83187
927.13        56.43094
927.52        56.93618
927.92        57.24706
928.31        57.43906
928.70        57.48924
929.10        57.35761
929.49        57.06554
929.89        56.59004
930.28        56.12711
930.67        55.95516
931.07        56.12835
931.46        56.57357
931.85        57.08363
932.24        57.35003
932.64         57.2821
933.03        56.97466
933.42        56.50406
933.82         55.9951
934.21        55.52011
934.60        55.07083
934.99         54.6948
935.39        54.45833
935.78        54.39774
936.17        54.49713
936.56        54.75792
936.96        55.13437
937.35        55.61654
937.74        56.15678
938.13        56.61357
938.53         56.8083
938.92        56.73164
939.31        56.40702
939.70        56.01485
940.09         55.8854
940.49        56.06463
940.88        56.47314
941.27        56.90068
941.66        57.02039
942.05        56.76527
942.44        56.27486
942.84        55.68932
943.23        55.15782
943.62        54.78928
944.01        54.52334
944.40        54.41806
944.79        54.57795
945.18        54.96959
945.57        55.52082
945.97        56.00848
946.36        56.18092
946.75        55.94806
947.14        55.40557
947.53        54.66039
947.92        53.92685
948.31        53.33577
948.70        52.86503
949.09        52.61238
949.48        52.70891
949.87        53.14255
950.26        53.86326
950.65        54.67583
951.04        55.26299
951.43        55.51935
951.82        55.48048
952.21        55.24138
952.60        55.00517
952.99        54.84496
953.38        54.71649
953.77        54.54929
954.16        54.22791
954.55        53.74641
954.94         53.1776
955.33        52.65065
955.72        52.36027
956.11        52.35445
956.50         52.5702
956.89        52.88577
957.28        53.07951
957.66        53.09603
958.05        52.99107
958.44         52.8196
958.83        52.68278
959.22        52.61537
959.61        52.55383
960.00        52.55359
960.39        52.70692
960.78        53.01709
961.16        53.51183
961.55        53.95891
961.94        54.02737
962.33        53.65703
962.72         52.9549
963.11         52.2622
963.49        52.09515
963.88        52.54834
964.27        53.47998
964.66        54.53598
965.04        55.09008
965.43        54.88372
965.82         54.1487
966.21        53.24662
966.60        52.73215
966.98        52.74487
967.37        53.10181
967.76        53.58408
968.15        53.76993
968.53        53.54471
968.92        53.11431
969.31         52.6527
969.69        52.38482
970.08        52.40335
970.47        52.64543
970.86        53.19806
971.24        54.21964
971.63        55.56247
972.02        57.07834
972.40         58.5551
972.79        59.56413
973.17        60.13068
973.56         60.2989
973.95        60.13985
974.33        59.75817
974.72         59.2349
975.11        58.52238
975.49        57.76431
975.88        57.24947
976.26        57.04476
976.65        57.15007
977.04        57.29073
977.42        56.94529
977.81        55.95858
978.19        54.40877
978.58        52.87206
978.96        52.25733
979.35         52.7823
979.74        54.21375
980.12        55.85097
980.51        56.34038
980.89        55.47785
981.28        53.56852
981.66        51.41547
982.05        50.59098
982.43        51.48394
982.82          53.494
983.20        55.85186
983.59         57.2365
983.97        57.37575
984.35        56.65501
984.74        55.33882
985.12        53.87373
985.51        52.57949
985.89         51.4065
986.28        50.62881
986.66        50.76815
987.04        51.76743
987.43        53.43481
987.81        55.34029
988.20        56.59212
988.58        56.91729
988.96         56.5531
989.35        55.55637
989.73        54.14176
990.12        52.39586
990.50        50.06589
990.88         47.7538
991.27        46.85589
991.65         47.7569
992.03        50.19398
992.42         52.6388
992.80        53.48176
993.18        52.30505
993.56        49.31062
993.95        45.76926
994.33        44.60142
994.71        46.97083
995.10         51.3218
995.48        55.56238
995.86        57.46379
996.24        56.87877
996.63        54.36362
997.01        51.03502
997.39        49.44248
997.77         50.6189
998.15        53.70477
998.54        56.95374
998.92         58.0178
999.30        56.42438
999.68        52.94156
1000.06        48.92432
1000.45        46.83143
1000.83        47.54232
1001.21        50.18323
1001.59        53.54556
1001.97        55.93279
1002.35        56.88405
1002.73        56.92868
1003.12        56.45733
1003.50        56.02589
1003.88        56.00012
1004.26        56.02066
1004.64        56.08488
1005.02        56.28069
1005.40        56.58495
1005.78        57.09465
1006.16        57.53762
1006.54        57.35802
1006.92        56.45179
1007.30        54.96135
1007.69        53.44908
1008.07        52.73726
1008.45        53.08432
1008.83        54.18742
1009.21          55.422
1009.59        55.85794
1009.97         55.2252
1010.35        53.70256
1010.73        51.62523
1011.11        49.99693
1011.49        49.45077
1011.86        49.85695
1012.24        50.76925
1012.62        51.78501
1013.00        52.76809
1013.38        53.91962
1013.76        55.12944
1014.14        56.18818
1014.52        57.02478
1014.90        57.50112
1015.28        57.89781
1015.66        58.79195
1016.04        60.22135
1016.41        62.08943
1016.79        63.39191
1017.17        63.03396
1017.55          60.964
1017.93        57.69235
1018.31        54.36913
1018.69        52.76476
1019.06        53.38401
1019.44        55.85978
1019.82        59.34494
1020.20        61.92058
1020.58        62.63726
1020.95        61.88493
1021.33        60.31841
1021.71        58.79815
1022.09         57.5154
1022.46        56.14421
1022.84        54.44296
1023.22        51.83612
1023.60        48.23683
1023.97         43.7325
1024.35        39.38791
1024.73        36.88961
