SpectraSmart Spectrum 2.9.0.0
--------- Device Information -----------
Spectrum Name :  反射率_0
Saving Time :  2024/04/27 23:02:58
Spectro-Module Model Name : SE2030-DUVN
Spectro-Module Serial Number : OS361AC55029948
Wavelength Start : 200
Wavelength End : 1025
Wavelength Unit : Wavelength(nm)
Spectrum Unit : Reflectance(%)
-----------Spectrum Setting ------------
Integration Time : 20ms
Average : 10
Boxcar : 0
Background removal :  enabled
linearity correction :  enabled
SC :  disabled
Intensity correction :  disabled
DWT denoise :  enabled
savitzky-golay :  disabled
FFT :  disabled
Running average :  disabled
Kalman :  disabled
High pass :  disabled
---------------BEGIN--------------------
Wavelength(nm)             Reflectance(%)
200.29               0
200.75        183.7489
201.21        177.4396
201.67        164.7404
202.13         152.044
202.58         139.209
203.04         126.202
203.50        115.3142
203.96        111.4018
204.42        114.1552
204.88        120.2889
205.34        126.9088
205.80        131.9366
206.26        135.5741
206.72        139.2025
207.18        142.4911
207.64        142.2421
208.10        137.8323
208.55        132.3146
209.01         128.417
209.47        126.3873
209.93        125.4971
210.39        126.1007
210.85        131.5825
211.31        146.3933
211.77        144.3763
212.23        138.2579
212.69        136.2691
213.14        138.1992
213.60        143.1209
214.06         152.527
214.52        167.1533
214.98         174.754
215.44        165.1389
215.90         150.632
216.36        139.8217
216.81        134.4509
217.27        133.0423
217.73        133.8358
218.19        135.7115
218.65        137.0088
219.11        137.3348
219.57        137.3645
220.02        138.2245
220.48         142.286
220.94        149.1534
221.40        156.7581
221.86         162.984
222.32        166.4545
222.77        167.3442
223.23        166.8033
223.69        166.0551
224.15        166.6425
224.61        168.7226
225.06        171.9267
225.52        175.0692
225.98        175.3279
226.44        172.8857
226.90        169.6763
227.36        167.4063
227.81         167.179
228.27        169.3784
228.73        173.2626
229.19        178.3165
229.65        183.1496
230.10        186.6052
230.56        188.8965
231.02        190.0989
231.48        190.6155
231.93        190.5062
232.39        190.1528
232.85        189.0735
233.31        186.9615
233.77        184.0157
234.22        180.4127
234.68        177.3937
235.14         176.235
235.60        177.1127
236.05        180.0853
236.51        183.4059
236.97        183.7206
237.43        179.7991
237.88        172.6488
238.34         165.026
238.80        160.8393
239.26        160.8952
239.71         166.211
240.17        174.7362
240.63        175.9891
241.08         163.535
241.54        146.2667
242.00        133.6638
242.46        128.1058
242.91        128.0271
243.37        133.0097
243.83        146.6355
244.28        167.4466
244.74        173.9915
245.20        163.1257
245.66        150.0639
246.11        142.5904
246.57        138.9207
247.03         135.134
247.48        131.5135
247.94        131.3438
248.40        136.8268
248.85        146.5903
249.31        153.7878
249.77        151.8563
250.22        143.7197
250.68        133.9292
251.14        126.5928
251.59        125.5456
252.05        131.1745
252.51        143.2005
252.96        160.4504
253.42          172.27
253.88        170.5342
254.33         160.473
254.79        150.6093
255.25        144.3372
255.70        140.8452
256.16        139.5893
256.62        139.6945
257.07        140.5381
257.53        142.4658
257.99        144.5734
258.44        146.1686
258.90        147.7782
259.35        148.6203
259.81        149.6319
260.27        150.2284
260.72        149.8956
261.18        149.4554
261.63        148.3507
262.09        147.6309
262.55        147.4309
263.00        147.4634
263.46        147.9403
263.91        147.9997
264.37        147.3824
264.83         145.942
265.28        143.8918
265.74        141.9827
266.19        140.4652
266.65        139.6115
267.11        139.0838
267.56        138.6334
268.02        138.1007
268.47         137.293
268.93        136.3495
269.38        135.2164
269.84        133.9188
270.30        132.4629
270.75        130.8364
271.21        129.1424
271.66        127.4194
272.12        125.7522
272.57         124.046
273.03        122.4174
273.48        120.8393
273.94        119.4251
274.39        118.0509
274.85         116.728
275.31        115.1753
275.76        113.3223
276.22        111.4151
276.67        109.4854
277.13        107.9338
277.58        106.6397
278.04        105.6025
278.49        104.5657
278.95        103.4945
279.40        102.2002
279.86        100.8823
280.31        99.39185
280.77        97.83965
281.22        96.14964
281.68         94.4908
282.13        92.86297
282.59        91.52678
283.04        90.38048
283.50        89.43009
283.95        88.50863
284.41        87.54153
284.86         86.4411
285.32        85.34735
285.77        84.20236
286.22        83.07109
286.68         82.0015
287.13         80.8959
287.59        79.88949
288.04         79.0232
288.50        78.36265
288.95        77.80746
289.41        77.28855
289.86        76.56104
290.32        75.65129
290.77        74.59323
291.22        73.53941
291.68        72.69376
292.13        72.06994
292.59        71.64194
293.04        71.31924
293.50        71.03269
293.95        70.72221
294.40        70.42163
294.86        70.15196
295.31        69.91655
295.77        69.73089
296.22        69.56804
296.68        69.41302
297.13        69.21579
297.58        68.98654
298.04        68.76391
298.49        68.57529
298.95        68.51968
299.40        68.57609
299.85        68.71136
300.31        68.89438
300.76        69.02825
301.21        69.09412
301.67        69.13644
302.12        69.08763
302.58        68.95141
303.03        68.69749
303.48        68.36627
303.94        68.08475
304.39        67.95193
304.84        68.01595
305.30        68.25199
305.75        68.49729
306.20        68.58979
306.66         68.5084
307.11        68.25488
307.57        67.97996
308.02        67.81506
308.47        67.81237
308.93        67.92812
309.38         68.0046
309.83        67.87163
310.29        67.51466
310.74        66.98259
311.19        66.42667
311.65        66.07387
312.10        65.95546
312.55        66.00195
313.00        66.10551
313.46        66.10146
313.91        65.92823
314.36        65.64598
314.82        65.29023
315.27        64.91595
315.72         64.5532
316.18        64.19162
316.63        63.83797
317.08        63.53713
317.53        63.29417
317.99        63.09939
318.44        62.93132
318.89        62.72732
319.35        62.47283
319.80        62.19065
320.25        61.89954
320.70        61.63887
321.16        61.41152
321.61        61.21156
322.06        61.03266
322.51        60.87286
322.97        60.71605
323.42        60.58401
323.87        60.44007
324.32        60.23742
324.78        59.96164
325.23         59.6435
325.68        59.32266
326.13        59.08262
326.59        58.92616
327.04        58.86001
327.49        58.82069
327.94        58.72004
328.39         58.5321
328.85        58.26759
329.30        57.99303
329.75        57.75867
330.20        57.59192
330.66        57.45866
331.11        57.38099
331.56        57.31725
332.01        57.25883
332.46        57.21959
332.92        57.17957
333.37        57.17638
333.82        57.18591
334.27        57.19085
334.72        57.20084
335.17        57.23827
335.63         57.2879
336.08         57.3758
336.53         57.4341
336.98        57.37444
337.43        57.18977
337.88        56.91558
338.34        56.64506
338.79        56.55232
339.24        56.66915
339.69         56.9413
340.14        57.27443
340.59        57.51217
341.05         57.6034
341.50        57.59923
341.95        57.52601
342.40        57.43958
342.85        57.36607
343.30        57.28182
343.75        57.21278
344.20        57.20462
344.66        57.26791
345.11        57.39885
345.56        57.54333
346.01         57.6032
346.46        57.56109
346.91        57.44255
347.36        57.32618
347.81        57.33578
348.26        57.48918
348.72        57.73812
349.17        57.98735
349.62        58.09491
350.07        58.02157
350.52        57.80957
350.97        57.53391
351.42         57.3141
351.87        57.18864
352.32         57.1298
352.77        57.08375
353.22        56.96899
353.67        56.76726
354.13        56.51643
354.58        56.25522
355.03        56.09601
355.48        56.05618
355.93        56.09976
356.38        56.12587
356.83        55.98172
357.28        55.64005
357.73        55.15296
358.18         54.6378
358.63        54.27453
359.08        54.10454
359.53         54.0746
359.98        54.07779
360.43        53.94745
360.88        53.64022
361.33        53.19958
361.78        52.72033
362.23        52.37474
362.68        52.20632
363.13        52.12757
363.58        52.01492
364.03        51.89813
364.48        51.38622
364.93        50.82272
365.38        50.24777
365.83        49.89709
366.28        49.81005
366.73        49.91514
367.18        50.04282
367.63        49.91467
368.08        49.46968
368.53        48.79652
368.98        48.06733
369.43        47.55772
369.88         47.3415
370.33        47.33706
370.78        47.40302
371.23         47.3106
371.68        46.99485
372.13        46.52613
372.58        46.02137
373.03        45.66667
373.48         45.5113
373.93        45.49279
374.38        45.50169
374.83        45.37104
375.28        45.06428
375.72        44.63021
376.17        44.19767
376.62        43.91346
377.07        43.80767
377.52         43.8114
377.97         43.8399
378.42        43.76632
378.87         43.5561
379.32        43.26217
379.77        42.91418
380.22         42.5504
380.67        42.19438
381.11        41.83764
381.56        41.51683
382.01         41.2984
382.46        41.19563
382.91        41.19463
383.36        41.23346
383.81        41.20988
384.26        41.09502
384.71        40.90795
385.15        40.68574
385.60        40.53275
386.05        40.45494
386.50        40.42455
386.95        40.39023
387.40        40.27609
387.85        40.07598
388.29        39.80424
388.74        39.56228
389.19        39.39786
389.64        39.31507
390.09        39.27251
390.54        39.24231
390.98        39.17493
391.43        39.08007
391.88        38.97599
392.33        38.82893
392.78        38.65254
393.23         38.4756
393.67        38.13457
394.12        37.74829
394.57         37.9409
395.02        38.04765
395.47        37.96205
395.91        37.57418
396.36        37.46138
396.81        37.65358
397.26        37.84355
397.71        37.93489
398.15        37.93122
398.60        37.86015
399.05        37.58195
399.50        37.24616
399.95         37.3039
400.39        37.66491
400.84        37.72957
401.29        37.45827
401.74        37.16091
402.18        36.93357
402.63        36.85794
403.08         36.9197
403.53        36.88139
403.97        36.74084
404.42        36.71215
404.87        36.75618
405.32        36.73814
405.76         36.6423
406.21        36.41876
406.66        36.17244
407.11        36.24124
407.55        36.55293
408.00         36.6795
408.45        36.55219
408.90        36.18642
409.34        35.73995
409.79        35.70442
410.24        36.01212
410.68        36.08398
411.13        35.89069
411.58        35.80703
412.03        35.86177
412.47         35.9125
412.92        35.93996
413.37        35.99263
413.81        36.03719
414.26        36.05011
414.71        36.01806
415.15        35.95155
415.60        35.86101
416.05        35.79832
416.49         35.7808
416.94        35.78741
417.39         35.8015
417.83        35.79838
418.28        35.76082
418.73        35.68323
419.17        35.58542
419.62        35.50233
420.07        35.45741
420.51        35.45691
420.96        35.45369
421.41        35.41337
421.85        35.32458
422.30        35.04268
422.74        34.71815
423.19        35.01115
423.64        35.77246
424.08        36.03788
424.53        35.69066
424.98        35.55324
425.42        35.66753
425.87        35.32681
426.31        34.70983
426.76        34.82664
427.21        35.50824
427.65        35.48504
428.10        34.85273
428.54        34.70148
428.99        35.06176
429.44        35.51495
429.88        35.81847
430.33        35.54527
430.77         34.8715
431.22        34.53265
431.66        34.62014
432.11        34.95764
432.56        35.43294
433.00        35.68883
433.45        35.46809
433.89         35.1256
434.34        34.98535
434.78        33.97292
435.23        34.28685
435.67        35.09722
436.12        35.46656
436.57        35.58981
437.01        35.19059
437.46        34.95864
437.90        35.10778
438.35        35.53808
438.79        35.09973
439.24        35.04797
439.68        35.06754
440.13        35.08779
440.57        35.07407
441.02        35.23763
441.46        35.46579
441.91        35.12806
442.35        34.45427
442.80        34.56219
443.24        35.28289
443.69        35.38771
444.13        34.86255
444.58        34.65341
445.02        34.75293
445.47        34.66964
445.91        34.42453
446.36        34.31604
446.80        34.35336
447.24        34.42798
447.69        34.51878
448.13        34.66936
448.58        34.82176
449.02        34.79507
449.47        34.64257
449.91        34.60124
450.36         34.6983
450.80        34.78811
451.25        34.85288
451.69        34.91856
452.13        34.96498
452.58        34.95337
453.02        34.88887
453.47         34.7974
453.91        34.68765
454.36        34.61472
454.80        34.53314
455.24        34.32944
455.69        34.08572
456.13        33.86869
456.58         33.7731
457.02        34.06602
457.46        34.54797
457.91        34.58944
458.35        34.32965
458.79        34.21523
459.24        34.29929
459.68        34.26793
460.13        34.16201
460.57        34.01684
461.01        34.00131
461.46        34.10338
461.90        34.10277
462.34        34.19838
462.79        34.62973
463.23        34.68944
463.68        34.52348
464.12        34.41063
464.56        34.41368
465.01        34.59249
465.45        34.76951
465.89        34.65124
466.34        34.34568
466.78        34.06152
467.22        33.83271
467.67        34.42798
468.11        34.32018
468.55        34.35371
468.99        34.13663
469.44         34.1204
469.88        34.30866
470.32        34.42983
470.77        34.46728
471.21        34.50774
471.65        34.55023
472.10         34.5785
472.54        34.56582
472.98        34.52849
473.42         34.4833
473.87        34.33725
474.31        34.15514
474.75        34.34558
475.20        34.79441
475.64        34.83331
476.08         34.4917
476.52        34.45671
476.97        34.76569
477.41        34.74816
477.85        34.71964
478.29        34.93171
478.74        34.79719
479.18         34.4901
479.62        34.98635
480.06         35.0071
480.50        34.93166
480.95        34.75739
481.39        34.49134
481.83        34.87465
482.27        34.87992
482.72        34.76695
483.16        35.27987
483.60        35.38903
484.04        35.35515
484.48        35.37415
484.93        35.70035
485.37        35.37506
485.81        35.84761
486.25        36.56028
486.69        36.02864
487.14        35.40787
487.58        36.05507
488.02        36.29344
488.46        36.25208
488.90        36.66302
489.34        35.95033
489.79        35.40014
490.23        36.13787
490.67         36.5491
491.11        36.92587
491.55        36.91731
491.99        36.63321
492.43        36.63028
492.88        36.92989
493.32        37.14597
493.76        37.22675
494.20        37.37381
494.64        37.60529
495.08        37.74752
495.52        37.81992
495.96        38.17637
496.41        38.71564
496.85        38.58993
497.29        37.99891
497.73        38.10995
498.17        38.80933
498.61        39.19764
499.05        39.13351
499.49        39.01239
499.93        38.95465
500.37          39.024
500.82        39.19548
501.26        39.43217
501.70         39.7383
502.14        39.32083
502.58        39.62076
503.02        39.64861
503.46        39.66636
503.90        39.70519
504.34         39.7344
504.78        39.82886
505.22        39.95856
505.66        40.06171
506.10        40.14883
506.54        40.25701
506.98        40.37566
507.42        40.62993
507.86         40.7021
508.30        40.79297
508.74        40.80997
509.18        40.76738
509.62        40.70568
510.06        40.69663
510.50         40.7605
510.94        40.87921
511.38         41.0083
511.82        41.07381
512.26        41.05927
512.70        40.98913
513.14        40.91783
513.58        40.91643
514.02        41.00072
514.46        41.17407
514.90        41.38678
515.34        41.41318
515.78        41.46946
516.22        41.39001
516.66         41.3007
517.10         41.2816
517.54        41.35372
517.98        41.48564
518.42        41.62171
518.86        41.68061
519.30        41.64177
519.74        41.53394
520.18        41.40554
520.62        41.32964
521.06          41.326
521.50        41.37305
521.93        41.43729
522.37        41.45392
522.81        41.41204
523.25        41.33204
523.69        41.24603
524.13        41.20268
524.57        41.21136
525.01        41.25105
525.45        41.29321
525.89        41.29449
526.32        41.23993
526.76        41.15688
527.20        41.05809
527.64        40.96864
528.08        40.89811
528.52        40.83512
528.96        40.78698
529.40        40.76575
529.83        40.76537
530.27        40.78957
530.71         40.8043
531.15        40.75888
531.59        40.64725
532.03        40.48689
532.46        40.31815
532.90        40.22359
533.34        40.21661
533.78         40.2727
534.22         40.3539
534.66         40.4012
535.09        40.39435
535.53        40.36369
535.97        40.32073
536.41        40.29148
536.85        40.28591
537.28        40.29509
537.72        40.31913
538.16        40.35499
538.60        40.40004
539.04        40.46218
539.47        40.52296
539.91        40.57633
540.35        40.61077
540.79        40.64023
541.22        40.66251
541.66        40.67925
542.10        40.69431
542.54        40.71015
542.97        40.74354
543.41        40.84264
543.85        41.00533
544.29        41.22156
544.72        41.44706
545.16        41.63672
545.60        41.76716
546.04        41.84752
546.47        41.91574
546.91        42.03272
547.35        42.20415
547.79        42.42792
548.22        42.64649
548.66        42.75364
549.10        42.76639
549.53         42.8694
549.97        43.07535
550.41        43.25294
550.84        43.40034
551.28        43.60316
551.72        43.84114
552.15        44.03135
552.59        44.17218
553.03        44.27457
553.46        44.34945
553.90        44.44809
554.34        44.57158
554.77         44.7211
555.21        44.86996
555.65        44.97879
556.08        44.99879
556.52        45.04906
556.96         45.1259
557.39        45.28822
557.83         45.5014
558.27        45.55669
558.70        45.48597
559.14        45.51019
559.57        45.62956
560.01        45.78748
560.45        45.91845
560.88        45.88578
561.32        45.77477
561.75        45.76222
562.19         45.8917
562.63        46.11562
563.06        46.36369
563.50        46.45754
563.93        46.39997
564.37        46.44115
564.80         46.5726
565.24        46.67154
565.68        46.74121
566.11        46.82663
566.55        46.95027
566.98        47.15259
567.42         47.3978
567.85        47.47546
568.29        47.45931
568.72        47.52003
569.16        47.68133
569.60        47.90985
570.03        48.22169
570.47        48.19044
570.90        48.39769
571.34        48.90689
571.77        48.86867
572.21        48.82479
572.64        49.20754
573.08        48.87503
573.51        49.16061
573.95        49.35254
574.38        49.70335
574.82         49.7422
575.25         49.6716
575.69        49.88402
576.12        49.73951
576.56        49.96845
576.99        49.87967
577.42        49.98602
577.86        50.15734
578.29        50.18036
578.73        50.09031
579.16        50.03978
579.60         49.9775
580.03        49.89408
580.47        49.75281
580.90        49.93859
581.33        49.94823
581.77        49.98539
582.20        49.74271
582.64         49.3864
583.07        49.38504
583.51        49.02917
583.94        49.16345
584.37        49.10219
584.81        49.01137
585.24        48.91115
585.68        48.89862
586.11        48.69045
586.54        48.62775
586.98        48.69801
587.41        49.14513
587.85        48.63461
588.28        48.61697
588.71         48.1696
589.15        48.63265
589.58        48.37258
590.01        48.68734
590.45        48.68588
590.88        48.00666
591.31        48.01974
591.75        48.46722
592.18        48.54829
592.61        48.17623
593.05        48.56321
593.48        48.93901
593.91        48.39175
594.35        48.45583
594.78        48.71957
595.21        48.82871
595.65        48.93688
596.08          48.748
596.51        49.40695
596.94        49.21704
597.38        49.54555
597.81        49.94197
598.24        49.94981
598.68        50.24194
599.11        50.75059
599.54        50.78197
599.97        50.93331
600.41        51.75378
600.84        52.12008
601.27         52.2434
601.70        52.53119
602.14        52.52251
602.57         53.2024
603.00        53.76162
603.43        54.22321
603.87        54.73928
604.30        54.81408
604.73        55.22274
605.16        56.14454
605.60        56.34489
606.03        56.73771
606.46        56.90223
606.89        57.34019
607.32        57.92261
607.76        58.44681
608.19        58.61961
608.62        58.89171
609.05        59.26029
609.48        59.57228
609.92        59.79299
610.35        60.22154
610.78        60.70813
611.21        60.46439
611.64         61.0089
612.07        61.27558
612.50        61.68507
612.94        62.02949
613.37        62.34058
613.80        62.55233
614.23         62.8474
614.66        63.18743
615.09        63.59399
615.52        63.83344
615.96         63.9129
616.39        64.16214
616.82        64.44939
617.25        64.62006
617.68        65.00954
618.11        65.12387
618.54        65.17239
618.97        65.44553
619.40        65.86797
619.84        66.43044
620.27        66.36577
620.70        66.47287
621.13        66.47919
621.56         66.7234
621.99        66.55229
622.42        66.46876
622.85        66.63572
623.28        67.28772
623.71        66.94191
624.14         66.7698
624.57        66.81783
625.00         67.2775
625.43        66.70056
625.86        66.74633
626.29        66.99481
626.72        66.50534
627.15        66.66484
627.58        66.49913
628.01        66.43804
628.44        66.24706
628.87        65.25602
629.30        65.76856
629.73        65.74034
630.16        65.10286
630.59        65.04666
631.02         64.6613
631.45        64.45386
631.88        64.19054
632.31        63.91394
632.74        63.35717
633.17        63.13763
633.60        62.73779
634.03        62.34221
634.46        61.94232
634.89         61.5443
635.32        61.13689
635.75        60.71595
636.18        60.32162
636.61        59.94942
637.04        59.52201
637.47        59.07196
637.89        58.76395
638.32         58.5502
638.75        58.25642
639.18        57.87219
639.61        57.49812
640.04        57.14916
640.47        56.81827
640.90         56.5172
641.33        56.22984
641.76        55.95067
642.18        55.80851
642.61        55.58328
643.04        55.44978
643.47        55.35407
643.90        55.31424
644.33        55.32717
644.76        55.38796
645.18         55.4742
645.61        55.53884
646.04        55.57442
646.47        55.59179
646.90        55.62675
647.33        55.73185
647.75        55.92769
648.18          56.222
648.61        56.57065
649.04         56.8908
649.47        57.17526
649.89        57.43744
650.32        57.73901
650.75        58.22208
651.18        58.84364
651.61        59.42378
652.03        59.85984
652.46        60.09389
652.89        60.32337
653.32        60.55672
653.74        61.13937
654.17        62.18723
654.60        62.71836
655.03        62.51417
655.46        63.41038
655.88        64.14211
656.31        65.77919
656.74        67.58765
657.16        66.85077
657.59        66.03812
658.02        65.75671
658.45        66.39689
658.87        67.33707
659.30        67.71281
659.73        67.81308
660.15        68.15811
660.58        68.32657
661.01        68.90759
661.44        69.60778
661.86        69.93364
662.29         69.9103
662.72        70.00066
663.14        70.30956
663.57        70.73706
664.00        71.20846
664.42        71.51468
664.85        71.64209
665.27        71.74474
665.70        71.87209
666.13        72.02435
666.55        72.22469
666.98        72.47583
667.41        72.75452
667.83        73.00968
668.26         73.2142
668.69        73.39234
669.11        73.55878
669.54        73.72845
669.96         73.9154
670.39        74.09966
670.82        74.28402
671.24        74.48101
671.67        74.68378
672.09        74.85558
672.52        75.01536
672.94        75.17029
673.37        75.33524
673.80        75.49773
674.22        75.67012
674.65        75.82185
675.07        75.97017
675.50        76.10844
675.92         76.2468
676.35         76.3829
676.77        76.52726
677.20         76.6838
677.62        76.85612
678.05        77.02727
678.47        77.19019
678.90        77.35506
679.32        77.53064
679.75        77.72376
680.17        77.92406
680.60          78.199
681.02        78.48247
681.45        78.49145
681.87        78.29634
682.30         78.2776
682.72        78.48023
683.15        78.64796
683.57        78.80956
684.00        79.11915
684.42        79.51549
684.85         79.8806
685.27        80.04563
685.70        80.16527
686.12        80.22569
686.54        80.30815
686.97        80.40931
687.39        80.49962
687.82        80.57427
688.24        80.50997
688.66        80.70448
689.09        80.67698
689.51        80.81781
689.94        80.89263
690.36        80.99178
690.78        81.07697
691.21        81.16486
691.63         81.3335
692.06        81.55535
692.48        81.69526
692.90         81.7588
693.33        81.83452
693.75        81.92099
694.17        82.01212
694.60        82.12878
695.02        82.13864
695.44        82.30375
695.87        82.64179
696.29        82.74711
696.71        83.01706
697.14        83.26331
697.56        83.41756
697.98        83.48238
698.41        83.63126
698.83        83.85136
699.25        84.09422
699.68         84.3162
700.10        84.47807
700.52        84.53821
700.94        84.78146
701.37        84.70673
701.79        84.74359
702.21        84.73386
702.64         84.7076
703.06        84.66936
703.48        84.65833
703.90         84.6994
704.33        84.78181
704.75        84.90464
705.17        85.03336
705.59         85.1528
706.01        85.23379
706.44         85.3134
706.86        85.56551
707.28        85.73243
707.70        86.11914
708.12         86.5692
708.55        86.57011
708.97        86.18459
709.39        86.53516
709.81        86.75766
710.23         86.9759
710.66        86.90858
711.08        86.94189
711.50        87.05527
711.92        87.10231
712.34        87.10562
712.76        87.07703
713.19        87.03571
713.61        87.16811
714.03         87.4834
714.45        87.54361
714.87        87.96604
715.29        88.17882
715.71        88.36322
716.13         88.3936
716.56        88.46603
716.98        88.47088
717.40        88.45638
717.82        88.40104
718.24        88.38791
718.66        88.43425
719.08         88.5606
719.50        88.74403
719.92        88.95904
720.34        89.15805
720.76        89.31736
721.19        89.44277
721.61        89.52711
722.03        89.49288
722.45        89.33877
722.87        89.14159
723.29        89.00826
723.71        88.82156
724.13        89.06788
724.55        89.36534
724.97        89.77501
725.39         90.0488
725.81        90.12035
726.23        90.31342
726.65        90.42842
727.07        90.24484
727.49        90.69044
727.91         90.9257
728.33        91.17393
728.75        91.30175
729.17        91.29182
729.59        91.18014
730.01        91.00928
730.43        90.87372
730.85        90.80196
731.27        90.76283
731.69        90.77538
732.10        90.86912
732.52        91.02273
732.94        91.29346
733.36        91.60842
733.78        91.70432
734.20         91.5339
734.62        91.72479
735.04        91.14989
735.46        91.43233
735.88        92.05266
736.30        92.11362
736.72        91.68808
737.13        91.62032
737.55         91.9164
737.97        92.38361
738.39        92.81357
738.81        92.44193
739.23        91.51856
739.65        91.61326
740.06        92.57033
740.48        92.97862
740.90        92.76299
741.32        92.66343
741.74        92.93164
742.16        93.04348
742.57        93.06138
742.99        93.09245
743.41        93.13686
743.83        93.09538
744.25        93.00163
744.67        93.00144
745.08        93.12965
745.50        93.25434
745.92        93.38644
746.34        93.60454
746.75        93.83566
747.17        93.92721
747.59        93.86323
748.01         93.6439
748.42        93.39489
748.84        93.40538
749.26        93.66964
749.68        93.92086
750.09        94.07212
750.51        94.15697
750.93        94.17124
751.35         94.1833
751.76        94.23255
752.18        94.23787
752.60        94.18888
753.01         94.2934
753.43        94.57128
753.85        94.42893
754.27        94.28852
754.68        94.89813
755.10        94.77898
755.52        94.58217
755.93        95.00037
756.35        95.24091
756.77        95.50192
757.18        95.65315
757.60        95.75105
758.02         95.4314
758.43        94.77541
758.85        95.55196
759.26        95.82265
759.68        95.65502
760.10         95.6582
760.51        95.07356
760.93        95.98196
761.34        95.62138
761.76        96.68918
762.18        96.76974
762.59        96.58672
763.01        96.33492
763.42        96.20602
763.84         96.2355
764.26        96.44413
764.67        96.56023
765.09        96.60595
765.50        96.90772
765.92        97.38384
766.33         97.2399
766.75        96.74313
767.16         96.6119
767.58        96.58675
768.00        96.64479
768.41           96.71
768.83        96.89153
769.24        97.09653
769.66        97.27225
770.07        97.39497
770.49        97.06363
770.90        97.13658
771.32        97.15867
771.73        97.36039
772.15        97.46426
772.56        97.47926
772.97        97.60198
773.39        97.76127
773.80        97.82935
774.22        97.63896
774.63        97.79837
775.05        98.15191
775.46        98.30686
775.88        98.19143
776.29        98.09108
776.70        98.07024
777.12        98.14029
777.53        98.33847
777.95        98.61157
778.36        98.91404
778.77        99.09758
779.19        99.12125
779.60        99.17448
780.02        99.22094
780.43        98.92728
780.84        98.43854
781.26        98.44362
781.67        98.98754
782.09        99.32775
782.50        99.19378
782.91        99.90427
783.33        98.96131
783.74        98.97525
784.15        99.19091
784.57        99.40623
784.98        99.61266
785.39        99.57259
785.81        99.97192
786.22         100.215
786.63        100.4469
787.04        100.5933
787.46        100.6576
787.87        100.6299
788.28        100.5651
788.70        100.5367
789.11        100.5357
789.52        100.6182
789.93        100.7555
790.35        100.7396
790.76        100.6534
791.17        100.8046
791.58        101.1404
792.00        101.3048
792.41        101.2953
792.82        101.2514
793.23        101.2365
793.65        101.3704
794.06        101.7396
794.47        102.1813
794.88        102.4436
795.29        103.1884
795.71        102.6136
796.12        102.2451
796.53        101.7095
796.94        101.4808
797.35        101.5795
797.76        101.5502
798.18        101.4254
798.59         101.578
799.00        102.0196
799.41         102.233
799.82        102.6423
800.23        102.7608
800.64        102.7141
801.06        102.4636
801.47        102.1664
801.88        101.9816
802.29        101.9576
802.70        102.0534
803.11        102.2166
803.52        102.3355
803.93        102.3863
804.34        102.4447
804.75        102.5157
805.17        102.5218
805.58        102.7439
805.99        102.7271
806.40        102.6195
806.81        103.1052
807.22        103.9087
807.63         103.794
808.04         102.913
808.45        102.6065
808.86        102.9917
809.27        103.3037
809.68        103.4284
810.09        103.5252
810.50        103.5574
810.91        103.4906
811.32        103.3917
811.73        103.3523
812.14        103.3959
812.55        103.5533
812.96        103.7817
813.37         103.854
813.78        103.8068
814.19        103.9926
814.60        104.3295
815.01        104.4111
815.42        104.2185
815.83        103.9559
816.24        103.7239
816.65        103.6228
817.05        103.7071
817.46        103.8968
817.87        104.1417
818.28        104.2905
818.69        104.3116
819.10        104.2599
819.51        104.1654
819.92        104.1151
820.33        104.1457
820.74         104.121
821.14        104.0917
821.55        104.4025
821.96        104.9358
822.37        105.1658
822.78        105.0421
823.19         104.954
823.60        104.9145
824.00        104.6833
824.41        104.2822
824.82        104.0289
825.23        103.9832
825.64        104.0869
826.04        104.3212
826.45        104.5774
826.86        104.8308
827.27        105.0908
827.68        105.3637
828.08        105.6962
828.49        105.9932
828.90        106.2691
829.31        106.4542
829.72        106.4503
830.12        106.2783
830.53         105.915
830.94        105.4932
831.35        105.1797
831.75        105.0688
832.16        105.0637
832.57        105.1522
832.97        105.2406
833.38        105.2805
833.79        105.3216
834.20        105.3736
834.60        105.4457
835.01         105.557
835.42        105.6622
835.82         105.811
836.23        105.9786
836.64        106.1907
837.04        106.4779
837.45         106.689
837.86        106.7015
838.26         106.522
838.67        106.1757
839.08        105.8493
839.48        105.8278
839.89        106.1562
840.29        106.7281
840.70        107.3754
841.11        107.8351
841.51        108.0446
841.92        108.0417
842.33        107.8722
842.73         107.613
843.14        107.2605
843.54        106.8406
843.95         106.458
844.35         106.324
844.76        106.4562
845.17        106.8174
845.57        107.2677
845.98        107.4967
846.38        107.4547
846.79        107.1686
847.19        106.7859
847.60        106.4745
848.00        106.3367
848.41        106.2881
848.81        106.2966
849.22        106.2075
849.62        106.0415
850.03        105.8278
850.43        105.6929
850.84        105.7174
851.24        105.9942
851.65        106.3904
852.05        106.9089
852.46        107.3319
852.86        107.5755
853.27        107.7066
853.67        107.6426
854.07        107.5435
854.48        107.3701
854.88        107.1473
855.29        106.7713
855.69        106.3833
856.10        105.9075
856.50        105.4964
856.90        105.1288
857.31        104.8016
857.71        104.5801
858.12        104.3884
858.52        104.3557
858.92        104.5412
859.33         104.899
859.73        105.4558
860.13        105.9661
860.54         106.042
860.94        105.6611
861.34        104.8935
861.75         104.003
862.15        103.4713
862.55        103.3941
862.96         103.648
863.36        104.0567
863.76        104.2798
864.17        104.2034
864.57        103.9543
864.97        103.6462
865.38        103.4262
865.78        103.4061
866.18         103.502
866.58        103.6254
866.99        103.6551
867.39        103.6024
867.79          103.46
868.19        103.3283
868.60        103.2984
869.00         103.383
869.40        103.5975
869.80        103.8212
870.21        103.8469
870.61        103.7301
871.01        103.4576
871.41         103.215
871.81         103.273
872.22        103.6245
872.62        104.2209
873.02        104.8747
873.42        105.2138
873.82        105.1294
874.22         104.788
874.63        104.3551
875.03        103.9889
875.43        103.7834
875.83        103.6517
876.23        103.6921
876.63        104.0707
877.03        104.7698
877.44        105.7258
877.84        106.6233
878.24        106.8651
878.64        106.3494
879.04        105.2839
879.44        104.1092
879.84        103.4582
880.24        103.4566
880.64        103.9168
881.04         104.566
881.44        104.9257
881.84          104.84
882.24        104.4597
882.65        103.9184
883.05        103.5656
883.45        103.4552
883.85        103.4834
884.25         103.576
884.65        103.6386
885.05        103.6407
885.45        103.6294
885.85        103.6304
886.25        103.6694
886.65        103.7604
887.05        103.8947
887.45        104.0463
887.85        104.1858
888.25        104.3043
888.65        104.3945
889.04        104.5022
889.44        104.7301
889.84        105.0613
890.24         105.441
890.64        105.7458
891.04        105.7845
891.44        105.5378
891.84         105.109
892.24        104.6097
892.64        104.2111
893.04        103.9851
893.44        103.8826
893.83        103.9782
894.23        104.3123
894.63        104.8723
895.03        105.6088
895.43        106.3056
895.83        106.6108
896.23        106.4498
896.63        105.9299
897.02        105.2461
897.42        104.7717
897.82        104.5844
898.22         104.623
898.62        104.7925
899.01        104.9423
899.41        104.9929
899.81        105.0112
900.21        105.0915
900.61        105.3807
901.00        105.8684
901.40        106.4605
901.80        106.9808
902.20        107.1824
902.59        107.0272
902.99        106.6045
903.39        106.0382
903.79        105.5171
904.18        105.1329
904.58        104.8845
904.98        104.8211
905.38        105.0298
905.77        105.4779
906.17         106.123
906.57        106.8125
906.96        107.3029
907.36        107.4656
907.76        107.4023
908.15        107.1655
908.55        106.7694
908.95         106.319
909.34        105.7825
909.74        105.3953
910.14        105.4615
910.53        106.0218
910.93        106.9677
911.33        107.9563
911.72         108.378
912.12        108.0852
912.52        107.2909
912.91        106.3262
913.31         105.751
913.70         105.671
914.10        105.9279
914.49        106.3822
914.89        106.6538
915.29        106.6631
915.68        106.5214
916.08        106.3667
916.47        106.4089
916.87        106.7051
917.26        107.1255
917.66        107.5435
918.05        107.7376
918.45        107.6465
918.84        107.3789
919.24        107.0012
919.64        106.7194
920.03        106.6211
920.42        106.6489
920.82        106.7671
921.21        106.9008
921.61        107.0004
922.00        107.1228
922.40         107.278
922.79        107.6061
923.19        108.0587
923.58        108.6109
923.98        109.0879
924.37        109.2894
924.77        109.1685
925.16        108.7682
925.55        108.2726
925.95        108.0001
926.34        108.0525
926.74        108.3172
927.13        108.6159
927.52        108.5468
927.92        108.0709
928.31        107.3276
928.70        106.5755
929.10        106.1686
929.49        106.2098
929.89        106.5407
930.28        107.0991
930.67        107.5945
931.07        107.8928
931.46        108.0897
931.85        108.1782
932.24        108.2052
932.64        108.1991
933.03        108.1419
933.42        108.0563
933.82        107.9825
934.21        107.9518
934.60        107.9622
934.99        108.0443
935.39        108.2033
935.78        108.4769
936.17        108.8215
936.56        109.1413
936.96        109.2679
937.35        109.2224
937.74        109.0392
938.13        108.7903
938.53        108.5826
938.92        108.4352
939.31         108.281
939.70        108.1857
940.09        108.2611
940.49        108.4782
940.88        108.8575
941.27        109.1202
941.66        108.8386
942.05        107.9837
942.44        106.7231
942.84        105.4876
943.23        104.9604
943.62        105.3361
944.01        106.4037
944.40         107.811
944.79        108.8993
945.18        109.4008
945.57        109.4749
945.97         109.218
946.36        108.8471
946.75        108.4352
947.14        107.8957
947.53        107.3191
947.92         106.896
948.31        106.6884
948.70        106.7188
949.09        106.8555
949.48         106.841
949.87        106.6339
950.26        106.3134
950.65        106.0545
951.04        106.1452
951.43          106.63
951.82        107.3746
952.21        108.1793
952.60        108.7098
952.99        108.8401
953.38        108.6675
953.77        108.2712
954.16        107.7732
954.55        107.2527
954.94        106.7036
955.33        106.2107
955.72        105.9172
956.11        105.8603
956.50        106.0197
956.89        106.3527
957.28         106.735
957.66        107.1457
958.05        107.5905
958.44        107.9952
958.83        108.2431
959.22        108.3066
959.61        108.1261
960.00        107.9588
960.39        108.2354
960.78        109.0023
961.16        110.2092
961.55        111.2097
961.94        111.0595
962.33        109.5972
962.72        107.2097
963.11        104.7575
963.49        103.4793
963.88        103.6562
964.27        104.9619
964.66        106.7617
965.04        107.9097
965.43         107.913
965.82        107.1623
966.21        106.2001
966.60        105.8633
966.98        106.3901
967.37        107.4419
967.76         108.624
968.15        109.1854
968.53        108.9127
968.92        108.0657
969.31        107.0818
969.69        106.5698
970.08        106.6724
970.47        107.1797
970.86        107.9312
971.24        108.6648
971.63        109.1818
972.02        109.6107
972.40        109.8799
972.79        109.8086
973.17        109.4622
973.56        108.7736
973.95        108.0451
974.33        107.8067
974.72        108.1551
975.11        109.0038
975.49        109.9388
975.88        110.2203
976.26        109.7209
976.65        108.5893
977.04          107.35
977.42        106.8837
977.81        107.3575
978.19        108.5503
978.58        110.0977
978.96        111.3722
979.35        112.0474
979.74        112.3625
980.12        112.4691
980.51        112.3572
980.89        112.2505
981.28        112.0029
981.66        111.8624
982.05        112.2171
982.43        113.1135
982.82        114.2836
983.20        115.4703
983.59        116.0823
983.97        116.0649
984.35        115.5859
984.74        114.5555
985.12        112.9506
985.51          110.95
985.89        108.6739
986.28        106.8221
986.66        106.3722
987.04        107.4098
987.43        109.6328
987.81         112.192
988.20        113.3979
988.58        112.8732
988.96        111.0692
989.35         108.827
989.73         107.621
990.12        107.8039
990.50        109.0486
990.88        110.9554
991.27        112.5329
991.65        113.2791
992.03        113.4316
992.42        113.0867
992.80        112.4176
993.18        111.4573
993.56        110.0401
993.95        108.3163
994.33         107.124
994.71        106.8467
995.10         107.339
995.48         108.112
995.86        108.6572
996.24        108.8977
996.63        108.8613
997.01        108.7587
997.39        108.7064
997.77        108.7506
998.15        108.8349
998.54        108.8376
998.92        108.5733
999.30        108.0565
999.68        107.3925
1000.06        106.8628
1000.45         106.904
1000.83         107.708
1001.21        108.9871
1001.59        110.4106
1001.97        111.5388
1002.35        112.2435
1002.73        112.6392
1003.12        112.5899
1003.50        111.9483
1003.88        110.7796
1004.26        109.2098
1004.64         107.713
1005.02        106.8358
1005.40         106.597
1005.78        106.8794
1006.16        107.2642
1006.54         106.979
1006.92        105.8619
1007.30         104.203
1007.69        102.5528
1008.07        101.7318
1008.45        102.0435
1008.83        103.1957
1009.21        104.7905
1009.59        106.3285
1009.97        107.6544
1010.35        108.8743
1010.73        110.0399
1011.11        111.1067
1011.49        111.9467
1011.86        112.5602
1012.24        112.5943
1012.62         111.905
1013.00        110.6206
1013.38        108.9091
1013.76         107.483
1014.14        107.5075
1014.52        109.2607
1014.90        112.4585
1015.28        116.2607
1015.66        118.8649
1016.04        119.5343
1016.41        118.8066
1016.79         117.097
1017.17        115.4939
1017.55        114.3429
1017.93        113.2931
1018.31        112.5085
1018.69        112.2482
1019.06        112.5933
1019.44        113.6268
1019.82         114.781
1020.20        114.7364
1020.58        113.2353
1020.95        110.6754
1021.33        108.3286
1021.71        107.7091
1022.09        108.9726
1022.46        111.6195
1022.84        114.7171
1023.22        116.4835
1023.60        116.2534
1023.97        114.2653
1024.35        111.2619
1024.73        109.1525
