SpectraSmart Spectrum 2.9.0.0
--------- Device Information -----------
Spectrum Name :  反射率_0
Saving Time :  2024/04/27 22:27:55
Spectro-Module Model Name : SE2030-DUVN
Spectro-Module Serial Number : OS361AC55029948
Wavelength Start : 200
Wavelength End : 1025
Wavelength Unit : Wavelength(nm)
Spectrum Unit : Reflectance(%)
-----------Spectrum Setting ------------
Integration Time : 20ms
Average : 10
Boxcar : 0
Background removal :  enabled
linearity correction :  enabled
SC :  disabled
Intensity correction :  disabled
DWT denoise :  enabled
savitzky-golay :  disabled
FFT :  disabled
Running average :  disabled
Kalman :  disabled
High pass :  disabled
---------------BEGIN--------------------
Wavelength(nm)             Reflectance(%)
200.29               0
200.75       -65.96432
201.21       -18.01594
201.67        20.35586
202.13        32.15069
202.58        26.40173
203.04        12.19534
203.50      -0.5033973
203.96        1.390631
204.42        16.59535
204.88        36.66967
205.34        54.08543
205.80        63.28477
206.26        64.17773
206.72        57.28419
207.18        41.90873
207.64        28.16262
208.10         27.2935
208.55        34.65617
209.01        39.39208
209.47         36.5461
209.93        23.64607
210.39       -11.48802
210.85       -117.2293
211.31       -239.2441
211.77       -80.83334
212.23        18.84076
212.69        53.59135
213.14        65.02489
213.60        66.47064
214.06        61.92627
214.52        49.74908
214.98         36.2271
215.44        33.21692
215.90         35.7291
216.36        39.80484
216.81        44.02783
217.27        47.92186
217.73        52.57035
218.19        55.98146
218.65        54.03497
219.11        45.64477
219.57        31.29773
220.02        13.94487
220.48        3.857658
220.94        4.888443
221.40        13.06014
221.86        24.00782
222.32        33.23027
222.77        39.72359
223.23        44.57306
223.69        47.25765
224.15        46.89711
224.61        43.95121
225.06        38.64609
225.52        33.20385
225.98        31.73764
226.44        34.45722
226.90        38.71907
227.36        42.58152
227.81        44.70392
228.27        45.15974
228.73        44.60051
229.19        42.79576
229.65        39.41539
230.10        34.84523
230.56        29.83066
231.02        25.52872
231.48        23.51319
231.93         23.8278
232.39        25.86571
232.85        28.86967
233.31        31.75077
233.77        34.09834
234.22        36.24723
234.68        37.78941
235.14        38.37413
235.60        38.01371
236.05        36.49123
236.51         34.7424
236.97        34.77553
237.43        37.23668
237.88        41.81387
238.34         46.2576
238.80        48.13145
239.26        46.73679
239.71        41.28753
240.17        32.22309
240.63        27.91349
241.08        35.18566
241.54         47.6231
242.00        57.43592
242.46        61.75801
242.91        61.64862
243.37        56.87789
243.83        44.39204
244.28        26.41842
244.74        21.68622
245.20        32.59839
245.66        43.84484
246.11         47.5154
246.57        44.64676
247.03        36.97174
247.48        24.18277
247.94        14.37117
248.40        16.72424
248.85        25.58082
249.31        36.54099
249.77        46.80516
250.22        54.88171
250.68        61.10876
251.14        64.53603
251.59        63.98375
252.05        59.47675
252.51        49.95562
252.96        35.71819
253.42        25.63289
253.88        26.02156
254.33         33.6702
254.79        41.41471
255.25        44.33989
255.70        43.49869
256.16        41.46732
256.62        40.63178
257.07        43.30097
257.53        48.46621
257.99        53.79696
258.44        57.41019
258.90        58.13618
259.35        56.24971
259.81         53.2365
260.27        49.99057
260.72        47.53104
261.18        46.27381
261.63        45.58907
262.09        45.20015
262.55        44.50834
263.00        43.41141
263.46        42.22153
263.91        41.19247
264.37        40.92728
264.83        41.32534
265.28        42.06151
265.74        42.68202
266.19        42.46369
266.65        41.41801
267.11        39.77819
267.56        37.97655
268.02        36.77394
268.47        36.30905
268.93        36.36255
269.38         36.5942
269.84        36.49163
270.30        35.91378
270.75        35.03831
271.21        34.05944
271.66        33.22342
272.12        32.62015
272.57        32.10564
273.03        31.63226
273.48        31.07096
273.94        30.43672
274.39        29.76322
274.85        29.10133
275.31          28.439
275.76        27.77254
276.22        27.12228
276.67        26.50192
277.13        26.01431
277.58        25.62412
278.04        25.34631
278.49        25.05818
278.95        24.67284
279.40        24.14251
279.86        23.56525
280.31        23.01044
280.77        22.68383
281.22        22.57136
281.68        22.62172
282.13        22.71278
282.59        22.71283
283.04        22.57701
283.50        22.36061
283.95        22.09953
284.41        21.87638
284.86         21.7084
285.32        21.59312
285.77        21.50237
286.22        21.42405
286.68        21.36869
287.13        21.31437
287.59        21.31148
288.04        21.36345
288.50        21.49008
288.95        21.65555
289.41        21.82163
289.86        21.89465
290.32        21.87926
290.77        21.79708
291.22        21.72451
291.68        21.77289
292.13        21.95814
292.59        22.25981
293.04         22.6168
293.50        22.95285
293.95        23.24219
294.40        23.52772
294.86        23.84783
295.31        24.25352
295.77        24.76504
296.22        25.34093
296.68         25.9785
297.13        26.65138
297.58        27.34007
298.04        28.03886
298.49        28.69909
298.95        29.26463
299.40        29.73059
299.85        30.11671
300.31         30.5046
300.76        30.98485
301.21        31.58319
301.67        32.27113
302.12        32.95104
302.58        33.51652
303.03        33.92833
303.48        34.22996
303.94        34.51683
304.39        34.88539
304.84        35.36679
305.30        35.92301
305.75        36.44477
306.20        36.81057
306.66         37.0091
307.11        37.05845
307.57        37.06507
308.02        37.12433
308.47         37.2775
308.93        37.48841
309.38        37.67517
309.83        37.74379
310.29        37.68509
310.74          37.523
311.19        37.32211
311.65        37.17783
312.10        37.09594
312.55        37.04862
313.00        37.00253
313.46        36.90866
313.91        36.74653
314.36        36.54191
314.82         36.2913
315.27        35.98278
315.72        35.63103
316.18        35.25439
316.63        34.89206
317.08        34.62789
317.53        34.47515
317.99        34.40132
318.44        34.36628
318.89        34.28592
319.35        34.13222
319.80        33.92954
320.25        33.68269
320.70        33.40848
321.16        33.11229
321.61        32.79249
322.06        32.47426
322.51        32.20531
322.97        31.99035
323.42        31.83457
323.87        31.68587
324.32        31.46121
324.78         31.1397
325.23        30.75023
325.68        30.35226
326.13        30.05303
326.59        29.86559
327.04        29.77588
327.49        29.70459
327.94        29.53027
328.39        29.21914
328.85        28.80262
329.30        28.35021
329.75        27.97163
330.20        27.70896
330.66        27.52059
331.11        27.38486
331.56        27.21574
332.01        26.98677
332.46         26.7255
332.92        26.45156
333.37        26.22303
333.82        26.05103
334.27        25.91664
334.72        25.80874
335.17        25.71311
335.63        25.61385
336.08        25.52955
336.53        25.44194
336.98        25.33157
337.43        25.19693
337.88        25.04368
338.34        24.88805
338.79        24.76227
339.24        24.67508
339.69        24.61611
340.14        24.57314
340.59         24.5272
341.05        24.46744
341.50        24.39958
341.95        24.31119
342.40        24.19169
342.85        24.03905
343.30         23.8541
343.75        23.64886
344.20        23.44314
344.66        23.25347
345.11        23.08554
345.56        22.93612
346.01        22.79376
346.46        22.65883
346.91        22.52983
347.36        22.44232
347.81        22.44801
348.26        22.54566
348.72        22.71448
349.17        22.87038
349.62        22.88055
350.07        22.71905
350.52        22.42007
350.97        22.09478
351.42        21.92537
351.87        21.94809
352.32        22.10307
352.77        22.26962
353.22        22.26179
353.67        22.04136
354.13        21.68944
354.58        21.28354
355.03        20.99624
355.48        20.87931
355.93        20.88453
356.38        20.94949
356.83        20.97724
357.28        20.93742
357.73        20.86127
358.18        20.77978
358.63        20.73837
359.08        20.74226
359.53        20.76037
359.98        20.76227
360.43        20.70949
360.88        20.59109
361.33        20.41973
361.78        20.19995
362.23        19.97532
362.68        19.76928
363.13        19.51388
363.58        19.20681
364.03        19.21444
364.48        18.93928
364.93         18.8551
365.38        18.78305
365.83         18.7363
366.28        18.70061
366.73        18.67766
367.18        18.63482
367.63         18.5061
368.08        18.28714
368.53        18.00123
368.98        17.70819
369.43        17.50476
369.88         17.4183
370.33        17.42455
370.78        17.47761
371.23        17.50151
371.68        17.46461
372.13        17.37434
372.58        17.25749
373.03        17.15807
373.48        17.08862
373.93        17.04565
374.38        16.97415
374.83        16.79029
375.28        16.49157
375.72        16.10069
376.17        15.75945
376.62        15.64733
377.07        15.78513
377.52        16.09716
377.97        16.42503
378.42        16.52076
378.87        16.33297
379.32        15.95493
379.77        15.50318
380.22        15.15445
380.67        14.96167
381.11        14.86538
381.56        14.84647
382.01        14.87274
382.46        14.92021
382.91        15.00714
383.36        15.07853
383.81         15.0425
384.26        14.88689
384.71        14.62954
385.15         14.3498
385.60        14.20994
386.05        14.23141
386.50        14.37296
386.95         14.5432
387.40        14.59503
387.85        14.50374
388.29        14.31937
388.74        14.14007
389.19        14.07089
389.64        14.12622
390.09        14.24721
390.54        14.38837
390.98        14.47731
391.43        14.49331
391.88        14.47143
392.33        14.38781
392.78        14.22896
393.23        14.01901
393.67        13.70837
394.12        13.40655
394.57        13.42376
395.02         13.5364
395.47        13.67956
395.91        13.73831
396.36        13.79138
396.81        13.81816
397.26        13.74846
397.71        13.60946
398.15        13.49509
398.60        13.43737
399.05        13.35405
399.50        13.27459
399.95        13.32789
400.39        13.47225
400.84        13.50877
401.29        13.42204
401.74        13.31688
402.18        13.22819
402.63          13.184
403.08        13.19369
403.53        13.20073
403.97        13.20797
404.42        13.28093
404.87        13.38084
405.32        13.42001
405.76        13.38306
406.21        13.26053
406.66        13.11374
407.11         13.1007
407.55        13.20499
408.00          13.266
408.45        13.23694
408.90        13.08584
409.34        12.86579
409.79        12.77213
410.24        12.81208
410.68        12.82942
411.13        12.82258
411.58        12.90489
412.03        13.05474
412.47        13.16427
412.92        13.20401
413.37        13.21015
413.81        13.18654
414.26        13.14959
414.71        13.10395
415.15        13.04156
415.60        12.97797
416.05         12.9468
416.49        12.95736
416.94        13.00382
417.39        13.05564
417.83        13.06323
418.28        13.01213
418.73        12.91033
419.17        12.80338
419.62        12.76821
420.07        12.82472
420.51         12.9557
420.96        13.09203
421.41        13.14322
421.85        13.08993
422.30        12.90425
422.74        12.69576
423.19        12.78493
423.64        13.13233
424.08        13.36443
424.53        13.37353
424.98        13.37393
425.42        13.35863
425.87        13.09868
426.31        12.71354
426.76        12.66278
427.21          12.899
427.65        12.93763
428.10         12.7813
428.54        12.76276
428.99         12.8756
429.44        13.05272
429.88        13.19574
430.33        12.99391
430.77        12.58921
431.22        12.53988
431.66        12.83147
432.11        13.03999
432.56        13.09504
433.00         13.1165
433.45        13.00638
433.89        12.72344
434.34        12.52718
434.78        11.98177
435.23        12.58754
435.67         13.1009
436.12        13.33192
436.57        13.42908
437.01        13.30342
437.46        13.22801
437.90         13.2821
438.35        13.38298
438.79         13.1107
439.24         13.0069
439.68        12.96739
440.13         12.9562
440.57        12.95276
441.02        13.03918
441.46        13.17239
441.91        13.05363
442.35        12.79206
442.80        12.95458
443.24        13.42542
443.69        13.44395
444.13        13.02958
444.58         12.8357
445.02        12.86979
445.47        12.79812
445.91        12.62994
446.36        12.55813
446.80        12.58759
447.24        12.65809
447.69         12.7562
448.13        12.89579
448.58        13.04487
449.02        13.13708
449.47        13.16801
449.91        13.19465
450.36        13.22085
450.80        13.20038
451.25        13.15403
451.69        13.13904
452.13        13.15786
452.58        13.18406
453.02        13.19278
453.47        13.15064
453.91        13.05138
454.36        12.93335
454.80         12.8045
455.24        12.66371
455.69        12.55349
456.13        12.48455
456.58        12.47423
457.02        12.59374
457.46        12.76191
457.91        12.75188
458.35         12.6294
458.79        12.57396
459.24        12.60854
459.68        12.61108
460.13        12.58548
460.57        12.51917
461.01        12.47117
461.46        12.45381
461.90        12.40917
462.34        12.38123
462.79        12.56016
463.23        12.60624
463.68        12.57522
464.12        12.53038
464.56        12.48768
465.01        12.48527
465.45        12.48213
465.89        12.41485
466.34        12.32828
466.78        12.27886
467.22        12.25926
467.67         12.5142
468.11        12.47772
468.55        12.46886
468.99        12.35296
469.44         12.3061
469.88        12.33515
470.32        12.33777
470.77        12.32178
471.21        12.33871
471.65        12.39143
472.10        12.46918
472.54        12.53787
472.98        12.56148
473.42        12.53849
473.87        12.44769
474.31         12.3399
474.75        12.41016
475.20        12.62541
475.64        12.72709
476.08         12.6921
476.52        12.73239
476.97        12.85648
477.41        12.81817
477.85        12.75318
478.29        12.85533
478.74        12.80797
479.18        12.75316
479.62        13.00639
480.06        13.08086
480.50        13.10632
480.95        13.07998
481.39        13.01145
481.83        13.19793
482.27        13.25128
482.72        13.27202
483.16        13.51766
483.60        13.56358
484.04        13.49743
484.48        13.40573
484.93        13.48159
485.37        13.43472
485.81        13.76882
486.25         14.4792
486.69        13.89554
487.14        13.57525
487.58        14.67644
488.02        14.37685
488.46        14.35804
488.90        14.60012
489.34        14.05432
489.79        13.94572
490.23        14.39179
490.67        14.70515
491.11        14.94353
491.55        14.99957
491.99        14.94521
492.43        15.04761
492.88        15.31893
493.32        15.55163
493.76        15.70617
494.20        15.87022
494.64        16.05173
495.08        16.17629
495.52        16.26415
495.96        16.48927
496.41        16.84829
496.85        16.88202
497.29         16.6943
497.73        16.90117
498.17        17.42811
498.61        17.69837
499.05        17.64391
499.49        17.60251
499.93        17.63735
500.37        17.68393
500.82        17.75052
501.26         17.8918
501.70        18.11884
502.14        18.04797
502.58        18.31186
503.02        18.41306
503.46        18.46178
503.90        18.48928
504.34        18.50055
504.78        18.56327
505.22         18.6778
505.66        18.79137
506.10        18.89888
506.54        19.04486
506.98        19.22615
507.42        19.33361
507.86        19.49874
508.30        19.56926
508.74        19.58736
509.18        19.56206
509.62        19.51816
510.06         19.4946
510.50        19.50378
510.94         19.5351
511.38        19.59102
511.82        19.67335
512.26        19.77497
512.70        19.89656
513.14        20.00662
513.58        20.04523
514.02        20.00336
514.46        19.91243
514.90        19.82219
515.34        19.74527
515.78        19.81508
516.22        19.91662
516.66        20.04768
517.10        20.14588
517.54        20.19272
517.98         20.2037
518.42        20.19136
518.86        20.17971
519.30        20.17565
519.74        20.16756
520.18        20.15255
520.62        20.12792
521.06        20.09477
521.50         20.0622
521.93        20.02974
522.37        19.98551
522.81        19.93295
523.25        19.87043
523.69        19.81726
524.13        19.80429
524.57         19.8314
525.01        19.88601
525.45        19.92736
525.89        19.89088
526.32        19.76371
526.76        19.57762
527.20        19.37627
527.64        19.23338
528.08        19.16816
528.52        19.15363
528.96        19.16859
529.40        19.17858
529.83        19.16746
530.27        19.14907
530.71        19.10653
531.15        19.01244
531.59        18.86921
532.03         18.6859
532.46        18.50446
532.90        18.40655
533.34        18.40454
533.78        18.47522
534.22        18.57265
534.66        18.62414
535.09        18.60977
535.53        18.55502
535.97          18.484
536.41        18.43838
536.85        18.43103
537.28        18.44731
537.72        18.47819
538.16        18.50783
538.60        18.53252
539.04        18.56569
539.47        18.60203
539.91        18.64307
540.35        18.68437
540.79        18.72537
541.22        18.77411
541.66        18.84543
542.10        18.94005
542.54        19.05652
542.97        19.17184
543.41        19.26089
543.85        19.31925
544.29        19.35928
544.72        19.40985
545.16        19.53131
545.60        19.72691
546.04        19.97552
546.47        20.24353
546.91        20.47172
547.35        20.64055
547.79        20.77571
548.22        20.88679
548.66        20.98598
549.10        21.09596
549.53         21.2855
549.97        21.53851
550.41        21.75567
550.84        21.92396
551.28        22.10159
551.72        22.28521
552.15        22.44046
552.59        22.57271
553.03        22.68347
553.46        22.78617
553.90        22.92126
554.34        23.09045
554.77        23.28918
555.21        23.49017
555.65        23.64936
556.08        23.73202
556.52         23.8062
556.96        23.87619
557.39        23.98383
557.83        24.11799
558.27        24.16874
558.70        24.15451
559.14        24.19459
559.57        24.28977
560.01        24.40887
560.45        24.52274
560.88        24.56734
561.32        24.58582
561.75        24.66692
562.19        24.81368
562.63        24.97803
563.06         25.1165
563.50        25.13228
563.93        25.05563
564.37         25.0829
564.80        25.21946
565.24        25.37086
565.68        25.52246
566.11        25.68382
566.55        25.85288
566.98        26.04467
567.42        26.23847
567.85        26.32682
568.29        26.35497
568.72        26.41452
569.16         26.5394
569.60        26.72625
570.03        26.98662
570.47        27.10223
570.90        27.38888
571.34        27.70933
571.77        27.88128
572.21        27.86601
572.64        28.19262
573.08        28.03344
573.51        28.23912
573.95        28.38653
574.38        28.56845
574.82        28.73615
575.25        28.62722
575.69        28.62577
576.12        28.82685
576.56        29.25792
576.99         29.0022
577.42        28.94382
577.86        29.08803
578.29        29.11114
578.73        29.00897
579.16        28.90416
579.60        28.73685
580.03        28.59001
580.47        28.46707
580.90        28.53277
581.33        28.42424
581.77        28.57614
582.20        28.04073
582.64        28.10986
583.07        27.85679
583.51         27.7044
583.94        27.52649
584.37        27.54309
584.81        27.37308
585.24         27.3203
585.68        27.32366
586.11        27.09635
586.54        26.93298
586.98        26.93241
587.41        27.08507
587.85        26.47759
588.28        26.45811
588.71        26.36265
589.15        26.60936
589.58        26.15788
590.01        26.64616
590.45        26.65374
590.88         26.0473
591.31        25.99912
591.75        26.28366
592.18        26.40068
592.61        26.36413
593.05        26.25949
593.48        26.67241
593.91        26.35344
594.35        26.45239
594.78        26.71752
595.21        26.93743
595.65        27.06017
596.08        26.93016
596.51          27.332
596.94        27.34849
597.38        27.66923
597.81        28.04794
598.24        28.11515
598.68          28.648
599.11        28.97074
599.54        29.27898
599.97        29.37633
600.41        30.04098
600.84        30.37232
601.27        30.58456
601.70        30.90668
602.14        31.06734
602.57        31.65401
603.00        32.18316
603.43        32.65071
603.87        33.13657
604.30        33.38044
604.73        33.86864
605.16        34.57972
605.60        34.86937
606.03        35.35985
606.46        35.99544
606.89        36.20606
607.32        36.48466
607.76        36.94721
608.19        37.20417
608.62        37.57681
609.05        37.89772
609.48        38.39676
609.92        38.50846
610.35        38.88596
610.78        39.33563
611.21        39.35796
611.64        40.01987
612.07        40.29625
612.50          40.502
612.94        40.77176
613.37        41.15439
613.80        41.22768
614.23        41.54698
614.66        41.79766
615.09        42.10802
615.52        42.40957
615.96        42.73384
616.39        42.72541
616.82        43.13689
617.25        43.42724
617.68        43.72329
618.11        43.80471
618.54        43.73352
618.97         44.0728
619.40        44.76432
619.84        44.80051
620.27        45.04916
620.70        44.94802
621.13        44.77806
621.56        45.18886
621.99        45.17385
622.42        45.18279
622.85        45.31683
623.28        45.65096
623.71        45.81284
624.14         45.6342
624.57        45.42548
625.00        45.63667
625.43        45.35846
625.86        45.29966
626.29        45.09382
626.72        45.35394
627.15        44.88879
627.58        44.79229
628.01        44.78772
628.44        44.33478
628.87        44.04913
629.30        44.09349
629.73        43.54186
630.16        42.83915
630.59        42.81671
631.02        42.58512
631.45        42.39707
631.88        42.12513
632.31        41.77157
632.74        41.15607
633.17        40.73928
633.60        40.28089
634.03        39.92112
634.46        39.62844
634.89        39.33958
635.32        38.93607
635.75        38.39463
636.18        37.78487
636.61        37.17766
637.04         36.6379
637.47        36.21573
637.89        35.97677
638.32        35.84027
638.75        35.61867
639.18        35.27897
639.61        34.90808
640.04         34.5377
640.47        34.19831
640.90        33.90812
641.33         33.6419
641.76        33.38858
642.18        33.21648
642.61        32.99306
643.04        32.83091
643.47        32.70301
643.90        32.62409
644.33        32.59574
644.76        32.61597
645.18        32.67331
645.61        32.74207
646.04        32.81953
646.47        32.91416
646.90         33.0444
647.33        33.23603
647.75        33.49395
648.18        33.81712
648.61        34.18547
649.04        34.54826
649.47        34.90293
649.89         35.2982
650.32        35.73472
650.75        36.17707
651.18        36.63229
651.61        37.13371
652.03         37.6306
652.46        38.10555
652.89        38.64738
653.32        39.03571
653.74        39.43745
654.17        40.61119
654.60        40.57254
655.03        40.85345
655.46        41.90546
655.88        42.89532
656.31        43.78925
656.74        45.91402
657.16        45.74499
657.59        46.16918
658.02        45.22663
658.45        45.35378
658.87        46.33165
659.30        46.53386
659.73        45.88852
660.15         46.5503
660.58        46.78786
661.01        47.45075
661.44        47.92139
661.86        48.05379
662.29        47.94827
662.72        48.23327
663.14        48.89566
663.57         49.2334
664.00        49.24231
664.42        49.39302
664.85        49.70493
665.27        49.93896
665.70        50.08434
666.13        50.23071
666.55        50.38448
666.98        50.52161
667.41         50.6693
667.83        50.86188
668.26        51.09604
668.69        51.37722
669.11        51.65377
669.54        51.84135
669.96        51.93135
670.39        51.90798
670.82         51.8582
671.24        51.99071
671.67         52.2919
672.09        52.55462
672.52        52.73532
672.94        52.83887
673.37        52.88752
673.80        52.94357
674.22         53.0386
674.65        53.11584
675.07        53.19937
675.50        53.32912
675.92        53.49836
676.35        53.65153
676.77        53.78417
677.20        53.91581
677.62        54.04954
678.05        54.17225
678.47        54.28424
678.90        54.39301
679.32        54.50661
679.75        54.65282
680.17        54.83154
680.60        55.03487
681.02        55.22871
681.45        55.35844
681.87        55.42659
682.30        55.39087
682.72        55.30756
683.15        55.40245
683.57         55.6389
684.00        55.63649
684.42        55.46205
684.85        55.52834
685.27        55.84097
685.70        56.18409
686.12        56.45574
686.54        56.59991
686.97        56.58302
687.39        56.45507
687.82        56.30591
688.24        56.15523
688.66        56.31668
689.09        56.50726
689.51        56.78216
689.94        56.99924
690.36        57.13842
690.78        57.22978
691.21        57.28035
691.63        57.29262
692.06        57.28307
692.48        57.25129
692.90        57.22364
693.33        57.23618
693.75        57.29882
694.17        57.40568
694.60        57.53705
695.02        57.66694
695.44        57.77296
695.87        57.88953
696.29        58.00614
696.71        58.04597
697.14        58.02501
697.56        58.09805
697.98        58.24943
698.41        58.38468
698.83        58.48571
699.25        58.62754
699.68        58.78987
700.10         58.9534
700.52        59.09929
700.94        59.23374
701.37        59.32499
701.79        59.35601
702.21        59.31292
702.64        59.21964
703.06        59.11559
703.48        59.08133
703.90         59.1411
704.33        59.26887
704.75        59.43751
705.17        59.57959
705.59        59.67242
706.01        59.71126
706.44        59.72141
706.86        59.84681
707.28        59.92588
707.70        60.09351
708.12        60.26907
708.55        60.33211
708.97        60.28212
709.39        60.33469
709.81        60.35677
710.23        60.40165
710.66        60.42716
711.08        60.50668
711.50        60.59405
711.92        60.60983
712.34        60.54989
712.76        60.43793
713.19        60.32744
713.61        60.34777
714.03        60.50306
714.45        60.75089
714.87        61.01735
715.29        61.19063
715.71        61.24265
716.13        61.20855
716.56        61.11543
716.98        61.07858
717.40         61.1102
717.82        61.18193
718.24        61.28417
718.66        61.41166
719.08        61.54709
719.50        61.67229
719.92         61.7781
720.34         61.8624
720.76        61.91999
721.19        61.93781
721.61        61.92297
722.03        61.86825
722.45        61.78085
722.87        61.66758
723.29        61.57254
723.71        61.55585
724.13        61.62234
724.55        61.79779
724.97        62.03963
725.39        62.15147
725.81        62.08104
726.23        62.33878
726.65        62.12751
727.07        62.22628
727.49        62.39705
727.91        62.62597
728.33        62.82895
728.75        62.88565
729.17        62.77942
729.59        62.55285
730.01        62.29046
730.43        62.12635
730.85         62.0975
731.27        62.15597
731.69        62.27511
732.10        62.41437
732.52        62.53741
732.94         62.7049
733.36        62.87947
733.78         62.8989
734.20        62.73747
734.62        62.85866
735.04        62.35419
735.46        62.57553
735.88         63.1136
736.30        63.12767
736.72        62.65952
737.13        62.69354
737.55        63.17318
737.97        63.17606
738.39        62.76754
738.81          62.769
739.23        63.16386
739.65        63.34563
740.06        63.24107
740.48        63.20347
740.90        63.19665
741.32         63.1096
741.74        62.91734
742.16        62.89849
742.57        63.05723
742.99        63.36939
743.41        63.70866
743.83        63.75949
744.25        63.52911
744.67        63.30499
745.08        63.19677
745.50        63.14496
745.92        63.19269
746.34        63.40993
746.75        63.69265
747.17        63.81362
747.59        63.73852
748.01         63.5321
748.42        63.28031
748.84        63.18402
749.26        63.27406
749.68        63.31329
750.09        63.29866
750.51        63.54234
750.93        63.91502
751.35        63.89751
751.76        63.55429
752.18        63.40818
752.60        63.49851
753.01        63.53832
753.43        63.52916
753.85        63.54908
754.27        63.58552
754.68         63.7959
755.10        64.18152
755.52        63.83998
755.93        64.17834
756.35        64.06504
756.77        64.00135
757.18        64.04982
757.60        64.24169
758.02        64.57371
758.43        64.88058
758.85        64.82841
759.26        64.51155
759.68        64.07282
760.10        64.62294
760.51        63.92651
760.93        64.41129
761.34        63.74438
761.76        64.27985
762.18        64.40569
762.59        64.60858
763.01         64.5484
763.42        64.46999
763.84        64.42738
764.26        64.52915
764.67        64.60686
765.09        64.64938
765.50        64.78093
765.92        64.97023
766.33        64.61909
766.75        64.37013
767.16        64.22908
767.58        64.10831
768.00        64.39573
768.41        64.95961
768.83        64.56869
769.24        64.42719
769.66        64.57204
770.07        65.18767
770.49        65.22294
770.90        64.74941
771.32        64.70193
771.73        65.07159
772.15        65.16553
772.56         64.9747
772.97        64.91401
773.39        64.97038
773.80        64.87714
774.22         64.6822
774.63        64.79471
775.05        65.13783
775.46        65.33099
775.88        65.30893
776.29        65.31738
776.70        65.36308
777.12        65.37502
777.53        65.37297
777.95        65.34243
778.36        65.32433
778.77        65.35903
779.19        65.45865
779.60        65.66637
780.02        65.88022
780.43        65.92631
780.84        65.81802
781.26         65.6162
781.67         65.4914
782.09        65.79904
782.50        66.23258
782.91        66.64912
783.33         65.4341
783.74        65.20465
784.15        65.51575
784.57         65.7256
784.98        65.81837
785.39        65.71488
785.81        66.24566
786.22         66.2399
786.63         66.0191
787.04        66.00439
787.46        66.23954
787.87        66.41948
788.28        66.45867
788.70        66.68777
789.11        66.53941
789.52        66.39323
789.93        66.18274
790.35        66.21313
790.76         66.4612
791.17        66.51372
791.58        66.36568
792.00        66.34889
792.41        66.49155
792.82        66.49739
793.23        66.39409
793.65        66.56176
794.06        66.96922
794.47        67.07779
794.88        66.83025
795.29         67.1193
795.71        66.92928
796.12        66.79779
796.53        66.50716
796.94        66.67391
797.35        67.19264
797.76        67.24046
798.18        66.85707
798.59         66.7447
799.00          66.936
799.41        67.00906
799.82        66.93731
800.23        66.90167
800.64        66.90521
801.06        66.87589
801.47        66.86426
801.88        66.87933
802.29        66.92654
802.70        67.01783
803.11        67.11895
803.52        67.16367
803.93        67.14326
804.34        67.07085
804.75        67.02024
805.17        67.11489
805.58        67.40061
805.99        67.77789
806.40        68.13329
806.81        68.35717
807.22        68.35506
807.63        68.00834
808.04        67.46863
808.45        67.17261
808.86         67.2142
809.27        67.41068
809.68        67.63586
810.09        67.72573
810.50        67.62004
810.91        67.37759
811.32        67.10849
811.73        66.98528
812.14        67.05356
812.55        67.26263
812.96        67.52668
813.37        67.67002
813.78        67.66228
814.19        67.63005
814.60        67.59862
815.01        67.54501
815.42        67.48946
815.83        67.44279
816.24        67.45765
816.65        67.61302
817.05        67.91328
817.46        68.29344
817.87        68.64799
818.28        68.76965
818.69        68.62032
819.10         68.2559
819.51        67.80943
819.92        67.53094
820.33        67.50978
820.74        67.68054
821.14        67.93925
821.55        68.15556
821.96        68.26299
822.37        68.30118
822.78        68.30744
823.19        68.34208
823.60        68.42142
824.00        68.53383
824.41        68.58894
824.82        68.53558
825.23        68.36766
825.64        68.12236
826.04        67.90139
826.45        67.83117
826.86        67.95204
827.27        68.22115
827.68        68.55176
828.08        68.82572
828.49        68.93069
828.90        68.93459
829.31        68.87584
829.72        68.82712
830.12        68.83475
830.53        68.82725
830.94        68.81541
831.35        68.78806
831.75        68.76505
832.16        68.72863
832.57        68.69308
832.97        68.64119
833.38         68.5702
833.79        68.48556
834.20         68.4344
834.60        68.48533
835.01        68.65253
835.42        68.90514
835.82        69.17629
836.23        69.27599
836.64        69.18616
837.04        68.97866
837.45        68.70808
837.86        68.56059
838.26        68.59814
838.67        68.75957
839.08        68.99818
839.48        69.21608
839.89        69.37444
840.29        69.49465
840.70        69.59608
841.11        69.71073
841.51        69.86314
841.92        70.00163
842.33        70.10232
842.73         70.1304
843.14        70.03301
843.54        69.84896
843.95        69.64237
844.35        69.53217
844.76         69.5332
845.17        69.61808
845.57        69.70403
845.98        69.61195
846.38        69.33514
846.79        68.92513
847.19        68.50446
847.60        68.22599
848.00        68.16185
848.41        68.22434
848.81        68.41166
849.22        68.64711
849.62         68.9183
850.03         69.2141
850.43         69.4706
850.84        69.50701
851.24        69.34464
851.65        68.96958
852.05        68.58439
852.46        68.47581
852.86        68.70656
853.27        69.17365
853.67        69.63728
854.07        69.93697
854.48        69.99346
854.88        69.91585
855.29        69.64444
855.69        69.27046
856.10        68.76992
856.50        68.20535
856.90        67.68975
857.31        67.43153
857.71        67.51472
858.12        67.84707
858.52        68.29473
858.92         68.4965
859.33        68.34495
859.73        67.95469
860.13        67.46677
860.54        67.17136
860.94        67.19223
861.34        67.40283
861.75        67.64781
862.15         67.7533
862.55        67.63644
862.96        67.38499
863.36        67.05724
863.76        66.73183
864.17        66.44837
864.57        66.19849
864.97        66.01839
865.38        65.95007
865.78         66.0378
866.18        66.25471
866.58        66.51753
866.99         66.6795
867.39        66.71814
867.79        66.63195
868.19         66.4931
868.60        66.38939
869.00        66.32964
869.40        66.30662
869.80        66.28224
870.21        66.19923
870.61         66.1172
871.01        66.01984
871.41        65.92488
871.81        65.84101
872.22        65.75316
872.62        65.68254
873.02        65.66178
873.42        65.74432
873.82         65.9248
874.22        66.16411
874.63        66.41398
875.03        66.59131
875.43        66.67985
875.83        66.69981
876.23        66.64686
876.63        66.52058
877.03         66.3332
877.44        66.07821
877.84        65.82878
878.24        65.68262
878.64        65.65797
879.04        65.73103
879.44        65.82543
879.84        65.81889
880.24        65.69426
880.64        65.50053
881.04        65.29948
881.44        65.19923
881.84        65.22947
882.24        65.33217
882.65         65.4714
883.05        65.68654
883.45         65.9147
883.85        66.15988
884.25        66.32053
884.65        66.24637
885.05        65.92555
885.45        65.39443
885.85        64.83517
886.25        64.56949
886.65        64.68159
887.05        65.09142
887.45        65.57001
887.85        65.75771
888.25        65.57048
888.65        65.10334
889.04        64.56995
889.44        64.37454
889.84        64.58809
890.24        65.07751
890.64        65.59492
891.04        65.75652
891.44        65.48192
891.84        64.92073
892.24        64.29266
892.64        63.93092
893.04        63.93586
893.44        64.20842
893.83        64.65195
894.23        65.04672
894.63        65.33887
895.03        65.56821
895.43        65.76747
895.83        65.98592
896.23        66.22107
896.63        66.42668
897.02        66.53457
897.42        66.49297
897.82        66.29315
898.22        65.98466
898.62        65.64545
899.01        65.40744
899.41        65.30318
899.81        65.31677
900.21        65.42774
900.61        65.59071
901.00        65.76834
901.40        65.98549
901.80        66.19954
902.20        66.35972
902.59        66.46004
902.99        66.48073
903.39        66.45937
903.79        66.45881
904.18        66.48924
904.58        66.53805
904.98        66.56883
905.38        66.52726
905.77        66.39705
906.17        66.21131
906.57         66.0032
906.96         65.8475
907.36          65.752
907.76        65.71973
908.15        65.73385
908.55        65.69344
908.95        65.61042
909.34        65.49292
909.74        65.42986
910.14         65.4999
910.53        65.71555
910.93        66.01849
911.33        66.32969
911.72        66.52161
912.12        66.53456
912.52        66.42567
912.91        66.23204
913.31         66.0247
913.70        65.83107
914.10         65.6277
914.49        65.46597
914.89        65.38713
915.29        65.42274
915.68        65.56812
916.08        65.77115
916.47        65.93735
916.87        66.04547
917.26        66.07232
917.66        66.07635
918.05        66.12264
918.45        66.21209
918.84        66.35924
919.24        66.43588
919.64        66.31419
920.03        66.01167
920.42        65.59274
920.82        65.24099
921.21        65.22805
921.61         65.5904
922.00         66.2294
922.40        67.00118
922.79        67.70509
923.19        68.19459
923.58        68.55681
923.98        68.67424
924.37        68.44491
924.77        67.87859
925.16        66.98155
925.55        66.06081
925.95        65.65498
926.34        65.88991
926.74        66.62716
927.13         67.5045
927.52        67.81879
927.92        67.44504
928.31        66.59586
928.70        65.66629
929.10        65.26417
929.49        65.52769
929.89        66.21375
930.28        67.08704
930.67        67.63223
931.07        67.65538
931.46        67.35051
931.85        66.81439
932.24        66.22254
932.64        65.66825
933.03        65.10353
933.42        64.62475
933.82        64.39283
934.21        64.44433
934.60        64.78197
934.99        65.26941
935.39        65.63183
935.78        65.81187
936.17        65.83247
936.56        65.84523
936.96        66.10656
937.35        66.69908
937.74        67.48482
938.13         68.2029
938.53        68.50404
938.92        68.32817
939.31         67.7478
939.70        67.05342
940.09        66.74742
940.49        66.93771
940.88        67.53265
941.27        68.13403
941.66        68.13058
942.05        67.41775
942.44        66.19818
942.84        64.95585
943.23        64.41423
943.62        64.78258
944.01        65.83347
944.40        67.09102
944.79        67.71193
945.18        67.43275
945.57        66.51191
945.97        65.32903
946.36        64.52695
946.75        64.24178
947.14        64.28749
947.53        64.45879
947.92        64.42005
948.31        64.08012
948.70        63.59632
949.09        63.13537
949.48        62.91631
949.87        63.00204
950.26        63.31179
950.65        63.73254
951.04         64.1088
951.43        64.37516
951.82        64.53662
952.21        64.66598
952.60        64.88881
952.99        65.20985
953.38        65.57565
953.77        65.79151
954.16         65.5741
954.55        64.89287
954.94        63.84461
955.33        62.72966
955.72        62.04221
956.11        61.91754
956.50        62.24924
956.89        62.73925
957.28        62.83505
957.66        62.41866
958.05        61.67235
958.44        60.90298
958.83        60.59755
959.22        60.86223
959.61        61.46495
960.00        62.23799
960.39        62.93943
960.78        63.45519
961.16        63.90931
961.55        64.10147
961.94        63.78262
962.33        62.98082
962.72        61.82644
963.11        60.75298
963.49        60.40874
963.88        60.91592
964.27        62.09658
964.66        63.59582
965.04        64.74507
965.43        65.20099
965.82        65.16717
966.21        64.82696
966.60        64.49551
966.98        64.28321
967.37        64.03402
967.76        63.75336
968.15        63.46568
968.53        63.20785
968.92        63.07555
969.31        63.01234
969.69        62.85789
970.08        62.60862
970.47        62.33396
970.86        62.28635
971.24        62.91024
971.63        64.15356
972.02         65.7582
972.40        67.40755
972.79         68.5597
973.17         69.1919
973.56        69.38634
973.95        69.22305
974.33         68.8148
974.72        68.24419
975.11        67.46568
975.49        66.63198
975.88        66.04193
976.26        65.78767
976.65        65.87079
977.04        66.05687
977.42        65.88588
977.81        65.18863
978.19        64.00922
978.58        62.85356
978.96        62.52976
979.35        63.20641
979.74        64.70155
980.12        66.27568
980.51        66.52116
980.89        65.25018
981.28        62.74102
981.66        60.04444
982.05        59.14137
982.43        60.52291
982.82        63.50463
983.20        66.85696
983.59        68.54499
983.97        68.16422
984.35        66.26624
984.74        63.69737
985.12        61.95413
985.51        61.57657
985.89         62.1258
986.28        63.14013
986.66        64.07308
987.04        64.68257
987.43        65.13505
987.81        65.54959
988.20        65.97224
988.58        66.44915
988.96        66.91151
989.35        67.07506
989.73        66.65597
990.12        65.55991
990.50         63.7319
990.88        61.77932
991.27        61.07748
991.65        62.01446
992.03        64.19566
992.42        66.24201
992.80        66.70074
993.18        65.18816
993.56        61.92084
993.95        57.93989
994.33        55.87588
994.71         56.9571
995.10         59.9266
995.48         63.1291
995.86        64.74188
996.24         64.5863
996.63        63.15842
997.01        61.15831
997.39        60.08576
997.77        60.61577
998.15         62.2342
998.54        64.03746
998.92        64.87807
999.30        64.49839
999.68        63.26538
1000.06        61.89816
1000.45         61.6049
1000.83        62.77576
1001.21        64.91694
1001.59        67.17285
1001.97        68.34528
1002.35        68.16728
1002.73        66.97388
1003.12        65.34409
1003.50         64.3559
1003.88        64.49365
1004.26         65.2759
1004.64        66.25864
1005.02        66.91619
1005.40        67.10902
1005.78        67.08353
1006.16         66.7391
1006.54        65.85918
1006.92        64.52882
1007.30        62.85854
1007.69        61.39279
1008.07        60.92999
1008.45        61.68797
1008.83        63.31144
1009.21        65.27983
1009.59        66.87603
1009.97        67.85643
1010.35        68.37788
1010.73        68.25195
1011.11        67.17742
1011.49        65.27818
1011.86        62.91122
1012.24        60.61866
1012.62        59.29393
1013.00         59.1068
1013.38        59.92355
1013.76        61.49208
1014.14        63.31996
1014.52        65.16618
1014.90        67.05573
1015.28        68.88509
1015.66        70.42152
1016.04        71.48137
1016.41        72.09071
1016.79        71.94788
1017.17        71.10824
1017.55        69.71038
1017.93        67.87003
1018.31        66.14842
1018.69        65.37244
1019.06        65.75604
1019.44        67.18382
1019.82        69.04828
1020.20        69.98602
1020.58        69.51939
1020.95        68.06678
1021.33        66.32042
1021.71         65.1388
1022.09        64.65396
1022.46        64.46545
1022.84         64.4254
1023.22        64.13251
1023.60        63.42517
1023.97        62.35941
1024.35        61.09989
1024.73        59.38239
