SpectraSmart Spectrum 2.9.0.0
--------- Device Information -----------
Spectrum Name :  反射率_0
Saving Time :  2024/04/27 22:13:48
Spectro-Module Model Name : SE2030-DUVN
Spectro-Module Serial Number : OS361AC55029948
Wavelength Start : 200
Wavelength End : 1025
Wavelength Unit : Wavelength(nm)
Spectrum Unit : Reflectance(%)
-----------Spectrum Setting ------------
Integration Time : 20ms
Average : 10
Boxcar : 0
Background removal :  enabled
linearity correction :  enabled
SC :  disabled
Intensity correction :  disabled
DWT denoise :  enabled
savitzky-golay :  disabled
FFT :  disabled
Running average :  disabled
Kalman :  disabled
High pass :  disabled
---------------BEGIN--------------------
Wavelength(nm)             Reflectance(%)
200.29               0
200.75       -60.51054
201.21       -15.85478
201.67        18.98293
202.13        31.22341
202.58        28.91566
203.04        19.59418
203.50        11.09653
203.96        13.40951
204.42        25.54993
204.88        41.16616
205.34        54.63005
205.80        61.82922
206.26        62.67776
206.72        57.42934
207.18        45.18186
207.64        33.04081
208.10        30.22275
208.55        34.42203
209.01        36.52613
209.47        31.52134
209.93          15.776
210.39       -25.94273
210.85         -153.65
211.31       -317.2134
211.77       -138.8867
212.23       -16.37838
212.69        27.25142
213.14        39.71695
213.60        37.28616
214.06        23.60243
214.52       -2.925373
214.98       -21.51867
215.44       -11.11672
215.90        8.496744
216.36        24.00673
216.81        32.03492
217.27        34.58476
217.73        35.10698
218.19        33.52361
218.65        28.81028
219.11        21.16788
219.57        10.32192
220.02      -0.9121985
220.48       -3.616156
220.94        3.903096
221.40        17.14302
221.86        30.77764
222.32        39.75936
222.77        43.95996
223.23        45.40829
223.69        44.78066
224.15        42.43381
224.61         38.8676
225.06        33.76318
225.52        29.33077
225.98        29.38177
226.44        33.53299
226.90        39.06192
227.36        43.51945
227.81        45.09181
228.27        44.00084
228.73        41.04303
229.19        36.63779
229.65        31.95678
230.10        27.86852
230.56        24.52506
231.02        22.26595
231.48        21.52974
231.93        22.09788
232.39        23.80139
232.85        26.00631
233.31        27.76905
233.77         28.8782
234.22        29.68097
234.68        30.10235
235.14        30.29403
235.60        30.33666
236.05        29.94027
236.51        29.79305
236.97        31.09496
237.43        34.05769
237.88        38.49003
238.34        42.47873
238.80         44.1389
239.26        42.96436
239.71        38.11414
240.17        30.04869
240.63        26.36098
241.08        33.21366
241.54        44.83567
242.00        54.04668
242.46         58.2478
242.91        58.46306
243.37         54.3669
243.83        43.58838
244.28        29.53592
244.74         28.9572
245.20         41.6118
245.66        51.48962
246.11        50.99611
246.57          40.559
247.03        19.40713
247.48        -13.3999
247.94        -37.4314
248.40       -29.72242
248.85       -2.739477
249.31        27.44601
249.77        48.51386
250.22        59.49338
250.68         64.7925
251.14         66.1402
251.59        64.49864
252.05        60.20518
252.51        51.54283
252.96        38.29271
253.42         27.8839
253.88        26.20506
254.33        31.43089
254.79         37.4818
255.25         39.6874
255.70        38.80522
256.16        37.09652
256.62        36.47797
257.07        38.83738
257.53        43.28865
257.99        47.78054
258.44          50.838
258.90        51.57077
259.35        50.17186
259.81        47.88531
260.27        45.26217
260.72        42.93904
261.18        41.35744
261.63        40.10446
262.09        39.22498
262.55        38.50419
263.00        37.82033
263.46        37.30236
263.91        36.87994
264.37        36.69455
264.83        36.64802
265.28        36.63712
265.74        36.55598
266.19        36.14555
266.65        35.44685
267.11        34.52792
267.56        33.51816
268.02        32.70902
268.47         32.1401
268.93        31.74208
269.38        31.44952
269.84        31.17188
270.30        30.85579
270.75        30.52113
271.21        30.11345
271.66        29.51254
272.12         28.7306
272.57        27.77525
273.03        26.79162
273.48        25.93993
273.94        25.31327
274.39        24.85193
274.85         24.5023
275.31        24.12295
275.76        23.66788
276.22        23.18846
276.67        22.73201
277.13        22.43003
277.58        22.25444
278.04        22.19397
278.49        22.08776
278.95         21.7941
279.40        21.26791
279.86        20.62803
280.31        20.01324
280.77        19.71774
281.22        19.74262
281.68        20.00112
282.13        20.30299
282.59        20.41315
283.04        20.27727
283.50        19.98224
283.95        19.63263
284.41        19.41116
284.86        19.34837
285.32        19.39118
285.77        19.44659
286.22        19.40755
286.68        19.26795
287.13        19.04933
287.59        18.84098
288.04        18.70667
288.50        18.68958
288.95        18.74322
289.41        18.83395
289.86        18.87805
290.32        18.87577
290.77        18.85212
291.22        18.85965
291.68        18.97193
292.13        19.19494
292.59        19.50627
293.04        19.86396
293.50        20.22489
293.95        20.56406
294.40        20.90561
294.86        21.25187
295.31        21.60063
295.77        21.96386
296.22        22.32498
296.68        22.71814
297.13        23.17609
297.58        23.70199
298.04        24.27642
298.49        24.84136
298.95        25.31821
299.40        25.69119
299.85        25.97929
300.31        26.25736
300.76        26.60881
301.21        27.05536
301.67        27.56498
302.12        28.04153
302.58        28.37371
303.03        28.53328
303.48          28.575
303.94        28.60605
304.39        28.74434
304.84        29.02896
305.30        29.41966
305.75        29.81823
306.20        30.10925
306.66        30.27322
307.11        30.31877
307.57         30.3311
308.02        30.38209
308.47        30.50233
308.93        30.66091
309.38        30.77455
309.83        30.74096
310.29         30.5551
310.74        30.24603
311.19        29.91057
311.65        29.69683
312.10        29.62289
312.55        29.64973
313.00         29.6992
313.46        29.64964
313.91        29.46742
314.36        29.19639
314.82        28.88029
315.27        28.58518
315.72        28.33815
316.18         28.1233
316.63        27.92769
317.08        27.75375
317.53        27.59499
317.99        27.44967
318.44        27.30969
318.89        27.14288
319.35        26.94329
319.80        26.72096
320.25        26.48447
320.70        26.25612
321.16        26.03692
321.61        25.82357
322.06        25.61985
322.51        25.43399
322.97        25.26251
323.42        25.11826
323.87        24.96514
324.32        24.75001
324.78        24.46247
325.23        24.11597
325.68        23.77451
326.13        23.55006
326.59        23.45385
327.04        23.47287
327.49        23.49999
327.94        23.36463
328.39        23.02505
328.85        22.52558
329.30        21.98419
329.75         21.6067
330.20        21.46011
330.66        21.48203
331.11        21.57929
331.56        21.55347
332.01        21.34788
332.46        21.01661
332.92        20.65139
333.37        20.42914
333.82        20.39293
334.27        20.47952
334.72        20.59686
335.17        20.59938
335.63        20.43981
336.08        20.18432
336.53        19.87851
336.98        19.60559
337.43        19.40334
337.88        19.24652
338.34        19.14511
338.79        19.11626
339.24        19.15276
339.69        19.24899
340.14        19.35235
340.59         19.3744
341.05        19.29171
341.50         19.1275
341.95        18.91925
342.40        18.74037
342.85        18.61419
343.30        18.52203
343.75        18.44583
344.20        18.35537
344.66        18.24615
345.11        18.12962
345.56        18.01926
346.01        17.92967
346.46        17.86335
346.91        17.81029
347.36        17.76595
347.81        17.72272
348.26        17.68048
348.72        17.64849
349.17        17.61727
349.62        17.57027
350.07        17.50289
350.52        17.40425
350.97         17.3198
351.42        17.32337
351.87        17.41805
352.32        17.58313
352.77        17.70951
353.22        17.63064
353.67        17.32827
354.13        16.87523
354.58        16.40264
355.03        16.17085
355.48        16.23942
355.93        16.53069
356.38        16.89239
356.83        17.08514
357.28        17.04456
357.73        16.83923
358.18        16.57496
358.63        16.41826
359.08        16.40667
359.53        16.47625
359.98        16.54412
360.43        16.48677
360.88        16.28086
361.33         15.9825
361.78        15.65138
362.23        15.41482
362.68        15.31583
363.13        15.24405
363.58         15.1627
364.03        15.40572
364.48        15.31845
364.93        15.40279
365.38        15.45116
365.83        15.44766
366.28        15.37976
366.73        15.26191
367.18        15.09741
367.63        14.88066
368.08        14.62799
368.53        14.35094
368.98        14.10171
369.43        13.95898
369.88        13.93833
370.33        14.01941
370.78        14.13865
371.23        14.19029
371.68        14.13775
372.13        13.99552
372.58         13.8116
373.03        13.66872
373.48        13.59266
373.93        13.57176
374.38        13.54519
374.83        13.41683
375.28        13.17912
375.72        12.86058
376.17        12.59512
376.62        12.55107
377.07        12.74468
377.52        13.09521
377.97        13.45609
378.42        13.60023
378.87        13.47776
379.32        13.17726
379.77         12.7879
380.22        12.44488
380.67        12.19772
381.11        12.00172
381.56        11.88223
382.01          11.879
382.46        11.98296
382.91        12.18859
383.36        12.39182
383.81        12.42437
384.26         12.2559
384.71        11.92883
385.15        11.56073
385.60        11.37179
386.05        11.40235
386.50        11.59556
386.95        11.83585
387.40        11.94008
387.85        11.87222
388.29        11.69147
388.74         11.5188
389.19         11.4958
389.64         11.6419
390.09         11.8906
390.54        12.14907
390.98        12.27168
391.43        12.22592
391.88        12.07053
392.33        11.85893
392.78        11.68479
393.23        11.58047
393.67        11.46574
394.12        11.35717
394.57        11.40771
395.02        11.40773
395.47        11.34176
395.91        11.18511
396.36        11.11678
396.81         11.1503
397.26        11.18845
397.71        11.20549
398.15        11.20898
398.60        11.20414
399.05        11.14582
399.50         11.0676
399.95        11.08791
400.39        11.17735
400.84        11.16242
401.29        11.04087
401.74        10.92011
402.18        10.83457
402.63        10.80838
403.08        10.83525
403.53        10.84224
403.97        10.82663
404.42        10.84885
404.87        10.89679
405.32        10.93002
405.76        10.93931
406.21        10.90273
406.66         10.8449
407.11        10.85684
407.55        10.91605
408.00          10.904
408.45        10.80293
408.90        10.62258
409.34        10.41986
409.79        10.34292
410.24        10.39481
410.68        10.44506
411.13        10.48609
411.58        10.61022
412.03        10.78657
412.47        10.90229
412.92        10.92539
413.37        10.89094
413.81        10.81625
414.26        10.73662
414.71        10.66325
415.15        10.58707
415.60        10.51606
416.05         10.4674
416.49        10.44708
416.94        10.45303
417.39        10.47277
417.83        10.48405
418.28        10.47433
418.73         10.4416
419.17        10.39655
419.62        10.36097
420.07        10.34484
420.51        10.35111
420.96        10.35282
421.41        10.32206
421.85        10.25398
422.30        10.11157
422.74        9.968618
423.19        10.05897
423.64        10.34558
424.08         10.5442
424.53        10.55822
424.98        10.54183
425.42         10.4875
425.87        10.21582
426.31         9.84973
426.76        9.796591
427.21        10.02687
427.65        10.15343
428.10        10.12618
428.54        10.13326
428.99         10.1597
429.44        10.17828
429.88        10.16173
430.33        9.953456
430.77        9.676227
431.22         9.72543
431.66        10.05946
432.11        10.29181
432.56         10.3463
433.00        10.33405
433.45        10.19235
433.89        9.917108
434.34        9.727384
434.78        9.275218
435.23        9.725069
435.67        10.11992
436.12        10.31135
436.57        10.41422
437.01        10.34701
437.46        10.29684
437.90        10.32162
438.35        10.36241
438.79        10.10511
439.24        9.989729
439.68         9.94016
440.13        9.923782
440.57        9.921259
441.02         9.98877
441.46        10.09119
441.91        10.00145
442.35        9.802656
442.80        9.926187
443.24         10.2837
443.69        10.29313
444.13        9.970613
444.58        9.820339
445.02        9.846814
445.47        9.792365
445.91        9.664701
446.36        9.615311
446.80        9.646971
447.24        9.715836
447.69        9.799088
448.13        9.890596
448.58        9.964605
449.02        9.977921
449.47        9.951463
449.91        9.967507
450.36        10.03343
450.80        10.09922
451.25          10.151
451.69        10.18737
452.13        10.19814
452.58        10.17741
453.02        10.12353
453.47        10.03932
453.91        9.930555
454.36         9.81966
454.80        9.710542
455.24         9.60003
455.69        9.518534
456.13        9.475689
456.58        9.482805
457.02        9.589143
457.46         9.73101
457.91        9.733717
458.35        9.646246
458.79        9.603537
459.24         9.62499
459.68        9.620149
460.13        9.595296
460.57        9.544216
461.01        9.514497
461.46         9.51363
461.90        9.501163
462.34        9.516233
462.79        9.701692
463.23        9.790063
463.68        9.809182
464.12        9.789187
464.56         9.73824
465.01        9.696597
465.45        9.637638
465.89        9.521565
466.34        9.390746
466.78         9.28872
467.22        9.223602
467.67        9.401167
468.11        9.400684
468.55        9.455034
468.99        9.443192
469.44        9.468278
469.88        9.525526
470.32        9.541115
470.77        9.527369
471.21        9.536485
471.65        9.576294
472.10        9.635082
472.54        9.684843
472.98        9.695412
473.42        9.665638
473.87         9.58086
474.31        9.487058
474.75        9.544729
475.20        9.728148
475.64        9.834541
476.08        9.829405
476.52        9.852637
476.97        9.908191
477.41        9.814631
477.85        9.696817
478.29        9.735547
478.74        9.699697
479.18        9.685715
479.62        9.920828
480.06        10.01362
480.50        10.05688
480.95        10.05863
481.39        10.02385
481.83        10.18081
482.27         10.2298
482.72        10.24041
483.16        10.43172
483.60        10.49937
484.04         10.5011
484.48        10.54286
484.93        10.74804
485.37        10.67587
485.81         10.6732
486.25        11.35672
486.69        10.75744
487.14        10.36538
487.58        11.26703
488.02        11.45621
488.46        11.22469
488.90        11.53636
489.34         11.2316
489.79        11.15417
490.23        11.41279
490.67        11.64847
491.11        11.90923
491.55        11.94665
491.99        11.82396
492.43        11.86847
492.88        12.09387
493.32        12.27364
493.76        12.38085
494.20        12.51688
494.64        12.68692
495.08        12.82506
495.52         12.9284
495.96        13.09579
496.41        13.33206
496.85        13.28146
497.29        13.06205
497.73         13.1868
498.17        13.61209
498.61         13.9056
499.05        13.97839
499.49        14.01319
499.93        14.04511
500.37        14.05532
500.82        14.07126
501.26        14.15996
501.70        14.34089
502.14        14.30126
502.58        14.53104
503.02         14.6202
503.46        14.65158
503.90        14.65621
504.34        14.64648
504.78        14.68807
505.22        14.78456
505.66        14.89039
506.10         14.9927
506.54        15.11334
506.98        15.24773
507.42        15.31469
507.86        15.42952
508.30        15.48903
508.74        15.53042
509.18        15.55424
509.62        15.56992
510.06        15.59194
510.50         15.6242
510.94        15.66192
511.38        15.71078
511.82        15.77896
512.26        15.86309
512.70        15.96104
513.14        16.04688
513.58        16.07203
514.02        16.02959
514.46        15.94699
514.90        15.86494
515.34        15.79389
515.78        15.84159
516.22         15.9167
516.66        16.01877
517.10            16.1
517.54        16.14519
517.98        16.16471
518.42        16.16682
518.86        16.16804
519.30        16.17236
519.74        16.17118
520.18        16.15985
520.62        16.13282
521.06        16.09173
521.50        16.04586
521.93        16.00192
522.37        15.96048
522.81        15.92704
523.25        15.89693
523.69        15.87935
524.13        15.88869
524.57        15.92168
525.01        15.97099
525.45        16.00628
525.89        15.97973
526.32        15.88201
526.76        15.73759
527.20        15.58136
527.64        15.47295
528.08        15.42729
528.52        15.42216
528.96        15.43959
529.40        15.45028
529.83        15.44097
530.27        15.42268
530.71        15.38159
531.15        15.29467
531.59        15.16496
532.03        15.00162
532.46         14.8415
532.90        14.75631
533.34        14.75707
533.78        14.82359
534.22        14.91728
534.66         14.9772
535.09        14.98531
535.53        14.96029
535.97        14.91988
536.41        14.89478
536.85         14.8947
537.28        14.90915
537.72        14.92975
538.16        14.94264
538.60        14.94615
539.04        14.95195
539.47        14.96384
539.91        14.99483
540.35        15.04303
540.79        15.10579
541.22        15.17759
541.66        15.25011
542.10        15.32064
542.54        15.39457
542.97        15.46818
543.41        15.54533
543.85        15.62546
544.29        15.70677
544.72        15.79828
545.16        15.92812
545.60        16.09255
546.04        16.28415
546.47        16.47726
546.91        16.62537
547.35        16.71856
547.79        16.77769
548.22         16.8275
548.66        16.90574
549.10        17.03205
549.53        17.25314
549.97        17.52971
550.41        17.73732
550.84        17.85535
551.28        17.94582
551.72        18.02832
552.15        18.11208
552.59        18.21246
553.03        18.31718
553.46        18.42923
553.90         18.5691
554.34        18.73278
554.77        18.92282
555.21        19.10898
555.65        19.24129
556.08          19.291
556.52         19.3166
556.96        19.34031
557.39        19.42594
557.83        19.56944
558.27        19.67237
558.70        19.72763
559.14        19.79644
559.57        19.87177
560.01        19.94034
560.45         19.9967
560.88        20.02172
561.32        20.05804
561.75        20.15326
562.19        20.29973
562.63        20.47661
563.06        20.62757
563.50        20.60653
563.93        20.46035
564.37        20.44667
564.80        20.57747
565.24        20.72614
565.68        20.86632
566.11        21.00319
566.55        21.13019
566.98        21.26118
567.42        21.38872
567.85        21.44323
568.29        21.46492
568.72        21.51129
569.16        21.59518
569.60        21.75161
570.03         22.0008
570.47        22.06243
570.90        22.16857
571.34        22.67989
571.77        22.64773
572.21        22.63441
572.64        22.85984
573.08        22.82151
573.51        23.09864
573.95        23.26997
574.38        23.38629
574.82        23.43207
575.25        23.41314
575.69        23.28367
576.12        23.26079
576.56         23.6249
576.99        23.72522
577.42         23.8717
577.86        23.66754
578.29        23.84212
578.73        23.57423
579.16        23.55212
579.60        23.49702
580.03        23.42183
580.47        23.33933
580.90        23.19554
581.33        23.31018
581.77        23.28097
582.20        22.77534
582.64        22.60409
583.07        22.64307
583.51        22.68173
583.94        22.74922
584.37        22.73968
584.81        22.60355
585.24        22.36687
585.68        22.17582
586.11        21.76502
586.54        21.80995
586.98        21.82351
587.41        21.95165
587.85        21.78679
588.28        21.42547
588.71        21.69501
589.15        21.78308
589.58        21.54127
590.01        21.91199
590.45        21.90032
590.88        21.36521
591.31         21.2685
591.75        21.48824
592.18        21.63139
592.61        21.60298
593.05         21.9204
593.48        21.76232
593.91        21.46567
594.35        21.64548
594.78        21.89609
595.21        22.04764
595.65         22.1525
596.08        22.09479
596.51        22.45778
596.94        22.48553
597.38        22.76661
597.81        23.09224
598.24        23.03253
598.68        23.57101
599.11        23.71159
599.54         23.9386
599.97        24.22733
600.41        24.69349
600.84        25.03612
601.27        25.25862
601.70        25.51882
602.14        25.61426
602.57        26.21126
603.00        26.85423
603.43        27.22272
603.87         27.4363
604.30         27.5573
604.73        28.02442
605.16        28.85101
605.60        29.36098
606.03        29.84435
606.46        30.09392
606.89        30.37796
607.32        30.89151
607.76        31.56812
608.19        31.55874
608.62        31.82053
609.05        32.17332
609.48        32.56507
609.92        32.88342
610.35        33.56266
610.78        33.56625
611.21        33.61291
611.64        34.34558
612.07        34.69813
612.50         34.9327
612.94        35.21381
613.37        35.57646
613.80         35.8988
614.23        36.15878
614.66        36.47379
615.09        36.79726
615.52        37.11537
615.96        37.45733
616.39        37.45181
616.82         37.7553
617.25        38.18784
617.68        38.29259
618.11        38.51105
618.54        38.70332
618.97        39.05263
619.40        39.47287
619.84        39.93522
620.27        40.03948
620.70        40.10188
621.13        40.00355
621.56        40.44746
621.99        40.47629
622.42        40.45009
622.85        40.44727
623.28        40.74418
623.71        40.86714
624.14        40.49953
624.57        40.86311
625.00        41.16259
625.43        40.84798
625.86        40.83787
626.29        40.85162
626.72         40.7528
627.15        40.50233
627.58        40.27984
628.01        40.16771
628.44        39.71127
628.87        39.48433
629.30        39.57181
629.73        39.12264
630.16        38.58342
630.59        38.50238
631.02        38.23931
631.45        37.99343
631.88        37.70002
632.31        37.37064
632.74        36.83806
633.17        36.48125
633.60        36.00776
634.03        35.56418
634.46         35.1183
634.89        34.67729
635.32        34.22178
635.75        33.74934
636.18        33.29256
636.61        32.85266
637.04        32.39011
637.47        31.92429
637.89        31.54214
638.32        31.22003
638.75         30.8748
639.18        30.50417
639.61        30.16171
640.04        29.84274
640.47        29.52209
640.90        29.20238
641.33         28.8816
641.76        28.57836
642.18        28.39333
642.61        28.22278
643.04        28.14484
643.47        28.10815
643.90        28.08309
644.33        28.05771
644.76        28.03988
645.18        28.03721
645.61        28.05949
646.04        28.10963
646.47        28.17943
646.90        28.27599
647.33         28.4069
647.75        28.58528
648.18        28.83479
648.61        29.12817
649.04        29.44286
649.47        29.78355
649.89        30.05699
650.32        30.34108
650.75        30.99726
651.18        31.89739
651.61        32.45318
652.03        32.62183
652.46        32.78929
652.89        33.15726
653.32        33.62534
653.74        34.23852
654.17        35.32063
654.60        35.45623
655.03        35.49849
655.46        36.32734
655.88        37.63432
656.31        38.37664
656.74        38.41974
657.16        38.53685
657.59        39.19067
658.02        38.97276
658.45        39.75541
658.87        40.32369
659.30         41.0943
659.73        41.15068
660.15        41.28788
660.58        41.67602
661.01        42.14251
661.44        42.75597
661.86        43.21543
662.29        43.51132
662.72         43.8075
663.14        44.13463
663.57         44.4398
664.00        44.72684
664.42        44.97838
664.85        45.21227
665.27        45.48535
665.70        45.78043
666.13        46.02637
666.55        46.21967
666.98        46.39064
667.41         46.5676
667.83        46.78109
668.26        47.03335
668.69        47.32278
669.11        47.61821
669.54        47.87238
669.96        48.08096
670.39        48.22115
670.82        48.34165
671.24        48.58405
671.67        48.92365
672.09        49.18099
672.52        49.35107
672.94        49.49242
673.37        49.63969
673.80        49.84155
674.22        50.08934
674.65        50.25676
675.07        50.34896
675.50        50.43079
675.92        50.53284
676.35        50.65736
676.77        50.81786
677.20        51.01884
677.62        51.23762
678.05        51.41938
678.47        51.54927
678.90        51.64615
679.32        51.74174
679.75        51.88145
680.17        52.06734
680.60         52.3344
681.02        52.61543
681.45        52.67027
681.87        52.54455
682.30        52.53359
682.72         52.6739
683.15        52.79778
683.57        52.92588
684.00        53.12922
684.42        53.37514
684.85        53.70631
685.27        53.84512
685.70        54.03679
686.12        54.17678
686.54        54.25543
686.97        54.30914
687.39        54.32578
687.82        54.38182
688.24        54.69632
688.66        54.62093
689.09        54.76348
689.51         54.9264
689.94        55.05407
690.36        55.14267
690.78        55.21835
691.21        55.29473
691.63        55.36309
692.06        55.43316
692.48        55.50239
692.90        55.58499
693.33        55.69722
693.75        55.84549
694.17        56.02706
694.60        56.21029
695.02        56.38062
695.44        56.52345
695.87        56.58831
696.29        56.60947
696.71        56.77781
697.14        57.02909
697.56        57.04723
697.98        56.87704
698.41        56.90353
698.83        57.12929
699.25        57.36098
699.68        57.52554
700.10        57.70752
700.52        57.88822
700.94        57.92509
701.37        57.78046
701.79        58.08597
702.21        57.81998
702.64        57.80997
703.06        57.77771
703.48        57.80877
703.90        57.91257
704.33        58.07885
704.75        58.29319
705.17        58.47967
705.59        58.61907
706.01        58.70497
706.44         58.7536
706.86         58.9083
707.28        59.01237
707.70        59.15942
708.12        59.28861
708.55        59.40403
708.97        59.48102
709.39        59.47459
709.81        59.41303
710.23        59.40639
710.66        59.47104
711.08        59.56715
711.50        59.66331
711.92        59.74812
712.34        59.81338
712.76        59.86509
713.19        59.90494
713.61        59.95728
714.03        60.03941
714.45         60.1219
714.87        60.20386
715.29        60.27118
715.71        60.32201
716.13        60.36203
716.56        60.38913
716.98        60.46296
717.40        60.57168
717.82        60.70829
718.24        60.85425
718.66        60.98116
719.08         61.0789
719.50        61.14767
719.92        61.20735
720.34        61.29088
720.76        61.40323
721.19        61.52866
721.61        61.64089
722.03        61.67013
722.45        61.60624
722.87        61.47107
723.29         61.3315
723.71        61.29307
724.13        61.38355
724.55        61.58118
724.97        61.81721
725.39        61.96119
725.81         61.9803
726.23        61.93371
726.65        61.90379
727.07        61.88585
727.49        62.11751
727.91        62.37559
728.33        62.63954
728.75        62.74139
729.17        62.64282
729.59        62.46746
730.01          62.276
730.43        62.01064
730.85        61.78554
731.27        61.92279
731.69        62.33303
732.10        62.56834
732.52        62.57443
732.94        62.61135
733.36        62.68642
733.78         62.6907
734.20          62.635
734.62        62.65749
735.04        62.40377
735.46        62.63022
735.88        63.09897
736.30        63.07176
736.72        62.62857
737.13         62.6433
737.55        63.08501
737.97        63.29073
738.39        63.21645
738.81        63.18843
739.23        63.23094
739.65        63.27927
740.06        63.31562
740.48        63.36658
740.90        63.40533
741.32        63.53336
741.74        63.64154
742.16        63.73954
742.57        63.78695
742.99        63.85874
743.41        63.94971
743.83        63.87804
744.25        63.71791
744.67        63.81609
745.08        64.14298
745.50        64.29266
745.92        64.24752
746.34        64.23349
746.75        64.25036
747.17        64.20924
747.59        64.11967
748.01        63.95876
748.42        63.79305
748.84        63.82586
749.26        64.01388
749.68        64.11402
750.09        64.09507
750.51        64.02958
750.93        63.97223
751.35        64.08418
751.76        64.31486
752.18        64.38011
752.60        64.25733
753.01        64.13406
753.43        64.09087
753.85        64.11556
754.27        64.20319
754.68        64.70583
755.10        65.03647
755.52        65.07552
755.93         64.8487
756.35        64.89695
756.77        65.17323
757.18        65.23969
757.60        65.14157
758.02        64.84455
758.43        64.39026
758.85        65.02913
759.26        65.03363
759.68        64.88448
760.10        65.50335
760.51        64.77371
760.93        65.37573
761.34         64.4174
761.76        65.45316
762.18        65.42101
762.59        65.23847
763.01        65.24076
763.42        65.48199
763.84        65.66027
764.26        65.74668
764.67        65.74556
765.09        65.68864
765.50        65.82184
765.92        66.12437
766.33        65.87018
766.75        65.34672
767.16        65.55503
767.58        65.22343
768.00        65.34637
768.41        65.49525
768.83        65.64724
769.24        65.73613
769.66        65.80957
770.07        65.85181
770.49        65.77062
770.90        65.64904
771.32        65.76617
771.73        66.08385
772.15        66.23893
772.56        66.23468
772.97        66.27966
773.39        66.33481
773.80        66.35778
774.22        66.36647
774.63        66.15068
775.05        66.77631
775.46        66.90297
775.88        66.81458
776.29        66.73965
776.70        66.72421
777.12        66.72572
777.53        66.76527
777.95        66.84215
778.36          66.938
778.77        67.00805
779.19        67.04705
779.60        67.07924
780.02        67.10165
780.43        67.16928
780.84        67.27013
781.26        67.28304
781.67        67.29544
782.09        67.51899
782.50        67.71853
782.91        68.11164
783.33        67.01798
783.74        66.79388
784.15        66.98521
784.57        67.05221
784.98        66.98551
785.39        67.17841
785.81        67.55729
786.22        67.69591
786.63        67.59464
787.04        67.59007
787.46         67.7006
787.87        67.71289
788.28        67.66369
788.70        67.69707
789.11        67.80468
789.52        67.95824
789.93        68.12332
790.35        68.22267
790.76        68.26329
791.17        68.26346
791.58        68.24201
792.00         68.2223
792.41        68.23787
792.82        68.25301
793.23        68.29638
793.65        68.42689
794.06         68.6294
794.47        68.84927
794.88         69.0403
795.29        68.94823
795.71        68.98268
796.12        68.82323
796.53        68.65136
796.94        68.53438
797.35        68.53526
797.76        68.75809
798.18        69.10663
798.59        69.28008
799.00         69.2383
799.41        69.10992
799.82        68.95557
800.23        68.84055
800.64        68.79921
801.06        68.79159
801.47        68.83296
801.88        68.87377
802.29        68.90158
802.70        68.93324
803.11        68.96988
803.52        69.00887
803.93        69.05104
804.34        69.08569
804.75        69.12241
805.17        69.18441
805.58        69.30237
805.99        69.41051
806.40         69.4814
806.81        69.56735
807.22        69.60293
807.63        69.38056
808.04        69.00506
808.45        68.86422
808.86        69.01328
809.27        69.26749
809.68        69.51846
810.09        69.64262
810.50        69.59258
810.91        69.40986
811.32        69.18571
811.73         69.0862
812.14        69.15952
812.55        69.31128
812.96        69.49316
813.37        69.72423
813.78        69.92106
814.19        69.88445
814.60        69.67207
815.01        69.57089
815.42        69.61642
815.83        69.65355
816.24        69.68956
816.65        69.81443
817.05        70.02166
817.46        70.23544
817.87        70.43187
818.28        70.52682
818.69        70.50347
819.10        70.39549
819.51        70.21592
819.92        70.00317
820.33        69.79964
820.74        69.58495
821.14         69.4267
821.55         69.5238
821.96        69.84151
822.37        70.19482
822.78        70.50892
823.19         70.7831
823.60        70.96406
824.00        71.00353
824.41        70.87712
824.82         70.6945
825.23        70.48997
825.64        70.24877
826.04        70.03233
826.45        69.90427
826.86         69.8949
827.27        70.00367
827.68        70.18599
828.08        70.38173
828.49         70.4947
828.90        70.56629
829.31        70.62119
829.72        70.70959
830.12        70.86077
830.53        71.00809
830.94        71.11823
831.35        71.11105
831.75        70.99254
832.16        70.74667
832.57        70.47514
832.97        70.31605
833.38        70.30524
833.79        70.41771
834.20        70.57753
834.60        70.65905
835.01        70.64922
835.42        70.58224
835.82        70.54028
836.23        70.58974
836.64        70.77136
837.04        71.05424
837.45        71.33813
837.86        71.56381
838.26        71.71066
838.67         71.7886
839.08        71.79679
839.48        71.71769
839.89        71.56845
840.29        71.35925
840.70        71.17255
841.11         71.1435
841.51         71.3115
841.92        71.59974
842.33         71.9201
842.73        72.11269
843.14        72.08012
843.54        71.89775
843.95        71.62875
844.35        71.39841
844.76        71.24493
845.17         71.1414
845.57        71.08263
845.98        71.02271
846.38        70.97291
846.79        70.93252
847.19        70.92662
847.60        70.93638
848.00        70.97868
848.41        71.01776
848.81        71.06809
849.22        71.08659
849.62        71.09887
850.03         71.0844
850.43        71.07174
850.84        71.02917
851.24         70.9978
851.65        70.92225
852.05        70.87348
852.46        70.87225
852.86        70.91521
853.27        71.01296
853.67        71.03326
854.07        70.94887
854.48        70.71338
854.88        70.38288
855.29        69.94783
855.69        69.60309
856.10        69.33412
856.50        69.18176
856.90        69.10448
857.31        69.05247
857.71        69.05527
858.12        69.08752
858.52        69.17053
858.92        69.21145
859.33        69.18037
859.73        69.11199
860.13        69.05001
860.54        69.10594
860.94        69.32358
861.34         69.6195
861.75        69.85944
862.15        69.89993
862.55        69.68642
862.96        69.30792
863.36        68.83355
863.76        68.36951
864.17        67.97311
864.57        67.63161
864.97        67.43722
865.38        67.51166
865.78        67.89745
866.18        68.54065
866.58        69.20662
866.99        69.48131
867.39        69.28014
867.79        68.68342
868.19        67.95945
868.60         67.4864
869.00        67.34898
869.40        67.47622
869.80         67.7155
870.21        67.78834
870.61        67.68231
871.01        67.45071
871.41        67.22163
871.81        67.15966
872.22        67.28004
872.62        67.55119
873.02        67.89747
873.42        68.17323
873.82        68.32082
874.22        68.38329
874.63        68.43675
875.03        68.57725
875.43        68.82372
875.83        69.11217
876.23        69.38627
876.63        69.56047
877.03        69.59631
877.44        69.52206
877.84        69.32935
878.24        68.97753
878.64        68.50822
879.04         67.9784
879.44        67.51515
879.84        67.28387
880.24        67.30887
880.64        67.54039
881.04        67.89614
881.44        68.22392
881.84        68.44987
882.24        68.58437
882.65        68.60387
883.05        68.58486
883.45        68.51292
883.85        68.39232
884.25        68.22431
884.65        68.01285
885.05        67.77717
885.45         67.5311
885.85        67.36674
886.25        67.42936
886.65        67.73692
887.05        68.23454
887.45        68.75471
887.85        69.04769
888.25        69.04604
888.65        68.79349
889.04        68.42213
889.44        68.20942
889.84        68.20734
890.24        68.34835
890.64        68.47782
891.04        68.34973
891.44        67.93338
891.84        67.34713
892.24        66.78558
892.64        66.53608
893.04        66.67205
893.44        67.09907
893.83        67.69485
894.23        68.20174
894.63        68.54501
895.03        68.74944
895.43        68.86164
895.83          68.962
896.23        69.07248
896.63        69.17677
897.02        69.18082
897.42        68.98631
897.82        68.59408
898.22        68.06943
898.62        67.61541
899.01        67.56998
899.41        67.97744
899.81        68.72445
900.21        69.56236
900.61        70.08009
901.00        70.13615
901.40        69.85622
901.80        69.37077
902.20        68.90678
902.59        68.57671
902.99        68.33327
903.39        68.18093
903.79        68.11692
904.18         68.1349
904.58        68.24096
904.98        68.46969
905.38        68.86922
905.77         69.3998
906.17        70.01606
906.57        70.54131
906.96         70.7086
907.36        70.43592
907.76        69.83575
908.15         69.0932
908.55        68.45879
908.95        68.08089
909.34        67.89153
909.74        67.93767
910.14        68.20923
910.53         68.6724
910.93        69.30937
911.33        69.96842
911.72         70.3833
912.12        70.45454
912.52        70.24142
912.91        69.88695
913.31        69.63833
913.70        69.55939
914.10        69.60236
914.49        69.69083
914.89        69.62996
915.29        69.39835
915.68        69.05141
916.08        68.77011
916.47        68.82008
916.87        69.24117
917.26        69.90383
917.66        70.55003
918.05        70.74424
918.45        70.39639
918.84        69.68874
919.24        68.84988
919.64        68.34511
920.03        68.33357
920.42        68.67075
920.82        69.22406
921.21        69.77518
921.61        70.21893
922.00        70.61611
922.40        70.95943
922.79        71.29898
923.19        71.58826
923.58        71.81368
923.98        71.86118
924.37        71.64413
924.77        71.15489
925.16        70.43162
925.55        69.66948
925.95        69.19296
926.34        69.09667
926.74        69.29996
927.13        69.64059
927.52        69.73969
927.92        69.53487
928.31        69.13328
928.70        68.72937
929.10        68.61368
929.49        68.84949
929.89        69.29633
930.28        69.85894
930.67        70.26477
931.07        70.39909
931.46        70.35897
931.85        70.17499
932.24        69.93017
932.64        69.67274
933.03         69.3907
933.42        69.12786
933.82        68.95522
934.21        68.89867
934.60        68.96335
934.99        69.12965
935.39         69.3272
935.78        69.55248
936.17        69.79169
936.56        70.03318
936.96        70.25057
937.35        70.46962
937.74        70.64936
938.13        70.75558
938.53        70.75358
938.92        70.65157
939.31        70.45358
939.70        70.22712
940.09        70.09144
940.49        70.04854
940.88        70.09466
941.27        70.14349
941.66        70.05937
942.05        69.82166
942.44        69.50409
942.84        69.16988
943.23         68.8575
943.62        68.62614
944.01        68.44684
944.40        68.39691
944.79        68.60186
945.18        69.05674
945.57        69.70678
945.97        70.31203
946.36        70.60277
946.75        70.48206
947.14        69.99352
947.53        69.35989
947.92        68.98522
948.31        68.98714
948.70        69.28526
949.09         69.5899
949.48         69.4373
949.87        68.75755
950.26        67.71561
950.65        66.70913
951.04        66.35885
951.43        66.79277
951.82        67.80836
952.21         68.9722
952.60        69.53196
952.99        69.26979
953.38        68.42914
953.77        67.37251
954.16        66.65677
954.55        66.43487
954.94        66.51641
955.33        66.74413
955.72        66.87166
956.11        66.80039
956.50        66.63261
956.89        66.38668
957.28        66.06189
957.66        65.72907
958.05        65.39516
958.44        65.12921
958.83        65.05246
959.22           65.18
959.61        65.42465
960.00        65.82069
960.39        66.42149
960.78        67.17735
961.16        68.09157
961.55        68.78068
961.94        68.69676
962.33        67.77284
962.72        66.25092
963.11         64.6827
963.49        63.87669
963.88        64.01646
964.27        64.88145
964.66        66.13577
965.04        67.15665
965.43        67.60163
965.82         67.6658
966.21        67.48351
966.60          67.281
966.98        67.14267
967.37         66.9332
967.76        66.63763
968.15        66.25471
968.53        65.83807
968.92        65.49023
969.31        65.25528
969.69        65.13546
970.08        65.13363
970.47        65.24141
970.86        65.58772
971.24        66.38783
971.63        67.53696
972.02        68.90694
972.40        70.19957
972.79        70.89069
973.17        70.99783
973.56        70.57412
973.95        69.94405
974.33        69.65666
974.72        69.86287
975.11        70.39183
975.49        70.91867
975.88        70.92841
976.26        70.29195
976.65        69.19051
977.04        67.88145
977.42        66.76822
977.81        65.98605
978.19        65.42504
978.58        65.20781
978.96        65.44306
979.35        66.07327
979.74        67.09122
980.12        68.23081
980.51        68.82825
980.89        68.84726
981.28        68.33793
981.66        67.63879
982.05        67.45953
982.43        67.96096
982.82        68.84733
983.20         69.8468
983.59        70.36804
983.97        70.35414
984.35          69.982
984.74        69.31767
985.12        68.46348
985.51        67.57138
985.89        66.69184
986.28        66.10955
986.66        66.32653
987.04        67.31713
987.43        68.85484
987.81        70.56034
988.20        71.64624
988.58        71.88635
988.96        71.49914
989.35         70.5418
989.73        69.21165
990.12        67.58365
990.50        65.48859
990.88        63.44591
991.27        62.68365
991.65        63.53252
992.03        65.64927
992.42        67.77749
992.80        68.60981
993.18        67.78975
993.56        65.53754
993.95         62.5547
994.33        60.66736
994.71        60.87426
995.10        62.34717
995.48         64.1476
995.86        65.15464
996.24        65.23407
996.63        64.73258
997.01        64.03043
997.39        63.81944
997.77        64.38828
998.15         65.4223
998.54        66.49985
998.92        67.15656
999.30        67.29613
999.68        67.12091
1000.06         66.8707
1000.45        66.90551
1000.83        67.36826
1001.21        67.97794
1001.59        68.63207
1001.97        69.20739
1002.35        69.66627
1002.73        70.19344
1003.12         70.4189
1003.50        69.49148
1003.88         67.4919
1004.26        64.82214
1004.64        62.67356
1005.02        62.51135
1005.40        64.44179
1005.78         68.0638
1006.16        72.14165
1006.54        74.38075
1006.92        74.02541
1007.30        71.62442
1007.69         68.4927
1008.07        66.80321
1008.45        67.25739
1008.83         69.1824
1009.21        71.36663
1009.59        72.04821
1009.97         70.7389
1010.35        67.77623
1010.73        64.13443
1011.11        62.28092
1011.49        63.32813
1011.86        66.53641
1012.24        70.04938
1012.62        71.58741
1013.00        70.73981
1013.38        68.36358
1013.76        65.42538
1014.14        63.49687
1014.52        63.16854
1014.90        63.91478
1015.28        65.60757
1015.66         67.9427
1016.04        70.47805
1016.41         73.2712
1016.79        75.45743
1017.17        76.17152
1017.55        75.33664
1017.93        73.22559
1018.31        70.56999
1018.69        68.55634
1019.06        67.62396
1019.44        67.62328
1019.82        68.33772
1020.20        69.21298
1020.58        69.87794
1020.95        70.26991
1021.33        70.61019
1021.71        71.17376
1022.09        71.95025
1022.46        72.84402
1022.84        73.17337
1023.22        71.58594
1023.60        67.69801
1023.97        61.40498
1024.35        54.47599
1024.73        50.76369
