SpectraSmart Spectrum 2.9.0.0
--------- Device Information -----------
Spectrum Name :  反射率_0
Saving Time :  2024/04/27 23:08:38
Spectro-Module Model Name : SE2030-DUVN
Spectro-Module Serial Number : OS361AC55029948
Wavelength Start : 200
Wavelength End : 1025
Wavelength Unit : Wavelength(nm)
Spectrum Unit : Reflectance(%)
-----------Spectrum Setting ------------
Integration Time : 20ms
Average : 10
Boxcar : 0
Background removal :  enabled
linearity correction :  enabled
SC :  disabled
Intensity correction :  disabled
DWT denoise :  enabled
savitzky-golay :  disabled
FFT :  disabled
Running average :  disabled
Kalman :  disabled
High pass :  disabled
---------------BEGIN--------------------
Wavelength(nm)             Reflectance(%)
200.29               0
200.75        -38.6731
201.21       -10.69226
201.67         14.0727
202.13        26.77144
202.58        31.65703
203.04        33.08231
203.50        34.34504
203.96        38.69014
204.42        45.56334
204.88          52.986
205.34        58.89737
205.80         61.9352
206.26        62.10687
206.72        58.86839
207.18        52.44245
207.64         48.4255
208.10        50.88218
208.55        56.97573
209.01        59.73177
209.47        56.08154
209.93        43.57588
210.39        9.298396
210.85        -95.6181
211.31       -224.4439
211.77       -73.60889
212.23        26.65922
212.69        61.56195
213.14        70.57261
213.60        66.74862
214.06        52.45636
214.52        25.81599
214.98         6.98071
215.44        17.09953
215.90        36.92672
216.36        53.26212
216.81        62.94284
217.27        67.98857
217.73        71.20019
218.19         72.3215
218.65        69.93547
219.11        63.89618
219.57        54.29181
220.02        42.62316
220.48        35.18899
220.94        34.63043
221.40         38.9127
221.86         46.3183
222.32        54.91404
222.77        63.35324
223.23        71.25833
223.69        76.96534
224.15        78.65047
224.61         76.6169
225.06        71.54221
225.52         65.3675
225.98        61.90738
226.44        62.10165
226.90        64.00895
227.36        66.14604
227.81        67.34745
228.27        67.61073
228.73         67.3518
229.19        66.38811
229.65        64.38228
230.10        61.48206
230.56        58.25681
231.02        55.34875
231.48        53.70749
231.93        53.37618
232.39        54.09285
232.85        55.55808
233.31        57.39174
233.77        59.31333
234.22        61.36382
234.68        63.03399
235.14        63.74105
235.60        63.41304
236.05        62.01311
236.51        60.18013
236.97        59.46094
237.43        60.45468
237.88        62.99989
238.34        65.52781
238.80        66.41148
239.26        65.09456
239.71        61.06678
240.17        54.45367
240.63        51.09036
241.08        55.89876
241.54        64.46009
242.00        71.16992
242.46        73.74556
242.91        72.75996
243.37        67.43916
243.83        54.80703
244.28        37.82888
244.74        35.29794
245.20        48.55826
245.66        61.04425
246.11        65.23623
246.57         62.7138
247.03        54.78505
247.48        41.75764
247.94        33.61908
248.40        40.17144
248.85        54.56141
249.31        69.14291
249.77        78.47913
250.22        82.61282
250.68        83.83484
251.14        83.60549
251.59        83.00497
252.05         82.1933
252.51        80.23228
252.96        75.68728
253.42         68.5434
253.88        61.00564
254.33        55.61749
254.79        52.57484
255.25        50.06226
255.70        47.63884
256.16        46.05535
256.62        45.67104
257.07         46.9198
257.53        49.37327
257.99        51.84348
258.44        53.59116
258.90         54.3571
259.35        54.01979
259.81        53.26127
260.27        52.11369
260.72        50.64757
261.18        49.31533
261.63        47.94649
262.09         46.8334
262.55        45.96191
263.00        45.23962
263.46        44.73992
263.91        44.34228
264.37        44.16982
264.83        44.12354
265.28        44.14183
265.74         44.1411
266.19        43.84679
266.65        43.30914
267.11        42.55687
267.56         41.7535
268.02        41.25856
268.47        41.08234
268.93        41.11897
269.38        41.15383
269.84        40.87616
270.30        40.21418
270.75        39.29328
271.21        38.25035
271.66        37.24531
272.12        36.37788
272.57        35.57415
273.03        34.90667
273.48        34.40547
273.94          34.095
274.39        33.90771
274.85        33.77256
275.31        33.50175
275.76         33.0442
276.22        32.48856
276.67        31.85708
277.13        31.28662
277.58        30.76265
278.04        30.29297
278.49        29.83066
278.95        29.41965
279.40        29.00496
279.86        28.64253
280.31        28.26664
280.77        27.89159
281.22        27.48544
281.68        27.10499
282.13        26.73979
282.59        26.42364
283.04        26.14046
283.50        25.88104
283.95        25.65415
284.41        25.51422
284.86        25.43543
285.32        25.41145
285.77        25.34107
286.22        25.11081
286.68        24.72873
287.13        24.21741
287.59        23.70363
288.04        23.30819
288.50        23.09275
288.95         22.9888
289.41        22.96046
289.86        22.90827
290.32        22.82009
290.77        22.71792
291.22        22.61495
291.68         22.5242
292.13        22.44329
292.59        22.36922
293.04        22.31641
293.50        22.33685
293.95        22.42826
294.40        22.59228
294.86        22.78329
295.31        22.91815
295.77        22.99271
296.22        23.02193
296.68        23.08594
297.13        23.29012
297.58        23.65562
298.04        24.13347
298.49        24.63309
298.95        25.02667
299.40         25.2828
299.85        25.43923
300.31        25.57501
300.76        25.78064
301.21        26.08831
301.67        26.46322
302.12        26.83146
302.58        27.11536
303.03        27.28476
303.48        27.37409
303.94        27.45645
304.39        27.59973
304.84        27.83052
305.30        28.12739
305.75        28.40545
306.20        28.56698
306.66        28.60779
307.11        28.54001
307.57        28.46725
308.02        28.49321
308.47        28.64767
308.93        28.87985
309.38        29.09197
309.83        29.15459
310.29        29.05278
310.74        28.83129
311.19        28.55733
311.65        28.33386
312.10        28.18262
312.55        28.07693
313.00        28.02485
313.46        28.04069
313.91        28.10638
314.36        28.21666
314.82        28.29611
315.27        28.21617
315.72        27.95841
316.18        27.57157
316.63        27.14204
317.08        26.83085
317.53        26.68181
317.99        26.64722
318.44        26.67776
318.89        26.67514
319.35        26.60442
319.80        26.49389
320.25        26.35776
320.70        26.22232
321.16        26.08896
321.61        25.94736
322.06        25.78535
322.51        25.59249
322.97        25.36905
323.42        25.14114
323.87        24.91566
324.32         24.7071
324.78        24.52014
325.23        24.34857
325.68        24.21201
326.13        24.14532
326.59         24.1352
327.04        24.18933
327.49        24.22276
327.94        24.10532
328.39        23.81048
328.85         23.3666
329.30        22.89223
329.75         22.5945
330.20         22.5357
330.66        22.65572
331.11        22.84607
331.56        22.87908
332.01        22.69427
332.46        22.35542
332.92         21.9742
333.37        21.76514
333.82        21.78389
334.27        21.95767
334.72        22.18536
335.17        22.30663
335.63        22.26197
336.08        22.11424
336.53        21.90239
336.98        21.69946
337.43        21.54126
337.88        21.41103
338.34        21.30886
338.79        21.23871
339.24        21.20171
339.69        21.20297
340.14        21.24516
340.59        21.32554
341.05         21.4326
341.50        21.55885
341.95        21.66413
342.40        21.69977
342.85         21.6542
343.30        21.53616
343.75        21.38357
344.20         21.2596
344.66        21.18999
345.11        21.16598
345.56        21.15491
346.01        21.10019
346.46        20.98974
346.91        20.83404
347.36        20.69805
347.81        20.67701
348.26        20.78293
348.72        20.99039
349.17        21.18404
349.62        21.18017
350.07        20.94757
350.52        20.53879
350.97        20.12587
351.42        19.98409
351.87        20.16457
352.32        20.57573
352.77        21.01392
353.22        21.16768
353.67        20.96976
354.13        20.53287
354.58        20.01504
355.03        19.71917
355.48        19.72653
355.93        19.94905
356.38        20.23607
356.83         20.3552
357.28        20.25047
357.73              20
358.18        19.72998
358.63        19.63176
359.08        19.73833
359.53        19.96565
359.98        20.19257
360.43        20.23768
360.88        20.05927
361.33        19.72697
361.78        19.31317
362.23        18.96926
362.68        18.75239
363.13        18.55176
363.58        18.34986
364.03        18.49415
364.48        18.36135
364.93         18.4387
365.38        18.50109
365.83        18.48827
366.28        18.37901
366.73        18.19475
367.18        17.97481
367.63        17.77463
368.08        17.61589
368.53        17.48279
368.98         17.3692
369.43        17.26276
369.88        17.15838
370.33        17.06704
370.78        16.97782
371.23        16.86995
371.68        16.73853
372.13        16.58145
372.58        16.42523
373.03        16.31511
373.48        16.26132
373.93        16.25868
374.38        16.26014
374.83        16.18936
375.28        16.03593
375.72        15.81448
376.17        15.61961
376.62        15.56117
377.07        15.65248
377.52          15.841
377.97        16.03668
378.42        16.10078
378.87        16.00134
379.32        15.79207
379.77        15.52682
380.22         15.2857
380.67        15.09887
381.11         14.9429
381.56        14.82931
382.01        14.77576
382.46        14.77979
382.91        14.84209
383.36        14.91543
383.81        14.92185
384.26         14.8443
384.71        14.69711
385.15        14.52737
385.60        14.44257
386.05        14.45489
386.50        14.54116
386.95          14.639
387.40        14.65117
387.85        14.56326
388.29        14.40139
388.74        14.25627
389.19        14.22238
389.64        14.30754
390.09        14.46308
390.54        14.61444
390.98        14.64242
391.43        14.52822
391.88        14.32454
392.33        14.07442
392.78        13.86038
393.23        13.71392
393.67        13.55059
394.12        13.40146
394.57        13.46446
395.02        13.49339
395.47         13.4591
395.91        13.31601
396.36        13.25299
396.81        13.28011
397.26        13.29237
397.71        13.26884
398.15        13.23155
398.60        13.19378
399.05         13.1001
399.50        12.99579
399.95          13.029
400.39        13.16352
400.84         13.1891
401.29        13.09059
401.74        12.97392
402.18        12.87245
402.63        12.82058
403.08        12.80947
403.53        12.75215
403.97        12.65362
404.42        12.59152
404.87        12.57354
405.32        12.58522
405.76        12.62196
406.21        12.64869
406.66        12.67136
407.11        12.76174
407.55        12.88033
408.00         12.8883
408.45        12.77198
408.90        12.55931
409.34          12.321
409.79        12.22754
410.24        12.26531
410.68        12.25346
411.13        12.18507
411.58        12.18341
412.03        12.24978
412.47        12.31795
412.92        12.36772
413.37        12.41643
413.81        12.44472
414.26        12.43514
414.71        12.38349
415.15         12.2938
415.60        12.18553
416.05        12.10047
416.49        12.05404
416.94        12.03424
417.39        12.02841
417.83        12.01488
418.28        11.98134
418.73        11.93194
419.17        11.87343
419.62        11.81793
420.07        11.77645
420.51        11.75483
420.96        11.73999
421.41        11.72687
421.85        11.71068
422.30        11.63612
422.74        11.55732
423.19         11.7038
423.64         12.0239
424.08        12.19383
424.53        12.13391
424.98        12.07227
425.42        12.01354
425.87        11.74076
426.31        11.36086
426.76        11.28606
427.21        11.47098
427.65        11.48978
428.10        11.33897
428.54         11.3009
428.99        11.36753
429.44        11.48196
429.88        11.56762
430.33        11.37115
430.77        11.01888
431.22        10.99131
431.66        11.26481
432.11         11.4477
432.56        11.47237
433.00         11.4488
433.45        11.30307
433.89        11.02168
434.34        10.83904
434.78        10.37096
435.23        10.90684
435.67         11.3582
436.12        11.55381
436.57        11.62321
437.01        11.49611
437.46        11.41676
437.90        11.45553
438.35        11.54058
438.79        11.29585
439.24        11.16763
439.68        11.06605
440.13         10.9712
440.57        10.89671
441.02        10.96057
441.46        11.13258
441.91        11.13388
442.35        11.01877
442.80         11.2319
443.24         11.6685
443.69        11.68166
444.13        11.29313
444.58        11.08131
445.02        11.05746
445.47        10.92886
445.91         10.7231
446.36        10.63675
446.80        10.67654
447.24        10.78494
447.69         10.9174
448.13         11.0338
448.58        11.09729
449.02        11.06999
449.47        10.98399
449.91        10.94404
450.36         10.9659
450.80         10.9917
451.25        11.01345
451.69        11.04032
452.13        11.06193
452.58        11.06893
453.02        11.04897
453.47        10.98698
453.91        10.88329
454.36         10.7651
454.80        10.64114
455.24        10.51605
455.69        10.42637
456.13        10.38137
456.58        10.39123
457.02        10.50722
457.46        10.65966
457.91        10.65899
458.35        10.56451
458.79        10.53256
459.24        10.58359
459.68         10.6131
460.13        10.61716
460.57        10.57351
461.01         10.5311
461.46        10.50387
461.90        10.45422
462.34         10.4369
462.79        10.61513
463.23        10.69652
463.68        10.71296
464.12        10.69683
464.56        10.65585
465.01        10.63008
465.45        10.59395
465.89        10.50868
466.34        10.41653
466.78        10.36076
467.22        10.33088
467.67        10.52547
468.11        10.46743
468.55        10.43055
468.99        10.30755
469.44        10.25287
469.88        10.27314
470.32        10.27907
470.77        10.27595
471.21        10.30405
471.65        10.36381
472.10        10.44756
472.54        10.51918
472.98        10.53662
473.42         10.4983
473.87        10.38982
474.31        10.26991
474.75        10.32747
475.20        10.53812
475.64        10.67658
476.08        10.69969
476.52        10.75208
476.97        10.83464
477.41        10.74978
477.85        10.62926
478.29        10.66386
478.74        10.59956
479.18        10.54521
479.62        10.75337
480.06        10.80685
480.50         10.8103
480.95        10.77376
481.39         10.7037
481.83        10.83755
482.27        10.85792
482.72        10.85343
483.16        11.05023
483.60        11.10576
484.04        11.08795
484.48        11.09891
484.93        11.27279
485.37        11.20146
485.81        11.35152
486.25         11.9543
486.69        11.81522
487.14        11.39496
487.58        11.82372
488.02         11.7231
488.46        11.80768
488.90         12.0354
489.34        11.28005
489.79        11.11003
490.23        11.61417
490.67        11.95413
491.11        12.14553
491.55        12.12138
491.99        11.95691
492.43        11.95138
492.88        12.12691
493.32          12.249
493.76        12.29785
494.20         12.3998
494.64        12.56253
495.08        12.70955
495.52        12.83252
495.96        13.02252
496.41        13.27831
496.85        13.24011
497.29         13.0122
497.73        13.09945
498.17        13.44954
498.61        13.61088
499.05        13.53381
499.49        13.47955
499.93        13.49397
500.37        13.52697
500.82        13.58105
501.26        13.68745
501.70        13.85179
502.14        13.78294
502.58        13.95979
503.02        13.99658
503.46          13.979
503.90        13.93326
504.34        13.87906
504.78        13.89386
505.22        13.98341
505.66        14.10056
506.10        14.22283
506.54        14.35262
506.98        14.47964
507.42        14.53126
507.86        14.61787
508.30        14.64485
508.74        14.64935
509.18        14.62875
509.62        14.59991
510.06        14.58946
510.50        14.60444
510.94        14.64135
511.38         14.6902
511.82        14.73282
512.26        14.76225
512.70        14.78269
513.14         14.7982
513.58        14.80911
514.02        14.81659
514.46        14.83163
514.90        14.85207
515.34        14.82266
515.78        14.83051
516.22         14.8106
516.66        14.80467
517.10        14.83544
517.54        14.90489
517.98        15.00003
518.42        15.09519
518.86        15.15192
519.30        15.15845
519.74        15.12551
520.18        15.06774
520.62        15.00844
521.06        14.95879
521.50        14.91676
521.93        14.88336
522.37        14.85248
522.81        14.82497
523.25        14.79837
523.69        14.78013
524.13        14.78017
524.57        14.79535
525.01         14.8214
525.45        14.82841
525.89        14.76974
526.32        14.63976
526.76        14.46496
527.20        14.29166
527.64        14.19614
528.08        14.19526
528.52        14.26102
528.96        14.35886
529.40        14.43364
529.83        14.46429
530.27        14.46535
530.71        14.43525
531.15        14.37175
531.59        14.28197
532.03        14.16827
532.46        14.05229
532.90        13.98178
533.34        13.96471
533.78        13.99196
534.22        14.04471
534.66        14.09081
535.09        14.11871
535.53        14.13708
535.97        14.14868
536.41        14.16082
536.85         14.1747
537.28         14.1847
537.72        14.19038
538.16        14.19034
538.60        14.18801
539.04        14.19455
539.47        14.20463
539.91         14.2174
540.35        14.23073
540.79        14.24551
541.22        14.27945
541.66        14.36067
542.10         14.4884
542.54        14.65137
542.97        14.80647
543.41        14.89704
543.85        14.91083
544.29        14.86695
544.72         14.8092
545.16        14.82021
545.60         14.9134
546.04        15.06694
546.47        15.24084
546.91        15.36466
547.35          15.421
547.79        15.44005
548.22        15.45137
548.66        15.49841
549.10          15.601
549.53        15.79654
549.97        16.04337
550.41        16.22174
550.84        16.31048
551.28         16.3669
551.72        16.41401
552.15        16.46835
552.59        16.54514
553.03        16.63073
553.46        16.71866
553.90        16.81315
554.34        16.90921
554.77        17.01536
555.21        17.11768
555.65        17.19273
556.08        17.22096
556.52        17.24892
556.96         17.2852
557.39        17.36969
557.83        17.49321
558.27        17.57014
558.70        17.60096
559.14        17.65204
559.57        17.71782
560.01        17.78052
560.45        17.82417
560.88        17.81542
561.32         17.7923
561.75        17.80803
562.19        17.86741
562.63        17.96962
563.06        18.07117
563.50        18.03869
563.93        17.91425
564.37        17.92495
564.80        18.07665
565.24        18.25537
565.68        18.42312
566.11        18.56136
566.55        18.66104
566.98        18.74356
567.42        18.81676
567.85        18.84194
568.29        18.86265
568.72        18.92316
569.16        19.02803
569.60        19.20772
570.03        19.47821
570.47        19.56951
570.90        19.67054
571.34        20.20388
571.77         20.1283
572.21        20.09016
572.64        20.24044
573.08         20.2156
573.51        20.58736
573.95        20.68356
574.38        20.59175
574.82        20.78197
575.25        20.70295
575.69        20.65896
576.12        20.64572
576.56        20.94288
576.99        20.94126
577.42        21.02016
577.86        21.07193
578.29         21.3634
578.73        21.11034
579.16        21.03201
579.60        20.87116
580.03        20.76219
580.47        20.72901
580.90        20.60951
581.33        20.76423
581.77        20.74488
582.20        20.67318
582.64        20.69975
583.07        20.44785
583.51        20.23102
583.94        20.02212
584.37        19.90338
584.81         19.9025
585.24        19.86128
585.68        19.78314
586.11        19.79936
586.54        19.57523
586.98        19.59611
587.41        19.70624
587.85        19.37994
588.28        19.54091
588.71        19.54389
589.15        19.53755
589.58         19.3607
590.01        19.41231
590.45        19.43869
590.88        19.06827
591.31        19.00752
591.75         19.1326
592.18        19.18376
592.61        19.13954
593.05        19.44315
593.48        19.69919
593.91        19.25512
594.35        19.59356
594.78        19.69436
595.21        19.68476
595.65         19.7409
596.08        19.75067
596.51          20.035
596.94        19.90069
597.38         20.0813
597.81        20.42911
598.24        20.32856
598.68        20.61156
599.11        20.96135
599.54        21.16327
599.97        21.08732
600.41        21.68649
600.84        21.88871
601.27         21.9978
601.70        22.16407
602.14         22.2124
602.57        22.59578
603.00        22.96161
603.43        23.26621
603.87        23.55917
604.30        23.67787
604.73        24.00223
605.16        24.42367
605.60        24.77005
606.03        25.12102
606.46        25.40335
606.89        25.45622
607.32        25.79847
607.76        26.26709
608.19        26.26345
608.62        26.49219
609.05        26.76791
609.48        26.99673
609.92        27.13737
610.35        27.51532
610.78        27.71478
611.21        27.68751
611.64        28.05214
612.07        28.14248
612.50        28.19431
612.94         28.3344
613.37        28.61003
613.80        28.73616
614.23        29.06132
614.66        29.33236
615.09        29.61036
615.52        29.87745
615.96        30.15322
616.39        30.12647
616.82        30.32038
617.25        30.59793
617.68        30.59192
618.11        30.65688
618.54        30.69177
618.97        30.85131
619.40        31.08769
619.84        31.39141
620.27        31.39665
620.70           31.49
621.13         31.5542
621.56        31.67871
621.99        31.65215
622.42        31.70129
622.85        31.61352
623.28        31.89396
623.71        31.75399
624.14        31.77262
624.57        31.87048
625.00        32.13602
625.43        31.85189
625.86        31.83189
626.29         31.8877
626.72        31.64276
627.15        31.60372
627.58        31.47164
628.01        31.44877
628.44        31.12336
628.87        30.93671
629.30        30.99182
629.73        30.62071
630.16        30.14504
630.59        30.14641
631.02        29.99719
631.45         29.8823
631.88        29.72453
632.31        29.52597
632.74        29.15122
633.17        28.91291
633.60        28.62657
634.03        28.38864
634.46        28.17098
634.89        27.93114
635.32        27.66202
635.75        27.23817
636.18        26.79801
636.61        26.36787
637.04        26.01261
637.47         25.7669
637.89        25.67442
638.32        25.65495
638.75         25.5343
639.18        25.28063
639.61         24.9684
640.04        24.64545
640.47        24.37507
640.90        24.18226
641.33         24.0373
641.76        23.91686
642.18        23.84407
642.61        23.71409
643.04        23.61357
643.47        23.52834
643.90         23.4773
644.33        23.46334
644.76        23.47948
645.18        23.50993
645.61        23.52837
646.04        23.53006
646.47         23.5224
646.90        23.53271
647.33         23.6005
647.75        23.74126
648.18        23.95892
648.61        24.21429
649.04        24.45107
649.47        24.66286
649.89        24.82285
650.32        24.98875
650.75        25.36553
651.18         25.8935
651.61        26.27381
652.03        26.45211
652.46        26.58467
652.89        26.81055
653.32        27.06506
653.74        27.42282
654.17        28.29337
654.60        28.16685
655.03        28.23621
655.46        28.54601
655.88        29.71975
656.31        30.85567
656.74        33.22797
657.16        33.18368
657.59        32.81559
658.02        31.68724
658.45        31.21329
658.87        31.59955
659.30        31.61051
659.73         31.1898
660.15        31.66631
660.58        31.91995
661.01        32.43663
661.44          32.786
661.86         33.0054
662.29        33.09178
662.72        33.12392
663.14        33.18454
663.57        33.35012
664.00        33.60411
664.42        33.78163
664.85        33.88154
665.27        34.02596
665.70        34.20913
666.13        34.36197
666.55        34.48335
666.98        34.58839
667.41        34.70637
667.83        34.88171
668.26        35.11615
668.69        35.39783
669.11         35.6766
669.54        35.88177
669.96        36.00238
670.39        36.01213
670.82        35.97888
671.24        36.10366
671.67        36.36129
672.09        36.50889
672.52        36.54145
672.94        36.58125
673.37        36.65361
673.80        36.74826
674.22        36.86752
674.65         36.9569
675.07        37.02435
675.50        37.10283
675.92         37.2038
676.35        37.31429
676.77        37.43679
677.20        37.57723
677.62        37.72013
678.05        37.82886
678.47        37.89677
678.90        37.93772
679.32        37.97747
679.75        38.06633
680.17        38.21381
680.60        38.40819
681.02        38.60362
681.45        38.73087
681.87        38.78605
682.30        38.72958
682.72        38.63556
683.15        38.76256
683.57        39.07318
684.00        39.17978
684.42        39.10329
684.85        39.18833
685.27        39.43456
685.70        39.64376
686.12        39.77159
686.54        39.85054
686.97        39.88041
687.39        39.82286
687.82        39.85988
688.24        39.78652
688.66         39.8579
689.09         39.9203
689.51         40.0283
689.94        40.13754
690.36        40.23661
690.78        40.30202
691.21        40.35176
691.63         40.4338
692.06        40.55406
692.48         40.6867
692.90        40.80158
693.33        40.85627
693.75        40.84837
694.17        40.79543
694.60        40.74141
695.02        40.77021
695.44        40.89788
695.87        41.09531
696.29        41.31901
696.71        41.51201
697.14        41.63664
697.56        41.67723
697.98        41.66844
698.41         41.7322
698.83        41.87143
699.25         42.0489
699.68        42.20757
700.10        42.30653
700.52        42.32316
700.94        42.27739
701.37        42.20676
701.79        42.19437
702.21        42.25074
702.64        42.36239
703.06        42.49363
703.48        42.60081
703.90        42.67784
704.33        42.73963
704.75        42.80849
705.17        42.90474
705.59        43.02995
706.01        43.15064
706.44        43.26884
706.86        43.45108
707.28        43.56255
707.70        43.75249
708.12        43.93983
708.55        43.90879
708.97        43.71506
709.39        43.71023
709.81        43.88978
710.23        43.95153
710.66        43.88518
711.08         43.8863
711.50        43.96567
711.92        44.06152
712.34        44.17363
712.76        44.31921
713.19        44.46099
713.61        44.56531
714.03        44.60994
714.45        44.60261
714.87         44.5849
715.29        44.62616
715.71        44.74014
716.13        44.90676
716.56        45.07215
716.98        45.18935
717.40        45.22618
717.82        45.20801
718.24        45.17401
718.66        45.18744
719.08        45.26498
719.50        45.38073
719.92        45.51599
720.34        45.64151
720.76        45.74364
721.19         45.8285
721.61        45.89204
722.03        45.90506
722.45        45.86739
722.87        45.78428
723.29        45.69853
723.71        45.68089
724.13        45.74956
724.55        45.89174
724.97        46.05695
725.39        46.15904
725.81        46.17631
726.23        46.12992
726.65        46.07766
727.07        46.11282
727.49        46.25441
727.91        46.47223
728.33        46.69654
728.75         46.8119
729.17        46.79119
729.59        46.67429
730.01        46.53354
730.43        46.48545
730.85         46.5583
731.27        46.70879
731.69        46.89269
732.10        47.04245
732.52        47.12466
732.94        47.20235
733.36        47.27891
733.78        47.27101
734.20        47.16764
734.62        47.33819
735.04        47.07343
735.46        47.24661
735.88        47.56535
736.30        47.66731
736.72        47.53793
737.13        47.47448
737.55        47.48818
737.97        47.49405
738.39        47.49466
738.81        47.41468
739.23        47.31369
739.65        47.49531
740.06        47.84665
740.48        47.99965
740.90        47.90712
741.32        47.80399
741.74        47.69169
742.16        47.68606
742.57        47.80001
742.99        47.99783
743.41        48.21552
743.83         48.3448
744.25        48.35798
744.67        48.28274
745.08         48.1789
745.50        48.11791
745.92        48.13645
746.34        48.21342
746.75        48.30321
747.17        48.34279
747.59          48.318
748.01        48.21609
748.42        48.10313
748.84        48.14559
749.26         48.3143
749.68        48.44883
750.09        48.50913
750.51        48.45489
750.93        48.35613
751.35        48.49447
751.76        48.81451
752.18        48.92284
752.60        48.78465
753.01        48.68041
753.43        48.66525
753.85        48.59632
754.27        48.45846
754.68        48.89445
755.10        48.77504
755.52        48.96296
755.93        49.11985
756.35        49.27546
756.77        49.37582
757.18        49.47966
757.60        49.63894
758.02        49.52555
758.43        49.17414
758.85        49.72094
759.26        50.09355
759.68        49.60733
760.10         49.5694
760.51        48.92133
760.93        49.65412
761.34        49.62359
761.76        49.63144
762.18        49.60709
762.59        49.66973
763.01        49.61143
763.42        49.49669
763.84        49.47766
764.26        49.60329
764.67        49.77608
765.09        49.97504
765.50        50.21754
765.92        50.42375
766.33         50.3117
766.75         49.9036
767.16        49.63187
767.58        49.55283
768.00        49.53719
768.41        49.59146
768.83         49.7034
769.24        49.83361
769.66        49.98978
770.07         50.1205
770.49        50.14872
770.90        50.10796
771.32         50.1415
771.73        50.26122
772.15        50.33448
772.56        50.37311
772.97        50.43655
773.39        50.54786
773.80        50.55875
774.22        50.47183
774.63        50.39336
775.05        50.32696
775.46         50.2809
775.88        50.24796
776.29        50.26477
776.70        50.32434
777.12        50.40518
777.53        50.51332
777.95        50.64462
778.36         50.7783
778.77        50.86777
779.19        50.90213
779.60        50.89533
780.02        50.88181
780.43        50.93325
780.84        51.04165
781.26        51.21369
781.67        51.44279
782.09        51.49784
782.50        51.30729
782.91        51.64035
783.33        51.18374
783.74        51.13146
784.15        51.10246
784.57        51.06687
784.98        51.03278
785.39        51.10328
785.81        51.25868
786.22        51.34644
786.63        51.36593
787.04        51.45657
787.46         51.6163
787.87        51.73275
788.28         51.8105
788.70        51.87395
789.11        51.90179
789.52        51.96349
789.93        52.02079
790.35        51.84465
790.76        51.51937
791.17        51.42089
791.58         51.5568
792.00        51.58508
792.41        51.50834
792.82        51.58293
793.23        51.80877
793.65        51.90113
794.06        51.92202
794.47        52.28053
794.88        52.84047
795.29        52.92696
795.71        52.83532
796.12        52.53997
796.53         52.2406
796.94        52.07212
797.35        52.11036
797.76        52.19463
798.18        52.25028
798.59        52.44975
799.00        52.82413
799.41        52.31928
799.82        52.74646
800.23        52.68716
800.64        52.68636
801.06        52.65897
801.47         52.6459
801.88         52.6272
802.29        52.58805
802.70        52.56081
803.11         52.5354
803.52        52.49236
803.93        52.43822
804.34        52.37885
804.75        52.35207
805.17        52.43488
805.58        52.65844
805.99        52.90175
806.40        53.10527
806.81         53.3552
807.22        53.52501
807.63         53.2364
808.04        52.63699
808.45        52.36884
808.86        52.52825
809.27        52.79513
809.68        53.04832
810.09        53.20073
810.50        53.19612
810.91        53.06935
811.32        52.89704
811.73        52.81387
812.14        52.86029
812.55         52.9577
812.96        53.07185
813.37        53.22593
813.78        53.35744
814.19        53.31358
814.60        53.13359
815.01        53.02475
815.42        53.01265
815.83        52.98747
816.24        52.95766
816.65        52.99707
817.05        53.11115
817.46        53.24465
817.87        53.39697
818.28        53.52747
818.69        53.62437
819.10        53.70375
819.51        53.74921
819.92        53.73417
820.33        53.66257
820.74        53.53918
821.14        53.42369
821.55        53.44582
821.96        53.60796
822.37        53.88319
822.78        54.17783
823.19        54.31563
823.60        54.24977
824.00        54.05458
824.41        53.79388
824.82        53.64235
825.23        53.65487
825.64        53.78521
826.04        54.02075
826.45        54.31641
826.86        54.64061
827.27        54.99675
827.68        55.32827
828.08        55.56649
828.49        55.63041
828.90        55.56178
829.31        55.41164
829.72         55.2803
830.12        55.22292
830.53        55.19132
830.94        55.17781
831.35        55.13705
831.75        55.06912
832.16        54.95691
832.57        54.84798
832.97        54.78963
833.38        54.79112
833.79        54.84585
834.20        54.89222
834.60        54.83557
835.01        54.67229
835.42        54.42169
835.82        54.19968
836.23        54.15234
836.64        54.33252
837.04        54.70612
837.45        55.09846
837.86        55.30573
838.26        55.27994
838.67         55.0748
839.08        54.81478
839.48        54.69405
839.89        54.77212
840.29        54.97735
840.70        55.23832
841.11        55.44629
841.51        55.57628
841.92        55.63324
842.33        55.63365
842.73        55.59599
843.14        55.49235
843.54        55.33509
843.95        55.15614
844.35        55.02097
844.76        54.94511
845.17        54.92669
845.57        54.93542
845.98        54.88589
846.38        54.77854
846.79        54.62498
847.19        54.49073
847.60        54.45017
848.00        54.53572
848.41        54.69351
848.81        54.89016
849.22        55.01316
849.62        55.06099
850.03        55.03832
850.43        54.99404
850.84         54.9418
851.24        54.92683
851.65        54.89948
852.05        54.90733
852.46        54.97088
852.86        55.07927
853.27        55.24702
853.67        55.36554
854.07        55.39997
854.48        55.31978
854.88        55.16563
855.29        54.95165
855.69        54.85574
856.10        54.85888
856.50        54.97147
856.90        55.10943
857.31        55.15187
857.71        55.11765
858.12        55.01435
858.52        54.91051
858.92         54.8055
859.33        54.70607
859.73        54.60719
860.13        54.56833
860.54        54.71017
860.94        55.05647
861.34        55.54713
861.75        55.95592
862.15        55.99623
862.55        55.59407
862.96        54.86476
863.36        54.04436
863.76        53.53341
864.17        53.44315
864.57        53.66972
864.97        54.06081
865.38        54.34779
865.78        54.47522
866.18        54.49911
866.58        54.42967
866.99        54.30039
867.39        54.15663
867.79        53.94909
868.19         53.7234
868.60        53.53073
869.00        53.36893
869.40        53.26932
869.80        53.20416
870.21        53.11766
870.61        53.06094
871.01        53.00254
871.41        52.98146
871.81        53.05121
872.22        53.20269
872.62        53.44118
873.02         53.7123
873.42        53.90166
873.82        53.97544
874.22        53.96627
874.63        53.96127
875.03        54.09483
875.43        54.38515
875.83        54.77228
876.23        55.17582
876.63        55.46565
877.03        55.58401
877.44        55.55254
877.84        55.38792
878.24        55.11135
878.64        54.76038
879.04        54.36235
879.44        53.96168
879.84        53.60262
880.24        53.30612
880.64        53.08323
881.04        52.95512
881.44        52.94965
881.84        53.05494
882.24        53.22578
882.65        53.41135
883.05        53.61763
883.45        53.78361
883.85        53.92365
884.25        53.95102
884.65        53.73972
885.05        53.30099
885.45        52.68319
885.85        52.11189
886.25        51.97676
886.65        52.35888
887.05        53.12427
887.45        53.98857
887.85        54.51661
888.25        54.58452
888.65        54.29591
889.04        53.80425
889.44        53.43184
889.84        53.25803
890.24         53.1986
890.64        53.14977
891.04        52.95174
891.44        52.58738
891.84        52.15959
892.24        51.78838
892.64        51.63557
893.04        51.74198
893.44        52.04102
893.83        52.48263
894.23        52.92715
894.63        53.33531
895.03        53.71197
895.43        54.02012
895.83        54.20803
896.23        54.26746
896.63        54.20737
897.02        54.07089
897.42        53.94988
897.82        53.87054
898.22        53.83287
898.62        53.82803
899.01        53.84062
899.41        53.84787
899.81        53.84865
900.21        53.86404
900.61        53.92493
901.00        54.01577
901.40        54.14902
901.80        54.22423
902.20        54.09958
902.59         53.7785
902.99        53.30899
903.39        52.86672
903.79        52.72873
904.18        52.94764
904.58        53.40841
904.98        53.95175
905.38        54.34486
905.77        54.50614
906.17        54.50229
906.57        54.35818
906.96        54.14013
907.36        53.87389
907.76        53.55396
908.15        53.21518
908.55        52.86403
908.95        52.55328
909.34        52.30015
909.74        52.17236
910.14        52.19025
910.53        52.35238
910.93        52.62447
911.33         52.9601
911.72          53.284
912.12        53.52697
912.52        53.70145
912.91        53.78808
913.31        53.77501
913.70        53.67551
914.10        53.47561
914.49        53.24562
914.89        53.08981
915.29        53.05143
915.68        53.11941
916.08        53.21608
916.47        53.19287
916.87        53.04193
917.26         52.8004
917.66        52.58936
918.05        52.56744
918.45        52.75148
918.84        53.09231
919.24        53.46193
919.64        53.72708
920.03        53.85513
920.42        53.89106
920.82        53.85752
921.21         53.7826
921.61        53.68466
922.00        53.54605
922.40        53.46751
922.79        53.66812
923.19        54.13679
923.58         54.8333
923.98         55.4755
924.37        55.70045
924.77        55.42754
925.16        54.74739
925.55        53.93879
925.95        53.49432
926.34        53.54328
926.74        53.92976
927.13        54.44581
927.52        54.65911
927.92        54.47871
928.31        54.04606
928.70         53.5334
929.10        53.18865
929.49         53.0808
929.89        53.10426
930.28        53.22663
930.67        53.31899
931.07        53.32174
931.46        53.29623
931.85        53.23677
932.24        53.15296
932.64        53.04706
933.03        52.90194
933.42        52.72676
933.82        52.54749
934.21         52.3744
934.60        52.22537
934.99         52.0907
935.39        51.93205
935.78        51.76772
936.17        51.60858
936.56        51.52718
936.96        51.61891
937.35        51.93781
937.74        52.41688
938.13         52.9183
938.53        53.26104
938.92        53.41545
939.31        53.39509
939.70        53.32452
940.09        53.42156
940.49        53.69685
940.88        54.10774
941.27        54.46141
941.66        54.46975
942.05         54.0941
942.44        53.45449
942.84        52.77712
943.23         52.3547
943.62        52.30344
944.01         52.5138
944.40        52.86702
944.79        53.14442
945.18         53.2444
945.57        53.23236
945.97        53.05734
946.36        52.72353
946.75        52.22635
947.14        51.58067
947.53        50.93377
947.92        50.56005
948.31        50.54156
948.70        50.81115
949.09         51.2406
949.48        51.61077
949.87          51.846
950.26         51.9988
950.65        52.09477
951.04        52.17977
951.43        52.27837
951.82        52.36633
952.21        52.44526
952.60        52.53913
952.99        52.63736
953.38        52.70778
953.77        52.76219
954.16        52.81445
954.55        52.85204
954.94        52.88333
955.33        52.79227
955.72        52.38736
956.11        51.65446
956.50        50.66286
956.89        49.67107
957.28        49.12471
957.66        49.17874
958.05        49.72504
958.44        50.49128
958.83        51.02383
959.22        51.18325
959.61        51.05732
960.00        50.85227
960.39         50.9128
960.78         51.3016
961.16        51.90527
961.55        52.42701
961.94        52.44839
962.33        51.89419
962.72        50.98943
963.11        50.03825
963.49        49.45761
963.88          49.372
964.27        49.66885
964.66        50.28806
965.04        51.12033
965.43        51.97546
965.82        52.85518
966.21        53.63958
966.60        54.18969
966.98         54.4651
967.37        54.43206
967.76        54.11439
968.15        53.59169
968.53        52.97202
968.92         52.3563
969.31         51.8094
969.69        51.36919
970.08        51.07768
970.47        50.96361
970.86        51.23766
971.24        52.22906
971.63         53.8008
972.02        55.69663
972.40        57.50385
972.79        58.53327
973.17        58.76647
973.56        58.32493
973.95        57.44207
974.33        56.52248
974.72        55.76644
975.11        55.06413
975.49        54.45229
975.88        54.02823
976.26        53.79586
976.65        53.82604
977.04        53.92908
977.42        53.71484
977.81        53.06825
978.19         52.0103
978.58        51.01662
978.96        50.82656
979.35        51.59235
979.74        53.09892
980.12        54.74491
980.51        55.35252
980.89        54.75494
981.28        53.20943
981.66        51.38478
982.05        50.60408
982.43        51.22273
982.82        52.78448
983.20        54.69823
983.59        55.90032
983.97        56.19029
984.35        55.84586
984.74        55.13622
985.12        54.48628
985.51        54.11123
985.89        53.92359
986.28        53.92353
986.66        54.25322
987.04         54.8325
987.43        55.57151
987.81        56.40644
988.20        57.10829
988.58        57.59578
988.96         57.9362
989.35        57.82998
989.73        56.91261
990.12        55.10414
990.50        52.30495
990.88        49.32079
991.27          48.042
991.65        49.04222
992.03        51.81981
992.42        54.66286
992.80        55.75484
993.18        54.64632
993.56        51.68859
993.95         48.0305
994.33        46.38567
994.71        47.97759
995.10        51.35147
995.48        54.90907
995.86        56.94258
996.24        57.31105
996.63        56.55444
997.01        55.17733
997.39        54.23591
997.77        54.25796
998.15        54.87867
998.54        55.59267
998.92        55.80108
999.30        55.32975
999.68        54.40438
1000.06         53.4435
1000.45        53.08987
1000.83        53.57552
1001.21        54.64455
1001.59        55.74895
1001.97        56.08414
1002.35        55.51444
1002.73        54.31791
1003.12        53.03307
1003.50        52.55881
1003.88        53.27605
1004.26        54.65796
1004.64        56.34928
1005.02        58.00227
1005.40        59.50171
1005.78        61.03885
1006.16        62.13022
1006.54        61.89619
1006.92        60.18784
1007.30        57.18088
1007.69         54.0251
1008.07        52.56592
1008.45        53.30777
1008.83         55.7363
1009.21        58.43362
1009.59        59.25268
1009.97        57.61174
1010.35        53.82502
1010.73        48.99461
1011.11         46.1192
1011.49        46.68597
1011.86         49.9489
1012.24        53.94814
1012.62        56.21384
1013.00        56.22823
1013.38         54.8085
1013.76        52.94947
1014.14        52.25959
1014.52        53.26544
1014.90        55.41339
1015.28        58.08001
1015.66        60.08475
1016.04        60.85021
1016.41        60.79772
1016.79        60.08504
1017.17        59.29436
1017.55        58.66214
1017.93        58.14339
1018.31        57.67294
1018.69        57.12179
1019.06         56.5649
1019.44        56.17894
1019.82         56.4007
1020.20        57.99441
1020.58        60.78423
1020.95        63.89075
1021.33        66.59772
1021.71        68.16823
1022.09        68.43888
1022.46        67.71006
1022.84        65.59045
1023.22        61.18235
1023.60         54.3541
1023.97        44.82076
1024.35         34.7338
1024.73        28.85631
