SpectraSmart Spectrum 2.9.0.0
--------- Device Information -----------
Spectrum Name :  反射率_0
Saving Time :  2024/04/27 22:33:14
Spectro-Module Model Name : SE2030-DUVN
Spectro-Module Serial Number : OS361AC55029948
Wavelength Start : 200
Wavelength End : 1025
Wavelength Unit : Wavelength(nm)
Spectrum Unit : Reflectance(%)
-----------Spectrum Setting ------------
Integration Time : 20ms
Average : 10
Boxcar : 0
Background removal :  enabled
linearity correction :  enabled
SC :  disabled
Intensity correction :  disabled
DWT denoise :  enabled
savitzky-golay :  disabled
FFT :  disabled
Running average :  disabled
Kalman :  disabled
High pass :  disabled
---------------BEGIN--------------------
Wavelength(nm)             Reflectance(%)
200.29               0
200.75       -9.511198
201.21        9.359659
201.67         27.1506
202.13        33.81403
202.58        32.59834
203.04        28.13505
203.50        25.47556
203.96        30.40195
204.42        41.59797
204.88        54.93409
205.34        65.87878
205.80        71.10513
206.26         70.4983
206.72        63.24798
207.18        49.63254
207.64        41.25918
208.10        46.42006
208.55        57.94403
209.01        64.47246
209.47        61.27266
209.93         45.8269
210.39        2.997817
210.85       -129.5422
211.31       -298.8712
211.77        -113.035
212.23        13.14727
212.69        58.83109
213.14         74.2289
213.60        76.82667
214.06        72.31554
214.52        58.20255
214.98        39.39675
215.44        31.19674
215.90        30.75708
216.36        34.26167
216.81        40.04532
217.27        47.01818
217.73        55.92636
218.19        64.57275
218.65        68.26397
219.11        65.48077
219.57        57.03026
220.02        44.23668
220.48        33.54787
220.94        28.58681
221.40        27.95672
221.86        30.96076
222.32        36.45435
222.77        43.12574
223.23        50.32725
223.69        56.21353
224.15        58.72652
224.61        57.97099
225.06        54.42782
225.52        49.73105
225.98        46.97985
226.44          46.909
226.90        48.01159
227.36        48.92692
227.81        48.43449
228.27        46.44829
228.73        43.37794
229.19        39.51184
229.65          35.688
230.10         32.5611
230.56         30.4044
231.02        29.13669
231.48        28.65779
231.93        28.78413
232.39        29.48573
232.85        30.86262
233.31        33.05315
233.77        35.83709
234.22        39.05132
234.68         41.8094
235.14        43.14031
235.60        42.92781
236.05        41.21984
236.51        39.08728
236.97        38.84539
237.43        41.29591
237.88        45.93909
238.34        50.55583
238.80        52.83251
239.26        52.14824
239.71        48.06604
240.17        40.84543
240.63        36.99505
241.08        42.18907
241.54        51.53739
242.00        59.12897
242.46        62.81186
242.91        63.50343
243.37        61.36293
243.83         55.2121
244.28        47.61967
244.74        48.66462
245.20        57.08635
245.66        63.30201
246.11        63.50686
246.57        58.23803
247.03        47.15849
247.48        30.01014
247.94        18.22484
248.40        23.83848
248.85        39.73729
249.31        56.55368
249.77        67.04169
250.22        71.31496
250.68        72.43402
251.14        71.81902
251.59        70.37798
252.05        68.23798
252.51        64.06554
252.96        57.65631
253.42        52.91438
253.88        52.33773
254.33        55.08939
254.79        57.56195
255.25        56.55778
255.70        52.94998
256.16         48.8488
256.62         46.4012
257.07        47.82779
257.53        52.16049
257.99        57.01576
258.44        60.53807
258.90         61.5975
259.35        60.31673
259.81        58.06322
260.27        55.46262
260.72         53.2513
261.18        51.87476
261.63        50.78052
262.09        49.96237
262.55        49.07384
263.00        48.00291
263.46        47.00238
263.91        46.05666
264.37        45.43721
264.83        45.08122
265.28         44.8537
265.74        44.66994
266.19        44.25703
266.65        43.64525
267.11        42.86985
267.56        42.02164
268.02        41.34116
268.47        40.83506
268.93        40.44381
269.38        40.07129
269.84        39.59551
270.30        38.97637
270.75        38.26245
271.21        37.48313
271.66        36.63496
272.12        35.76292
272.57         34.8404
273.03        33.96466
273.48        33.20638
273.94        32.62783
274.39        32.17184
274.85        31.80012
275.31        31.37757
275.76        30.85906
276.22        30.30584
276.67        29.74163
277.13        29.29087
277.58        28.92546
278.04        28.65445
278.49        28.36046
278.95        27.98305
279.40        27.46812
279.86        26.90303
280.31        26.35031
280.77        26.01033
281.22        25.86459
281.68        25.88545
282.13        25.91842
282.59        25.79365
283.04        25.47124
283.50        25.02674
283.95        24.57928
284.41        24.34503
284.86        24.34549
285.32        24.51933
285.77        24.71599
286.22        24.75503
286.68        24.61611
287.13        24.33134
287.59        24.03811
288.04        23.86796
288.50        23.88093
288.95        24.00447
289.41        24.16067
289.86        24.19107
290.32        24.09075
290.77        23.91085
291.22         23.7636
291.68        23.80727
292.13        24.06208
292.59        24.48185
293.04        24.97125
293.50        25.40756
293.95        25.74779
294.40        26.04668
294.86        26.35422
295.31        26.73979
295.77        27.23321
296.22         27.7894
296.68        28.40723
297.13        29.06312
297.58        29.73961
298.04        30.43403
298.49        31.10246
298.95        31.69546
299.40        32.20663
299.85         32.6551
300.31         33.1056
300.76        33.62201
301.21        34.22377
301.67        34.88542
302.12        35.53099
302.58        36.09455
303.03        36.53563
303.48        36.88138
303.94        37.19494
304.39        37.51867
304.84        37.88441
305.30        38.29051
305.75        38.65561
306.20        38.90177
306.66        39.03335
307.11        39.04661
307.57        39.06845
308.02        39.22424
308.47        39.54071
308.93          39.961
309.38        40.32408
309.83        40.41919
310.29        40.22421
310.74        39.80974
311.19        39.32298
311.65        38.99382
312.10         38.8718
312.55        38.89294
313.00        38.99436
313.46        39.07808
313.91        39.09647
314.36        39.08345
314.82        39.01434
315.27         38.8422
315.72        38.56995
316.18        38.21445
316.63        37.82777
317.08        37.52359
317.53        37.32935
317.99        37.21442
318.44        37.14158
318.89        37.02726
319.35        36.84737
319.80        36.63166
320.25        36.39754
320.70        36.17751
321.16         35.9754
321.61        35.78122
322.06        35.59252
322.51        35.41344
322.97        35.23766
323.42        35.08286
323.87        34.92062
324.32         34.7107
324.78        34.44432
325.23        34.13749
325.68        33.83678
326.13        33.62868
326.59        33.51595
327.04        33.49224
327.49        33.47308
327.94        33.32957
328.39        33.02751
328.85        32.59583
329.30        32.11893
329.75        31.72757
330.20        31.47139
330.66        31.30696
331.11        31.20162
331.56        31.04486
332.01        30.80614
332.46        30.52071
332.92        30.22609
333.37        30.01655
333.82         29.9081
334.27        29.86802
334.72         29.8606
335.17        29.83266
335.63        29.75475
336.08         29.6577
336.53        29.53516
336.98        29.39055
337.43        29.23275
337.88        29.06307
338.34        28.89809
338.79        28.77229
339.24        28.69417
339.69        28.65675
340.14         28.6474
340.59        28.64306
341.05        28.63136
341.50        28.61822
341.95        28.58792
342.40        28.52677
342.85        28.43086
343.30         28.2974
343.75        28.14244
344.20        27.99419
344.66         27.8673
345.11        27.76176
345.56        27.65884
346.01        27.52366
346.46        27.35358
346.91        27.15807
347.36        26.99234
347.81        26.93604
348.26        26.99993
348.72        27.16261
349.17        27.33069
349.62         27.3576
350.07        27.20998
350.52        26.91687
350.97        26.60798
351.42        26.49282
351.87        26.60924
352.32        26.89534
352.77        27.17288
353.22        27.16813
353.67        26.83625
354.13        26.28511
354.58        25.69867
355.03        25.42126
355.48         25.5299
355.93        25.91149
356.38        26.36559
356.83        26.58135
357.28        26.47927
357.73        26.15985
358.18        25.76034
358.63        25.49326
359.08        25.41273
359.53        25.43806
359.98        25.48693
360.43        25.43825
360.88        25.26042
361.33        25.00684
361.78        24.71184
362.23        24.45603
362.68        24.27407
363.13        24.07885
363.58        23.86111
364.03        23.96095
364.48        23.80374
364.93        23.83101
365.38        23.85073
365.83        23.83821
366.28        23.77452
366.73        23.67357
367.18         23.5284
367.63        23.31744
368.08        23.05151
368.53        22.74401
368.98        22.44856
369.43        22.24939
369.88        22.16618
370.33         22.1778
370.78        22.23023
371.23        22.23303
371.68        22.15186
372.13        21.99779
372.58        21.80629
373.03        21.63708
373.48        21.51237
373.93        21.43136
374.38        21.34169
374.83        21.16158
375.28        20.88673
375.72        20.53362
376.17        20.24553
376.62        20.20275
377.07         20.4181
377.52        20.80774
377.97        21.18705
378.42        21.27105
378.87        21.00381
379.32        20.49261
379.77        19.88828
380.22         19.4176
380.67        19.15021
381.11        19.02308
381.56        18.99552
382.01        18.99801
382.46         18.9994
382.91        19.02748
383.36        19.06325
383.81        19.06939
384.26        19.03575
384.71        18.95418
385.15        18.83959
385.60        18.75811
386.05         18.7127
386.50        18.69619
386.95        18.67893
387.40        18.61326
387.85        18.49734
388.29        18.34124
388.74        18.21214
389.19        18.16098
389.64        18.18842
390.09        18.26041
390.54        18.33012
390.98         18.3209
391.43        18.22562
391.88         18.0786
392.33        17.89264
392.78        17.71531
393.23        17.57078
393.67         17.3676
394.12        17.16248
394.57        17.23594
395.02        17.28047
395.47        17.25138
395.91        17.07633
396.36         16.9779
396.81        16.96761
397.26        16.92215
397.71        16.84047
398.15        16.78458
398.60        16.77418
399.05        16.72447
399.50        16.66492
399.95        16.74591
400.39        16.91336
400.84        16.90933
401.29         16.7357
401.74        16.56482
402.18        16.45044
402.63        16.42336
403.08        16.45804
403.53        16.41989
403.97        16.30498
404.42        16.21814
404.87        16.17475
405.32         16.1644
405.76        16.18407
406.21        16.18891
406.66        16.17933
407.11        16.23479
407.55         16.3063
408.00        16.22728
408.45        16.00565
408.90         15.7158
409.34        15.45351
409.79        15.41538
410.24        15.56509
410.68        15.64241
411.13        15.62384
411.58        15.67295
412.03         15.7853
412.47        15.86595
412.92         15.8927
413.37        15.89208
413.81        15.86093
414.26        15.80987
414.71        15.74054
415.15        15.65187
415.60        15.55538
416.05        15.47943
416.49        15.43626
416.94        15.42185
417.39        15.42189
417.83        15.41202
418.28        15.37909
418.73        15.31975
419.17        15.25675
419.62        15.23004
420.07        15.25138
420.51        15.31729
420.96         15.3721
421.41        15.34935
421.85        15.23878
422.30         14.9968
422.74        14.74078
423.19        14.82714
423.64        15.20395
424.08        15.44296
424.53        15.42644
424.98        15.40641
425.42        15.37739
425.87        15.07499
426.31        14.63161
426.76         14.5663
427.21        14.82217
427.65        14.83917
428.10        14.63776
428.54        14.62316
428.99        14.78858
429.44        15.05044
429.88        15.26164
430.33        15.00837
430.77        14.45548
431.22        14.26856
431.66        14.46614
432.11        14.63656
432.56        14.72281
433.00        14.84172
433.45         14.8433
433.89        14.60302
434.34        14.38814
434.78        13.72147
435.23        14.34571
435.67        14.86733
436.12        15.08561
436.57        15.16211
437.01        14.98508
437.46        14.84725
437.90        14.83634
438.35        14.86867
438.79        14.50371
439.24        14.37809
439.68        14.37975
440.13        14.45271
440.57        14.54338
441.02        14.69409
441.46        14.84388
441.91        14.67624
442.35        14.33204
442.80        14.46932
443.24        14.96266
443.69        14.95336
444.13        14.47769
444.58        14.28162
445.02        14.37249
445.47         14.3728
445.91        14.25666
446.36        14.18232
446.80        14.14792
447.24         14.1067
447.69        14.08616
448.13        14.16552
448.58        14.32596
449.02        14.47384
449.47        14.58014
449.91        14.66884
450.36        14.73028
450.80        14.72369
451.25        14.67488
451.69        14.65091
452.13        14.65752
452.58        14.66199
453.02         14.6416
453.47        14.56917
453.91         14.4416
454.36        14.30209
454.80        14.15755
455.24         14.0018
455.69        13.87964
456.13        13.80254
456.58         13.7932
457.02        13.93559
457.46        14.14059
457.91        14.15745
458.35        14.04662
458.79        13.99082
459.24        14.01609
459.68        13.99361
460.13         13.9499
460.57        13.90589
461.01        13.93055
461.46        14.02341
461.90        14.09184
462.34        14.14174
462.79        14.37689
463.23         14.4178
463.68        14.34259
464.12        14.24772
464.56        14.16284
465.01        14.12732
465.45         14.0924
465.89         13.9815
466.34        13.84555
466.78        13.75254
467.22        13.70348
467.67         13.9856
468.11        13.96854
468.55        14.00336
468.99        13.92124
469.44         13.8932
469.88        13.92095
470.32        13.89513
470.77        13.84083
471.21        13.84443
471.65        13.91603
472.10        14.03453
472.54        14.14702
472.98         14.1911
473.42        14.16036
473.87        14.03933
474.31        13.89549
474.75        13.96242
475.20        14.20646
475.64        14.32999
476.08        14.30256
476.52        14.35726
476.97         14.5015
477.41        14.46064
477.85        14.38383
478.29        14.48379
478.74        14.40256
479.18        14.30038
479.62        14.54286
480.06        14.60134
480.50        14.62756
480.95        14.62302
481.39        14.57456
481.83        14.77597
482.27        14.78501
482.72        14.71983
483.16        14.91496
483.60        14.98052
484.04        15.03863
484.48        15.14104
484.93        15.39114
485.37        15.42512
485.81        15.63804
486.25        15.98397
486.69         15.7595
487.14        15.18304
487.58        16.27884
488.02        16.19131
488.46        16.29764
488.90        16.31077
489.34        15.92496
489.79        15.79582
490.23        16.36491
490.67        16.70614
491.11        16.90263
491.55        16.89997
491.99        16.78008
492.43        16.83088
492.88        17.07115
493.32        17.28215
493.76        17.43033
494.20        17.62026
494.64        17.85903
495.08        18.06067
495.52        18.21916
495.96        18.48806
496.41        18.84719
496.85        18.80126
497.29        18.50258
497.73        18.69042
498.17         19.2927
498.61        19.65454
499.05        19.67035
499.49          19.668
499.93        19.70465
500.37        19.72366
500.82        19.74759
501.26        19.85915
501.70        20.07984
502.14        19.97963
502.58        20.25769
503.02        20.36231
503.46        20.41349
503.90        20.44446
504.34        20.46424
504.78        20.55164
505.22        20.70482
505.66        20.86386
506.10        21.00433
506.54        21.14626
506.98         21.2853
507.42        21.31391
507.86        21.40969
508.30        21.45767
508.74        21.51477
509.18        21.56919
509.62         21.6238
510.06        21.68077
510.50        21.73731
510.94        21.79498
511.38        21.84754
511.82        21.88372
512.26         21.9015
512.70        21.90644
513.14        21.90465
513.58        21.89737
514.02         21.8882
514.46        21.89392
514.90        21.92196
515.34          21.906
515.78        21.97167
516.22        22.01245
516.66        22.06246
517.10        22.11246
517.54        22.15827
517.98        22.19831
518.42        22.21968
518.86        22.20696
519.30        22.15935
519.74        22.08293
520.18        22.00017
520.62        21.94536
521.06        21.92763
521.50        21.94078
521.93        21.96605
522.37        21.96255
522.81        21.92365
523.25        21.85707
523.69         21.7852
524.13        21.74398
524.57         21.7376
525.01        21.75078
525.45        21.75296
525.89        21.69674
526.32         21.5717
526.76        21.40669
527.20        21.23027
527.64        21.09015
528.08        21.00143
528.52        20.94711
528.96        20.92162
529.40        20.91578
529.83        20.91821
530.27        20.93125
530.71        20.93002
531.15        20.87492
531.59        20.76313
532.03        20.61024
532.46        20.44805
532.90        20.34218
533.34        20.30608
533.78        20.32086
534.22        20.36844
534.66        20.42007
535.09        20.45936
535.53        20.49465
535.97        20.51394
536.41        20.50149
536.85        20.45702
537.28        20.38709
537.72        20.30704
538.16        20.24094
538.60        20.20189
539.04        20.19392
539.47         20.2139
539.91        20.26614
540.35        20.34297
540.79         20.4464
541.22        20.56713
541.66        20.69002
542.10        20.80801
542.54        20.92266
542.97        21.03103
543.41        21.14381
543.85        21.26063
544.29        21.37997
544.72        21.50285
545.16        21.64778
545.60        21.80986
546.04        21.98477
546.47        22.16526
546.91         22.3337
547.35         22.4838
547.79        22.63125
548.22        22.77245
548.66        22.89726
549.10        23.02291
549.53        23.23166
549.97        23.51037
550.41        23.75609
550.84        23.95526
551.28        24.16616
551.72         24.3806
552.15        24.55595
552.59        24.69734
553.03        24.80965
553.46        24.91108
553.90        25.05104
554.34        25.23245
554.77        25.44722
555.21        25.66647
555.65        25.84336
556.08        25.93893
556.52        26.02775
556.96        26.10653
557.39        26.20916
557.83         26.3227
558.27        26.33075
558.70        26.26971
559.14        26.29766
559.57        26.42265
560.01        26.59713
560.45        26.77053
560.88        26.86545
561.32        26.91612
561.75        26.97365
562.19         27.0725
562.63        27.28013
563.06        27.53607
563.50         27.6008
563.93        27.50008
564.37          27.532
564.80         27.7006
565.24        27.85428
565.68        27.98128
566.11        28.12303
566.55        28.28226
566.98        28.46732
567.42        28.66043
567.85         28.7518
568.29        28.78688
568.72        28.86835
569.16        29.04337
569.60        29.24026
570.03        29.45362
570.47        29.61632
570.90        30.10534
571.34        30.06967
571.77        30.48564
572.21        30.49565
572.64        30.72326
573.08        30.63289
573.51        30.99329
573.95        31.07473
574.38        31.08393
574.82        30.91536
575.25        31.25256
575.69        31.20435
576.12        31.02461
576.56        31.48684
576.99        31.62678
577.42        31.47746
577.86        31.44309
578.29        31.81127
578.73        31.41264
579.16        31.36593
579.60        31.22387
580.03        31.08581
580.47        30.95968
580.90        30.82766
581.33        30.84876
581.77         30.8474
582.20         30.6238
582.64        30.40054
583.07         30.2233
583.51        30.09048
583.94         30.1162
584.37        29.99144
584.81         29.7389
585.24        29.61826
585.68        29.62723
586.11        29.49275
586.54        29.07059
586.98        29.04236
587.41        29.18411
587.85        29.00789
588.28        28.76361
588.71        28.69381
589.15        28.86165
589.58        28.70169
590.01        28.86723
590.45        28.97449
590.88        28.49423
591.31        28.45474
591.75         28.6251
592.18        28.66353
592.61         28.6185
593.05        28.72508
593.48        29.07892
593.91        28.86255
594.35        28.88186
594.78        29.11082
595.21         29.2606
595.65        29.39879
596.08        29.34061
596.51        29.79823
596.94         29.7681
597.38        30.10322
597.81        30.54359
598.24        30.60677
598.68         31.0604
599.11        31.48984
599.54        32.03986
599.97          31.996
600.41         32.5962
600.84         32.9113
601.27         33.3114
601.70        33.52124
602.14        33.85185
602.57        34.48052
603.00        35.05809
603.43        35.51563
603.87        35.95195
604.30        36.19558
604.73        36.77431
605.16        37.37961
605.60        37.68063
606.03        38.29331
606.46        38.95377
606.89        39.40089
607.32        39.60644
607.76        40.12511
608.19        40.34394
608.62        40.69059
609.05        41.02194
609.48        41.30629
609.92        41.53537
610.35        42.03848
610.78        42.47634
611.21        42.59822
611.64        43.21928
612.07         43.4497
612.50        43.57098
612.94        43.80689
613.37        44.22501
613.80        44.24605
614.23        44.65779
614.66        44.92812
615.09        45.25965
615.52        45.64986
615.96        46.08156
616.39        46.03287
616.82        46.35756
617.25        46.44003
617.68        46.73368
618.11        46.92933
618.54        47.09945
618.97        47.32621
619.40        47.58238
619.84        47.85843
620.27        48.05927
620.70        48.20563
621.13        48.24753
621.56        48.53642
621.99        48.54848
622.42        48.49209
622.85        48.58516
623.28        48.47752
623.71        48.70669
624.14        48.25364
624.57        48.70016
625.00        48.72683
625.43        48.46932
625.86        48.35339
626.29        48.31628
626.72        48.17383
627.15        47.97868
627.58        47.86447
628.01        47.90541
628.44        47.42415
628.87        47.10818
629.30        47.24301
629.73        46.78703
630.16        46.08007
630.59        46.00603
631.02        45.60225
631.45        45.33759
631.88        44.99462
632.31        44.63844
632.74        44.06556
633.17        43.72179
633.60        43.26767
634.03        42.83401
634.46        42.41118
634.89        41.98915
635.32        41.53591
635.75        41.04585
636.18        40.55952
636.61        40.08755
637.04        39.59732
637.47        39.11802
637.89        38.75389
638.32        38.47241
638.75        38.16094
639.18          37.812
639.61        37.49257
640.04        37.20112
640.47        36.91392
640.90        36.63401
641.33        36.35358
641.76        36.08343
642.18        35.93213
642.61        35.76365
643.04        35.68214
643.47        35.63642
643.90        35.61158
644.33         35.6002
644.76        35.60972
645.18        35.64117
645.61        35.69032
646.04        35.76109
646.47        35.85183
646.90        35.98165
647.33        36.18515
647.75        36.47587
648.18        36.83923
648.61        37.23898
649.04        37.68516
649.47        38.15347
649.89        38.46305
650.32        38.70078
650.75        39.32817
651.18         40.2663
651.61        40.86382
652.03        41.06726
652.46         41.4804
652.89        42.19804
653.32        42.47651
653.74         42.5988
654.17        43.86688
654.60        44.30348
655.03        44.76991
655.46        45.16639
655.88        46.15261
656.31        47.83325
656.74        49.27197
657.16         49.0971
657.59        49.49435
658.02        48.56943
658.45         48.7092
658.87        49.65495
659.30        49.83273
659.73        49.85889
660.15        50.16691
660.58        50.35566
661.01        50.77553
661.44        51.19872
661.86        51.59279
662.29        51.89024
662.72        51.94527
663.14        51.88019
663.57         52.1272
664.00        52.64755
664.42        52.93773
664.85        52.98472
665.27        53.10246
665.70        53.30251
666.13         53.4499
666.55        53.55222
666.98        53.65377
667.41        53.77021
667.83        53.91717
668.26        54.08708
668.69        54.27346
669.11        54.46908
669.54        54.64157
669.96        54.78121
670.39        54.93243
670.82        55.08518
671.24        55.09297
671.67        55.01296
672.09        55.14455
672.52        55.44254
672.94        55.50945
673.37         55.3722
673.80        55.34774
674.22        55.48396
674.65        55.59825
675.07        55.70327
675.50        55.90166
675.92         56.1645
676.35        56.25162
676.77        56.37746
677.20        56.38711
677.62        56.38488
678.05        56.41242
678.47        56.48942
678.90        56.60727
679.32        56.74782
679.75        56.90257
680.17        57.06057
680.60        57.22593
681.02         57.3844
681.45        57.51184
681.87        57.61482
682.30        57.63655
682.72        57.60983
683.15        57.72017
683.57        57.92706
684.00        57.87725
684.42        57.65002
684.85        57.67113
685.27        57.95418
685.70        58.27083
686.12        58.54016
686.54        58.75138
686.97        58.86182
687.39        58.88343
687.82        58.85123
688.24        58.72031
688.66        58.80567
689.09         58.8119
689.51        58.84797
689.94        59.00401
690.36        59.25296
690.78        59.37038
691.21        59.36497
691.63        59.50226
692.06        59.73245
692.48        59.70733
692.90        59.47681
693.33        59.38408
693.75        59.45934
694.17        59.53077
694.60         59.5936
695.02        59.72131
695.44        59.89574
695.87        60.13287
696.29        60.38554
696.71        60.49772
697.14        60.47665
697.56        60.53758
697.98         60.6732
698.41        60.76394
698.83        60.79843
699.25        60.87736
699.68        60.98291
700.10        61.08687
700.52        61.17548
700.94        61.26528
701.37        61.33766
701.79        61.39388
702.21        61.41866
702.64        61.42337
703.06        61.42795
703.48        61.48412
703.90        61.60845
704.33          61.785
704.75        61.98285
705.17        62.13017
705.59        62.20397
706.01         62.1933
706.44        62.15841
706.86        62.28756
707.28        62.41765
707.70        62.72718
708.12         63.0596
708.55         63.0727
708.97        62.81499
709.39        62.73877
709.81        62.88676
710.23        62.96222
710.66        62.96857
711.08        63.12985
711.50        63.36929
711.92        63.47496
712.34        63.42524
712.76        63.28206
713.19         63.1262
713.61        63.13483
714.03        63.32538
714.45        63.63639
714.87        63.97173
715.29        64.18973
715.71        64.25372
716.13        64.20775
716.56         64.0937
716.98        64.05364
717.40        64.10392
717.82        64.20921
718.24        64.34229
718.66        64.45995
719.08         64.5441
719.50        64.61643
719.92        64.67889
720.34        64.71313
720.76        64.72882
721.19         64.7521
721.61        64.78694
722.03        64.78514
722.45         64.7438
722.87        64.68087
723.29        64.62596
723.71        64.62376
724.13        64.68717
724.55        64.80651
724.97        64.95987
725.39        65.08932
725.81         65.2173
726.23        65.30933
726.65        65.39269
727.07         65.4952
727.49        65.62026
727.91        65.75842
728.33        65.86883
728.75        65.88679
729.17        65.80627
729.59        65.65549
730.01        65.50287
730.43        65.45847
730.85         65.5425
731.27        65.71024
731.69        65.91293
732.10        66.07385
732.52        66.15453
732.94        66.23367
733.36        66.30419
733.78        66.24802
734.20         66.0571
734.62        66.21461
735.04        65.74829
735.46        66.02188
735.88        66.57062
736.30         66.6032
736.72        66.16913
737.13        66.00683
737.55        66.14847
737.97        66.39847
738.39        66.63065
738.81        66.37998
739.23        65.79605
739.65        65.88235
740.06        66.51405
740.48        66.74279
740.90        66.50456
741.32        66.40105
741.74        66.41422
742.16        66.49934
742.57        66.64658
742.99        66.89809
743.41        67.17169
743.83        67.26959
744.25        67.19143
744.67        67.08569
745.08        67.04019
745.50        67.05341
745.92        67.16116
746.34        67.39539
746.75        67.64561
747.17         67.7094
747.59        67.56235
748.01        67.23711
748.42        66.87757
748.84        66.82518
749.26        67.09047
749.68        67.31241
750.09        67.42749
750.51        67.67955
750.93        67.96637
751.35        67.92943
751.76         67.6361
752.18        67.47035
752.60        67.48047
753.01        67.47723
753.43        67.44067
753.85        67.45522
754.27         67.5205
754.68        67.62646
755.10         67.7515
755.52        67.85338
755.93        67.92295
756.35        67.96342
756.77        67.98384
757.18        68.07516
757.60         68.2625
758.02        68.36086
758.43        68.31206
758.85        68.69792
759.26        68.54447
759.68        68.40143
760.10        68.16272
760.51        67.54415
760.93        68.14529
761.34        67.99371
761.76        68.16875
762.18        68.39195
762.59        68.19818
763.01        68.49315
763.42         68.9736
763.84        69.15986
764.26        69.03526
764.67        68.64193
765.09         68.2311
765.50        68.47672
765.92        69.18179
766.33        69.11663
766.75        68.28426
767.16        67.92224
767.58        68.12042
768.00        68.29353
768.41        68.41031
768.83        68.62358
769.24        68.87827
769.66        69.04803
770.07        69.10726
770.49        69.21459
770.90        69.34203
771.32        69.24036
771.73        68.98431
772.15        68.88071
772.56        68.98044
772.97        69.11875
773.39        69.15583
773.80        69.41614
774.22        68.96329
774.63        69.00372
775.05        69.23602
775.46        69.38197
775.88        69.39951
776.29        69.54134
776.70        69.77396
777.12        69.91833
777.53        69.95952
777.95        69.90186
778.36        69.83651
778.77        69.83351
779.19        69.91314
779.60        70.25395
780.02        70.66088
780.43        70.47881
780.84        69.87099
781.26        69.68783
781.67        70.06251
782.09         70.6421
782.50        71.02733
782.91        71.40298
783.33        70.06765
783.74        69.81114
784.15        70.17426
784.57        70.37521
784.98        70.34287
785.39         70.4165
785.81        70.57518
786.22         70.6478
786.63         70.6326
787.04        70.62347
787.46         70.6356
787.87        70.61328
788.28        70.58365
788.70        70.59192
789.11        70.62834
789.52        70.70907
789.93        70.81609
790.35        70.88251
790.76        70.92108
791.17        70.95639
791.58        71.01139
792.00        71.05142
792.41        71.09704
792.82        71.26091
793.23        71.47337
793.65        71.41886
794.06         71.2384
794.47        71.41814
794.88        71.80851
795.29        72.39384
795.71        71.95775
796.12        71.88486
796.53        71.86202
796.94        71.73239
797.35        71.54285
797.76        71.54068
798.18        71.74297
798.59        71.91325
799.00        72.03751
799.41          72.231
799.82        72.43275
800.23        72.49522
800.64        72.39601
801.06        72.15203
801.47        71.87934
801.88        71.69891
802.29        71.65618
802.70        71.72245
803.11         71.8459
803.52        71.93087
803.93        71.95074
804.34        71.94104
804.75        71.94336
805.17        72.01025
805.58        72.18796
805.99        72.41408
806.40        72.63749
806.81        72.82699
807.22        72.90769
807.63        72.75642
808.04        72.44302
808.45        72.23134
808.86        72.17287
809.27        72.13988
809.68         72.1111
810.09        72.10368
810.50        72.10993
810.91        72.13229
811.32        72.17168
811.73        72.23844
812.14        72.33013
812.55        72.39089
812.96        72.41744
813.37        72.51693
813.78        72.64082
814.19        72.55703
814.60        72.31978
815.01        72.22175
815.42        72.29282
815.83        72.37782
816.24        72.48412
816.65        72.69083
817.05        72.98452
817.46        73.29298
817.87        73.56562
818.28        73.68273
818.69        73.62334
819.10        73.41795
819.51        73.14743
819.92         72.9651
820.33        72.92645
820.74        72.99313
821.14        73.10075
821.55        73.17857
821.96         73.1787
822.37        73.12618
822.78        73.04184
823.19         72.9586
823.60        72.89407
824.00        72.86381
824.41        72.80506
824.82        72.70704
825.23        72.57498
825.64        72.43161
826.04        72.36603
826.45        72.47953
826.86        72.79648
827.27         73.2711
827.68         73.7949
828.08        74.22052
828.49        74.42242
828.90        74.46674
829.31        74.41364
829.72        74.37814
830.12        74.42088
830.53        74.46146
830.94        74.48381
831.35         74.4284
831.75        74.30512
832.16        74.10275
832.57        73.88949
832.97        73.73354
833.38         73.6574
833.79        73.65865
834.20        73.70541
834.60        73.74394
835.01        73.77041
835.42        73.78033
835.82        73.83113
836.23        73.94247
836.64        74.13681
837.04        74.41216
837.45        74.63523
837.86        74.69234
838.26        74.57655
838.67        74.32275
839.08        74.05337
839.48        73.95319
839.89        74.06808
840.29        74.32741
840.70        74.66741
841.11        74.98768
841.51        75.25851
841.92        75.47438
842.33        75.59353
842.73         75.5434
843.14        75.27776
843.54        74.84571
843.95        74.38415
844.35        74.14098
844.76        74.16491
845.17        74.40336
845.57         74.7169
845.98        74.82172
846.38         74.6693
846.79        74.31676
847.19        73.91416
847.60        73.65889
848.00        73.63426
848.41         73.7396
848.81        73.91617
849.22        73.99409
849.62         73.9666
850.03        73.87495
850.43        73.78287
850.84        73.70278
851.24        73.69869
851.65        73.68398
852.05        73.76417
852.46         74.0082
852.86        74.39121
853.27        74.88834
853.67         75.2569
854.07        75.35163
854.48        75.11139
854.88        74.61235
855.29        73.94216
855.69        73.49844
856.10        73.32342
856.50        73.42256
856.90        73.59261
857.31        73.52254
857.71        73.18983
858.12        72.64262
858.52         72.1219
858.92        71.88511
859.33        71.98724
859.73        72.37762
860.13        72.85268
860.54        73.08047
860.94        72.99654
861.34        72.66908
861.75         72.2459
862.15        72.02508
862.55        72.05385
862.96        72.25249
863.36        72.49419
863.76        72.56464
864.17        72.39574
864.57        72.06969
864.97        71.71075
865.38        71.48705
865.78         71.4891
866.18        71.64755
866.58        71.81749
866.99        71.76429
867.39        71.46907
867.79        70.99209
868.19        70.52334
868.60        70.30025
869.00        70.36095
869.40        70.65903
869.80        71.05235
870.21        71.27957
870.61        71.32761
871.01         71.2236
871.41        71.07304
871.81        71.02821
872.22        71.10215
872.62        71.26125
873.02        71.48328
873.42        71.71615
873.82        71.92314
874.22          72.133
874.63        72.31013
875.03        72.37421
875.43        72.32874
875.83        72.16763
876.23        71.99686
876.63        72.00388
877.03        72.21396
877.44        72.56462
877.84         72.8772
878.24        72.81807
878.64        72.34644
879.04         71.6208
879.44        70.88191
879.84        70.45667
880.24        70.41615
880.64        70.65313
881.04        71.07389
881.44        71.51037
881.84         71.8756
882.24        72.20364
882.65        72.42339
883.05        72.52514
883.45        72.47025
883.85        72.26153
884.25        71.98271
884.65        71.77549
885.05         71.6738
885.45        71.64781
885.85        71.65894
886.25        71.63189
886.65        71.54816
887.05         71.4492
887.45        71.33674
887.85        71.20495
888.25        71.05797
888.65         70.8873
889.04         70.7364
889.44        70.72567
889.84        70.85252
890.24        71.08329
890.64        71.32377
891.04        71.42445
891.44        71.35722
891.84        71.17574
892.24         70.9621
892.64        70.84939
893.04        70.87291
893.44        70.98251
893.83        71.17156
894.23         71.3592
894.63        71.54053
895.03        71.73878
895.43        71.90157
895.83         71.9407
896.23        71.85281
896.63         71.6601
897.02        71.46623
897.42        71.47362
897.82        71.69405
898.22        72.06882
898.62        72.46741
899.01         72.6744
899.41        72.61623
899.81         72.3858
900.21        72.08045
900.61        71.86587
901.00        71.79004
901.40        71.80353
901.80        71.90185
902.20        72.09296
902.59        72.35714
902.99        72.68105
903.39        72.94975
903.79        72.95301
904.18        72.67348
904.58        72.21308
904.98        71.74142
905.38        71.52308
905.77        71.59681
906.17         71.8593
906.57        72.23118
906.96        72.59319
907.36         72.8488
907.76        73.06699
908.15        73.13424
908.55         72.7868
908.95        72.06516
909.34         71.0531
909.74        70.13084
910.14        69.83749
910.53        70.28111
910.93        71.26342
911.33        72.46705
911.72        73.32494
912.12        73.61998
912.52        73.53587
912.91        73.17457
913.31        72.71962
913.70        72.24843
914.10         71.6806
914.49        71.16947
914.89        70.95063
915.29        71.10545
915.68        71.60519
916.08        72.22618
916.47        72.57477
916.87        72.57675
917.26        72.30924
917.66        72.00172
918.05        71.99632
918.45        72.35174
918.84        72.95895
919.24        73.57971
919.64        73.91405
920.03        73.89497
920.42        73.63269
920.82         73.2683
921.21        73.00471
921.61        72.89359
922.00         72.8675
922.40        72.92903
922.79        73.15999
923.19        73.50266
923.58        73.98738
923.98        74.37682
924.37         74.3591
924.77        73.88136
925.16        73.01131
925.55        72.08472
925.95        71.69316
926.34        71.98311
926.74        72.76718
927.13        73.69743
927.52        74.10924
927.92        73.87534
928.31        73.20351
928.70         72.4288
929.10        72.05391
929.49        72.20926
929.89        72.69039
930.28        73.35762
930.67        73.85099
931.07        74.02263
931.46        74.01477
931.85         73.8502
932.24        73.59599
932.64        73.29485
933.03         72.9066
933.42         72.5256
933.82        72.31199
934.21        72.30719
934.60        72.51488
934.99        72.78772
935.39        72.83708
935.78        72.63071
936.17        72.21612
936.56        71.83449
936.96        71.88739
937.35        72.48496
937.74        73.43432
938.13        74.37505
938.53        74.80092
938.92         74.6142
939.31        73.94869
939.70         73.1061
940.09        72.62478
940.49        72.64037
940.88        73.02228
941.27        73.48418
941.66        73.58884
942.05        73.24626
942.44        72.63885
942.84        71.99592
943.23        71.61652
943.62        71.62785
944.01        71.91056
944.40        72.37981
944.79        72.88676
945.18        73.33115
945.57        73.73343
945.97        73.99955
946.36        74.06886
946.75        73.91307
947.14        73.54418
947.53        73.06923
947.92        72.69964
948.31         72.5104
948.70        72.46812
949.09        72.50214
949.48         72.4785
949.87        72.36568
950.26        72.22034
950.65        72.08402
951.04        72.01805
951.43         72.0338
951.82        72.08259
952.21         72.1533
952.60        72.23843
952.99        72.31836
953.38        72.39995
953.77         72.4131
954.16        72.24836
954.55        71.89668
954.94        71.38369
955.33        70.84025
955.72        70.49358
956.11        70.39089
956.50        70.46571
956.89        70.57002
957.28        70.42831
957.66        70.00832
958.05        69.42831
958.44        68.81306
958.83        68.34802
959.22        68.09956
959.61        67.96592
960.00        68.04072
960.39        68.47633
960.78        69.24624
961.16        70.34511
961.55        71.32906
961.94        71.53255
962.33        70.82491
962.72        69.43377
963.11        67.94794
963.49        67.24895
963.88        67.53502
964.27        68.57897
964.66        69.93205
965.04         70.7824
965.43        70.77714
965.82         70.2013
966.21        69.44737
966.60        69.11739
966.98         69.3723
967.37        69.98496
967.76        70.67831
968.15        70.93421
968.53        70.61712
968.92        69.94958
969.31        69.22609
969.69        68.84708
970.08        68.92786
970.47        69.34679
970.86        70.05782
971.24        70.98994
971.63        71.95708
972.02        72.93095
972.40        73.80531
972.79         74.3077
973.17        74.49473
973.56        74.36192
973.95        74.00902
974.33        73.60143
974.72        73.20812
975.11        72.78017
975.49        72.36616
975.88        72.06706
976.26        71.90861
976.65        71.90202
977.04        71.88035
977.42        71.51351
977.81        70.70228
978.19        69.52576
978.58        68.44232
978.96        68.19218
979.35        68.92051
979.74        70.41383
980.12        72.15661
980.51        73.09682
980.89        73.07751
981.28        72.28847
981.66        71.18591
982.05        70.65682
982.43        70.96323
982.82        71.76099
983.20        72.75835
983.59        73.34385
983.97        73.44512
984.35        73.24368
984.74        72.82243
985.12        72.29778
985.51        71.77808
985.89        71.25899
986.28        70.92022
986.66        71.12011
987.04        71.83055
987.43        72.89063
987.81        74.02303
988.20         74.6252
988.58        74.55836
988.96        73.99959
989.35        73.01609
989.73        71.81065
990.12        70.43172
990.50        68.72952
990.88        67.10482
991.27        66.49613
991.65        67.16135
992.03        68.87421
992.42        70.56662
992.80        71.14373
993.18        70.31251
993.56        68.24766
993.95        65.72397
994.33        64.62582
994.71        65.77213
995.10        68.18011
995.48        70.70748
995.86        72.14416
996.24        72.39741
996.63         71.8124
997.01        70.81863
997.39        70.22028
997.77        70.40331
998.15        71.10242
998.54        71.87675
998.92        72.17696
999.30        71.88508
999.68         71.2075
1000.06        70.55536
1000.45         70.5787
1000.83        71.47884
1001.21        72.90282
1001.59         74.3458
1001.97        75.09683
1002.35        75.01333
1002.73        74.37064
1003.12        73.33694
1003.50        72.22578
1003.88        71.35687
1004.26        70.56777
1004.64         70.2234
1005.02        70.79311
1005.40        72.23165
1005.78        74.50709
1006.16        76.67989
1006.54        77.00988
1006.92        75.10879
1007.30         71.4614
1007.69          67.615
1008.07         66.1113
1008.45        67.63046
1008.83        71.31622
1009.21        75.60257
1009.59        78.25391
1009.97        78.69382
1010.35        77.44315
1010.73        75.23087
1011.11        73.93089
1011.49        74.44985
1011.86        76.14783
1012.24        78.09609
1012.62        79.35926
1013.00        79.71292
1013.38         79.6424
1013.76        79.26108
1014.14        78.65356
1014.52         77.9278
1014.90         76.9137
1015.28        76.04681
1015.66        76.22211
1016.04        77.59142
1016.41        79.99345
1016.79        82.22668
1017.17        82.86705
1017.55         81.6864
1017.93        79.16048
1018.31        76.34985
1018.69          74.916
1019.06        75.40382
1019.44        77.50922
1019.82        80.42595
1020.20        82.36687
1020.58        82.56085
1020.95        81.36607
1021.33        79.88937
1021.71        79.53523
1022.09        80.48791
1022.46        82.30348
1022.84        83.88221
1023.22        83.13824
1023.60          79.367
1023.97        72.65196
1024.35        64.78543
1024.73        59.90837
