SpectraSmart Spectrum 2.9.0.0
--------- Device Information -----------
Spectrum Name :  反射率_0
Saving Time :  2024/04/27 23:01:38
Spectro-Module Model Name : SE2030-DUVN
Spectro-Module Serial Number : OS361AC55029948
Wavelength Start : 200
Wavelength End : 1025
Wavelength Unit : Wavelength(nm)
Spectrum Unit : Reflectance(%)
-----------Spectrum Setting ------------
Integration Time : 20ms
Average : 10
Boxcar : 0
Background removal :  enabled
linearity correction :  enabled
SC :  disabled
Intensity correction :  disabled
DWT denoise :  enabled
savitzky-golay :  disabled
FFT :  disabled
Running average :  disabled
Kalman :  disabled
High pass :  disabled
---------------BEGIN--------------------
Wavelength(nm)             Reflectance(%)
200.29               0
200.75        80.17517
201.21        97.26078
201.67        103.5852
202.13        98.15584
202.58        85.37175
203.04        68.70502
203.50        55.44301
203.96        56.37142
204.42        69.99184
204.88        89.01395
205.34        106.7768
205.80        118.7005
206.26        125.4986
206.72        129.4377
207.18         130.325
207.64        127.6302
208.10        122.9411
208.55        117.8703
209.01        113.4286
209.47        108.3162
209.93        99.88434
210.39        81.80137
210.85        26.86854
211.31       -59.25377
211.77        4.640219
212.23        58.50325
212.69        80.56184
213.14        90.76635
213.60         97.1041
214.06        104.3985
214.52         113.621
214.98        117.9234
215.44        111.8595
215.90        102.3308
216.36         95.3203
216.81         92.5406
217.27        92.82728
217.73        95.15887
218.19        98.59064
218.65        101.4489
219.11        103.3779
219.57        105.2073
220.02        107.6222
220.48        112.1457
220.94        118.1229
221.40        123.8873
221.86        128.5445
222.32        131.9381
222.77        134.1158
223.23        135.4908
223.69        136.4508
224.15         137.543
224.61        138.9659
225.06         140.799
225.52        142.6118
225.98        142.9307
226.44        141.9261
226.90         140.541
227.36        139.9231
227.81        140.9719
228.27         144.034
228.73        148.5884
229.19        153.9906
229.65        158.5136
230.10        161.0176
230.56          161.97
231.02        161.7521
231.48        161.1836
231.93        160.4251
232.39        159.5989
232.85        158.4203
233.31        156.7791
233.77        154.7714
234.22        152.5557
234.68        150.6191
235.14        149.2609
235.60        148.5117
236.05        148.4439
236.51        148.4257
236.97         147.651
237.43        145.8323
237.88         143.237
238.34        140.5316
238.80        138.9655
239.26        138.6289
239.71        140.0717
240.17        141.2396
240.63         136.979
241.08        126.4666
241.54        115.3661
242.00        108.0044
242.46        104.1155
242.91        102.1565
243.37         101.353
243.83        101.5243
244.28        101.1944
244.74        97.97692
245.20        94.02036
245.66        91.77667
246.11        91.18228
246.57        91.48317
247.03         92.7219
247.48        94.19032
247.94        92.49563
248.40        86.79123
248.85        80.32614
249.31        76.73921
249.77        78.31007
250.22        83.35315
250.68         89.4815
251.14        95.78804
251.59        102.4934
252.05        110.6771
252.51        121.9133
252.96        135.4216
253.42        143.3409
253.88        140.3156
254.33        130.7408
254.79        122.2206
255.25        117.9152
255.70        116.6865
256.16        117.6084
256.62        119.5397
257.07        121.4139
257.53        123.5028
257.99        125.3573
258.44        126.3473
258.90        126.8503
259.35        126.3743
259.81         125.866
260.27        125.2344
260.72        124.5102
261.18        124.3353
261.63        124.0234
262.09        124.0297
262.55        124.0127
263.00        123.7432
263.46        123.5692
263.91        123.1479
264.37        122.7752
264.83        122.3009
265.28        121.6295
265.74        120.9496
266.19        119.9198
266.65        118.7418
267.11         117.383
267.56        115.9854
268.02        114.9569
268.47        114.2785
268.93        113.8872
269.38        113.5491
269.84          112.99
270.30        112.1022
270.75        110.9509
271.21        109.6546
271.66         108.288
272.12         106.941
272.57         105.504
273.03        104.0542
273.48        102.5504
273.94        101.1165
274.39        99.68944
274.85        98.36767
275.31        97.02749
275.76        95.61227
276.22        94.27127
276.67        92.94624
277.13        91.85013
277.58        90.85531
278.04        90.01291
278.49         89.1197
278.95        88.17754
279.40        87.03605
279.86        85.83535
280.31         84.5087
280.77        83.24545
281.22        81.97571
281.68        80.81901
282.13        79.63284
282.59        78.42915
283.04        77.11856
283.50        75.78803
283.95        74.49885
284.41        73.49766
284.86        72.75497
285.32        72.25951
285.77        71.76548
286.22        71.04198
286.68        70.07413
287.13        68.88531
287.59        67.70123
288.04        66.71645
288.50        66.04401
288.95        65.54549
289.41        65.14747
289.86        64.62656
290.32        63.98432
290.77        63.25314
291.22        62.53475
291.68         61.9535
292.13        61.50934
292.59        61.19124
293.04        60.92651
293.50        60.66965
293.95        60.38287
294.40        60.09625
294.86        59.85514
295.31        59.70774
295.77        59.66606
296.22        59.67751
296.68        59.69519
297.13        59.61689
297.58        59.43385
298.04        59.20606
298.49        58.94469
298.95         58.7109
299.40        58.50696
299.85        58.32191
300.31        58.22631
300.76        58.28711
301.21        58.50863
301.67        58.86879
302.12        59.19145
302.58        59.29839
303.03        59.12071
303.48        58.74473
303.94        58.34591
304.39        58.11325
304.84        58.11885
305.30        58.30749
305.75        58.51898
306.20        58.58258
306.66        58.47681
307.11        58.22795
307.57        57.97618
308.02        57.84166
308.47        57.87119
308.93        58.01045
309.38        58.13244
309.83        58.10576
310.29          57.911
310.74        57.57978
311.19        57.19694
311.65         56.8868
312.10        56.66747
312.55        56.51059
313.00        56.38573
313.46          56.247
313.91        56.06795
314.36        55.87418
314.82        55.66164
315.27        55.41724
315.72        55.14576
316.18        54.85623
316.63        54.56294
317.08        54.31915
317.53        54.13375
317.99        53.98752
318.44        53.86005
318.89        53.69751
319.35        53.48714
319.80        53.25068
320.25        53.00347
320.70        52.77785
321.16        52.57343
321.61        52.38116
322.06        52.19759
322.51        52.02466
322.97        51.84941
323.42        51.69465
323.87        51.51505
324.32        51.24659
324.78        50.87971
325.23        50.45224
325.68        50.03988
326.13        49.78086
326.59        49.69028
327.04        49.75303
327.49        49.86825
327.94        49.88198
328.39        49.74677
328.85        49.49225
329.30        49.19463
329.75        48.94085
330.20        48.77148
330.66        48.64076
331.11        48.56745
331.56        48.51544
332.01         48.4738
332.46        48.45979
332.92        48.44455
333.37         48.4325
333.82        48.39874
334.27        48.33439
334.72         48.2677
335.17        48.25261
335.63        48.28652
336.08        48.38445
336.53        48.47163
336.98        48.44275
337.43        48.28427
337.88        48.03645
338.34        47.79465
338.79         47.7317
339.24        47.87941
339.69        48.17656
340.14        48.52876
340.59        48.78184
341.05        48.88442
341.50           48.89
341.95        48.81622
342.40         48.7034
342.85        48.57938
343.30        48.42885
343.75        48.30258
344.20         48.2852
344.66         48.3933
345.11        48.60701
345.56        48.84382
346.01        48.96184
346.46        48.92678
346.91        48.77113
347.36         48.5857
347.81        48.51389
348.26        48.58449
348.72        48.75416
349.17        48.92212
349.62        48.93344
350.07        48.75748
350.52        48.44978
350.97        48.12656
351.42        47.96948
351.87        48.01756
352.32        48.20621
352.77        48.42263
353.22        48.49744
353.67        48.38622
354.13        48.15247
354.58        47.84713
355.03        47.60636
355.48        47.46803
355.93        47.39369
356.38        47.32459
356.83        47.17122
357.28        46.91725
357.73         46.6039
358.18        46.29028
358.63        46.06136
359.08        45.93439
359.53        45.87358
359.98        45.83253
360.43        45.74243
360.88        45.58037
361.33        45.36303
361.78        45.10114
362.23        44.83906
362.68        44.59587
363.13        44.31562
363.58        43.98816
364.03        43.85793
364.48        43.50853
364.93        43.27501
365.38        43.04247
365.83        42.83267
366.28        42.64021
366.73        42.46471
367.18        42.27712
367.63        42.02127
368.08        41.69146
368.53        41.30532
368.98        40.91446
369.43        40.60164
369.88        40.38816
370.33        40.25377
370.78        40.14758
371.23        39.98632
371.68        39.74369
372.13        39.43589
372.58        39.11436
373.03        38.86174
373.48         38.7018
373.93        38.62213
374.38        38.55016
374.83        38.37115
375.28        38.06941
375.72        37.66795
376.17        37.31076
376.62        37.17598
377.07        37.28071
377.52        37.53872
377.97        37.79266
378.42         37.7995
378.87        37.51144
379.32        37.03103
379.77        36.46367
380.22         35.9649
380.67        35.59129
381.11        35.29424
381.56         35.0968
382.01        35.03893
382.46        35.10615
382.91         35.2867
383.36        35.46537
383.81        35.45644
384.26          35.224
384.71        34.81654
385.15        34.34415
385.60         34.0282
386.05        33.91031
386.50         33.9326
386.95        34.00936
387.40        34.00545
387.85        33.88863
388.29        33.68864
388.74        33.50008
389.19        33.37471
389.64         33.3188
390.09        33.28902
390.54        33.25206
390.98        33.15657
391.43        33.01398
391.88         32.8512
392.33        32.66241
392.78        32.48826
393.23        32.35644
393.67        32.11806
394.12        31.85225
394.57        32.05522
395.02        32.15675
395.47        32.07067
395.91        31.71655
396.36        31.60351
396.81        31.76243
397.26        31.92897
397.71        32.00394
398.15        31.96499
398.60        31.83543
399.05        31.51048
399.50        31.14594
399.95        31.16024
400.39        31.48428
400.84        31.60546
401.29        31.45742
401.74        31.24291
402.18        31.02887
402.63         30.9021
403.08        30.88056
403.53        30.81812
403.97          30.723
404.42        30.74652
404.87        30.83635
405.32        30.85031
405.76        30.76458
406.21        30.55446
406.66        30.29405
407.11        30.24015
407.55        30.33624
408.00        30.23657
408.45        29.94935
408.90        29.59567
409.34        29.32136
409.79         29.4896
410.24        29.97515
410.68         30.1837
411.13        30.05478
411.58        29.93301
412.03        29.87027
412.47        29.80161
412.92        29.73787
413.37        29.70534
413.81        29.68462
414.26        29.66871
414.71        29.64501
415.15        29.62326
415.60        29.59716
416.05        29.57475
416.49        29.56055
416.94        29.54632
417.39        29.52725
417.83         29.4999
418.28        29.45643
418.73        29.38578
419.17         29.3113
419.62        29.27404
420.07        29.29136
420.51        29.36375
420.96        29.43109
421.41        29.43212
421.85        29.35154
422.30        29.07958
422.74        28.76203
423.19         28.9766
423.64        29.60584
424.08        29.84374
424.53        29.57752
424.98        29.46397
425.42        29.53107
425.87        29.20499
426.31        28.64288
426.76        28.69277
427.21        29.21462
427.65        29.15921
428.10        28.61021
428.54        28.45342
428.99        28.71111
429.44        29.08893
429.88        29.36871
430.33        29.07326
430.77        28.39492
431.22        28.13911
431.66        28.35776
432.11         28.6811
432.56        29.00596
433.00        29.21148
433.45        29.05827
433.89        28.68421
434.34        28.46867
434.78        27.42706
435.23        28.06075
435.67        28.91333
436.12        29.34464
436.57        29.38773
437.01        28.86615
437.46        28.58308
437.90        28.72172
438.35        29.04836
438.79        28.60575
439.24        28.47739
439.68        28.41561
440.13        28.36007
440.57        28.29448
441.02        28.44889
441.46         28.7415
441.91        28.51071
442.35        27.96834
442.80        28.32678
443.24         29.3307
443.69        29.33275
444.13        28.40835
444.58         28.0226
445.02        28.19881
445.47        28.17259
445.91        27.93447
446.36        27.85323
446.80        27.92511
447.24        28.03038
447.69        28.13726
448.13        28.25819
448.58        28.34036
449.02        28.24877
449.47        28.04141
449.91        27.93243
450.36        27.95317
450.80        27.98428
451.25        28.01091
451.69        28.05173
452.13        28.08684
452.58        28.08398
453.02         28.0434
453.47        27.97856
453.91        27.89356
454.36        27.83599
454.80          27.763
455.24        27.57505
455.69        27.34197
456.13         27.1226
456.58        27.01402
457.02        27.26175
457.46        27.70924
457.91        27.83484
458.35        27.72332
458.79        27.69617
459.24        27.78729
459.68        27.75632
460.13        27.64458
460.57        27.47876
461.01        27.40121
461.46        27.42774
461.90        27.40448
462.34        27.39168
462.79        27.80289
463.23        27.88722
463.68        27.80393
464.12        27.73476
464.56         27.7219
465.01        27.82573
465.45        27.90975
465.89        27.75527
466.34        27.45551
466.78        27.17126
467.22        26.94059
467.67        27.39432
468.11        27.32036
468.55         27.3876
468.99         27.2604
469.44        27.26062
469.88        27.38233
470.32        27.41735
470.77        27.37896
471.21        27.38003
471.65          27.431
472.10        27.50593
472.54        27.55552
472.98        27.54936
473.42        27.49115
473.87        27.31955
474.31        27.11504
474.75        27.24685
475.20        27.63267
475.64        27.72655
476.08        27.51271
476.52        27.49724
476.97        27.70624
477.41        27.59558
477.85        27.44703
478.29        27.66069
478.74        27.54379
479.18        27.40198
479.62        27.91243
480.06        28.02306
480.50        28.01564
480.95        27.90886
481.39        27.70877
481.83        27.98846
482.27        27.91438
482.72        27.80263
483.16        28.11464
483.60        28.16785
484.04        28.13531
484.48        28.17931
484.93         28.4991
485.37        28.26082
485.81        28.80524
486.25        29.28249
486.69        29.37495
487.14        28.70316
487.58        29.20371
488.02        28.93367
488.46        28.85944
488.90        29.35877
489.34         28.5645
489.79         28.2642
490.23        29.03932
490.67        29.30591
491.11        29.34067
491.55        29.26924
491.99        29.18435
492.43        29.20337
492.88        29.33977
493.32        29.48371
493.76         29.5945
494.20        29.73434
494.64         29.9169
495.08        30.03183
495.52        30.09439
495.96        30.40935
496.41        30.90631
496.85        30.79677
497.29        30.26963
497.73        30.45712
498.17        31.21832
498.61        31.50736
499.05        31.23676
499.49        31.05009
499.93        31.06087
500.37        31.14486
500.82         31.2665
501.26        31.44749
501.70        31.68911
502.14        31.34744
502.58        31.58103
503.02        31.61499
503.46        31.65931
503.90        31.73369
504.34        31.80188
504.78        31.90713
505.22         32.0266
505.66        32.09665
506.10        32.12422
506.54        32.20678
506.98          32.355
507.42        32.38358
507.86        32.53361
508.30        32.58422
508.74        32.60953
509.18         32.6105
509.62        32.60759
510.06        32.62872
510.50        32.67789
510.94        32.74519
511.38        32.82109
511.82        32.88989
512.26        32.94439
512.70         32.9938
513.14        33.02814
513.58        33.01783
514.02        32.96341
514.46        32.89757
514.90        32.86126
515.34        32.80497
515.78        32.92719
516.22         33.0532
516.66        33.20167
517.10        33.30635
517.54          33.349
517.98        33.34579
518.42        33.30487
518.86        33.24657
519.30        33.18343
519.74        33.11181
520.18         33.0499
520.62        33.02589
521.06        33.04522
521.50        33.10422
521.93        33.18204
522.37        33.23108
522.81        33.24128
523.25        33.21797
523.69        33.18031
524.13        33.16139
524.57        33.16656
525.01        33.18376
525.45        33.18682
525.89        33.13528
526.32        33.02093
526.76        32.87188
527.20        32.71923
527.64        32.61538
528.08        32.57297
528.52        32.57183
528.96        32.59423
529.40        32.61108
529.83        32.60852
530.27        32.60204
530.71        32.57655
531.15        32.51175
531.59        32.40894
532.03        32.27122
532.46        32.13577
532.90        32.07858
533.34        32.10781
533.78        32.20387
534.22        32.30991
534.66        32.33762
535.09        32.26667
535.53        32.13221
535.97        31.98606
536.41        31.91717
536.85         31.9467
537.28        32.04746
537.72        32.17145
538.16        32.23665
538.60        32.22604
539.04        32.17764
539.47         32.1224
539.91        32.12481
540.35        32.19106
540.79        32.30278
541.22        32.43541
541.66        32.55466
542.10        32.64589
542.54        32.72136
542.97        32.78049
543.41        32.84013
543.85        32.90117
544.29        32.96273
544.72        33.02487
545.16        33.11031
545.60        33.21339
546.04          33.328
546.47        33.45311
546.91        33.58241
547.35         33.7066
547.79        33.84057
548.22        33.96246
548.66         34.0259
549.10        34.05285
549.53        34.17756
549.97        34.39045
550.41        34.55751
550.84        34.66967
551.28        34.80532
551.72        34.96765
552.15        35.11951
552.59        35.26489
553.03        35.40366
553.46        35.52931
553.90        35.63503
554.34        35.71147
554.77         35.8197
555.21        35.96849
555.65        35.92549
556.08        36.05378
556.52        36.12105
556.96        36.22717
557.39        36.38845
557.83         36.5743
558.27        36.62381
558.70        36.56522
559.14        36.58332
559.57         36.6862
560.01        36.83916
560.45        36.98407
560.88        37.00003
561.32        36.95371
561.75        36.96603
562.19        37.07309
562.63        37.30323
563.06        37.56608
563.50        37.56516
563.93        37.34288
564.37        37.29749
564.80        37.43853
565.24        37.56636
565.68        37.65622
566.11        37.75975
566.55        37.88287
566.98        38.00824
567.42        38.14024
567.85        38.24627
568.29        38.35827
568.72        38.44042
569.16        38.52897
569.60        38.71086
570.03        38.99866
570.47        39.03621
570.90        39.29861
571.34        39.55688
571.77        39.77051
572.21        39.63125
572.64        39.94879
573.08        39.82469
573.51        40.02846
573.95        40.21279
574.38        40.41705
574.82        40.59874
575.25        40.39998
575.69        40.44593
576.12        40.59632
576.56        40.87015
576.99        40.74042
577.42        40.97313
577.86        40.63705
578.29        41.35724
578.73        40.83611
579.16        40.87466
579.60        40.82336
580.03        40.71985
580.47        40.52554
580.90        40.70017
581.33        40.60257
581.77        40.75545
582.20        40.60685
582.64        40.55921
583.07        40.39472
583.51        40.20283
583.94         40.1113
584.37        39.99155
584.81        39.86619
585.24        39.84034
585.68        39.98501
586.11        39.52727
586.54        39.67714
586.98        39.57208
587.41        39.58144
587.85        39.22555
588.28        39.55703
588.71        39.68833
589.15        39.67918
589.58        39.18943
590.01        39.25576
590.45        39.32991
590.88        38.74491
591.31        38.71528
591.75        38.91976
592.18        38.86077
592.61        38.65386
593.05         39.0665
593.48         39.5996
593.91        39.49823
594.35        39.36988
594.78        39.55389
595.21        39.64776
595.65        39.72477
596.08        39.55006
596.51        40.07797
596.94        39.94713
597.38        40.15641
597.81        40.30826
598.24        40.54847
598.68        40.62668
599.11        40.96636
599.54        41.30775
599.97        41.51355
600.41        41.98848
600.84        42.27615
601.27        42.49908
601.70        42.70872
602.14        42.71785
602.57         43.2541
603.00        43.74841
603.43        44.14027
603.87        44.49663
604.30        44.61325
604.73        45.05798
605.16        45.22752
605.60        45.76503
606.03        46.26876
606.46        46.83507
606.89        46.87297
607.32        47.14632
607.76         47.8494
608.19        47.84217
608.62         48.2061
609.05        48.56129
609.48        48.83568
609.92        48.97089
610.35        49.39836
610.78        49.50966
611.21        49.58001
611.64         50.1876
612.07        50.47014
612.50        50.61545
612.94         50.8479
613.37        51.22982
613.80        51.10466
614.23        51.40569
614.66        51.58366
615.09        51.87238
615.52        52.16946
615.96        52.49691
616.39        52.47034
616.82        52.84527
617.25        53.16836
617.68        53.32888
618.11        53.46188
618.54        53.55532
618.97        53.86359
619.40        54.26763
619.84        54.74667
620.27        54.69688
620.70        54.66763
621.13         54.4764
621.56        55.06731
621.99        55.07448
622.42        55.00636
622.85        54.79272
623.28         55.1137
623.71        55.04357
624.14         54.8713
624.57        55.11885
625.00         55.4733
625.43        54.96203
625.86        54.91186
626.29        55.04398
626.72        54.58971
627.15        54.69422
627.58        54.58752
628.01        54.65059
628.44         54.3939
628.87        53.96981
629.30        54.30055
629.73        54.00913
630.16        53.36212
630.59        53.37547
631.02        53.09253
631.45        52.89248
631.88        52.63844
632.31         52.3572
632.74        51.82088
633.17        51.55893
633.60         51.1809
634.03        50.84475
634.46        50.54322
634.89        50.25781
635.32        49.90149
635.75        49.52054
636.18        49.11514
636.61         48.7258
637.04        48.32983
637.47        47.96409
637.89        47.74801
638.32         47.6193
638.75        47.40083
639.18        47.07329
639.61        46.73024
640.04        46.39852
640.47         46.0957
640.90        45.83768
641.33        45.60156
641.76        45.37482
642.18         45.2505
642.61        45.04548
643.04        44.90587
643.47        44.78936
643.90        44.71129
644.33         44.6731
644.76        44.67459
645.18        44.69995
645.61        44.71703
646.04        44.72022
646.47        44.71125
646.90        44.73199
647.33        44.84543
647.75        45.07297
648.18        45.41851
648.61        45.80067
649.04        46.11122
649.47        46.34007
649.89        46.41957
650.32        46.48044
650.75        46.98559
651.18        47.82174
651.61        48.31908
652.03         48.4173
652.46        48.51772
652.89         48.7641
653.32         49.0494
653.74        49.69019
654.17        50.45539
654.60        50.37842
655.03        51.31969
655.46        51.40554
655.88        52.32285
656.31        53.46839
656.74        56.36757
657.16         56.3928
657.59        55.42738
658.02        54.23321
658.45        54.63924
658.87        55.00316
659.30         55.3575
659.73        55.42791
660.15        55.64683
660.58        55.85675
661.01        56.31793
661.44        56.85501
661.86        57.08448
662.29        57.03075
662.72        57.03981
663.14        57.21811
663.57        57.57897
664.00        58.04278
664.42        58.32344
664.85        58.39999
665.27        58.45766
665.70        58.54215
666.13        58.64412
666.55        58.78518
666.98        58.96102
667.41         59.1706
667.83        59.40505
668.26        59.64861
668.69        59.91513
669.11        60.16844
669.54        60.36415
669.96        60.50495
670.39        60.52652
670.82        60.50994
671.24         60.7412
671.67        61.16061
672.09         61.3737
672.52        61.39688
672.94        61.47376
673.37        61.65117
673.80         61.8919
674.22         62.1653
674.65        62.32786
675.07         62.3804
675.50        62.39962
675.92        62.43597
676.35        62.51384
676.77        62.65442
677.20        62.85469
677.62        63.08275
678.05        63.26427
678.47         63.3813
678.90        63.46413
679.32         63.5417
679.75        63.66861
680.17        63.85105
680.60        64.08482
681.02        64.31981
681.45        64.43559
681.87        64.44441
682.30        64.41528
682.72        64.40814
683.15        64.51586
683.57        64.73814
684.00        64.89116
684.42        64.99333
684.85         65.2252
685.27        65.56966
685.70         65.9101
686.12        66.18414
686.54        66.37898
686.97        66.46129
687.39        66.44036
687.82        66.36692
688.24         66.2018
688.66        66.29855
689.09        66.36126
689.51        66.47841
689.94        66.60672
690.36        66.74263
690.78        66.85716
691.21        66.96201
691.63        67.14194
692.06        67.34014
692.48        67.44463
692.90        67.26801
693.33        67.27467
693.75        67.42177
694.17        67.57236
694.60         67.6923
695.02        67.83388
695.44        67.98327
695.87        68.09478
696.29        68.18854
696.71        68.38258
697.14          68.624
697.56        68.71708
697.98        68.67815
698.41        68.76095
698.83        68.95935
699.25        69.16245
699.68        69.32378
700.10        69.48086
700.52        69.61314
700.94        69.71518
701.37        69.78635
701.79        69.86507
702.21        69.94086
702.64        70.01939
703.06        70.09578
703.48        70.18484
703.90        70.29581
704.33        70.42232
704.75        70.56301
705.17        70.69153
705.59        70.80245
706.01        70.87402
706.44        70.93027
706.86         71.1442
707.28        71.31999
707.70        71.58059
708.12        71.82212
708.55         71.9828
708.97        72.03333
709.39        71.96982
709.81        71.85223
710.23        71.82055
710.66        71.90543
711.08        72.07341
711.50        72.25132
711.92        72.35716
712.34        72.37354
712.76         72.3319
713.19        72.27777
713.61        72.33392
714.03        72.50375
714.45        72.74662
714.87          73.018
715.29         73.2543
715.71         73.4336
716.13        73.57495
716.56         73.6632
716.98        73.75182
717.40         73.8266
717.82        73.88226
718.24        73.93352
718.66        74.00826
719.08        74.11111
719.50         74.2327
719.92        74.36197
720.34        74.47737
720.76        74.56919
721.19        74.63474
721.61        74.67867
722.03        74.67577
722.45        74.62828
722.87         74.5454
723.29        74.46383
723.71        74.44174
724.13        74.49783
724.55        74.62473
724.97        74.79067
725.39        74.93857
725.81        75.05067
726.23        75.13594
726.65          75.226
727.07         75.3754
727.49        75.58954
727.91        75.84104
728.33        76.07542
728.75        76.20842
729.17        76.22529
729.59        76.14275
730.01         76.0028
730.43        75.93081
730.85        75.96418
731.27        75.85424
731.69        75.99084
732.10        76.07791
732.52        76.20692
732.94        76.42546
733.36        76.68964
733.78        76.78868
734.20        76.67976
734.62        76.94749
735.04        76.44813
735.46        76.77061
735.88         77.3886
736.30        77.31454
736.72        76.66496
737.13        76.57005
737.55        77.01871
737.97        77.34945
738.39        77.43507
738.81        77.20895
739.23        76.80426
739.65        76.89244
740.06        77.37588
740.48        77.56891
740.90        77.41402
741.32        77.41569
741.74        77.50105
742.16        77.61372
742.57         77.7245
742.99        77.89085
743.41        78.06038
743.83        78.07588
744.25         77.9518
744.67        77.82386
745.08        77.78396
745.50        77.83489
745.92        78.01026
746.34        78.33319
746.75        78.68072
747.17        78.83747
747.59        78.76857
748.01        78.48317
748.42        78.12012
748.84        78.05579
749.26        78.28381
749.68        78.36777
750.09        78.28375
750.51        78.39834
750.93        78.64946
751.35        78.67972
751.76        78.52966
752.18         78.5173
752.60        78.65885
753.01        78.76768
753.43        78.86292
753.85        79.06046
754.27        79.27325
754.68        79.70928
755.10        79.71783
755.52        79.54441
755.93        79.32827
756.35        79.40992
756.77        79.80361
757.18        80.01387
757.60        80.07326
758.02        80.17915
758.43        80.23237
758.85        80.47979
759.26        80.51312
759.68        79.63618
760.10        80.20784
760.51        79.54275
760.93        80.40991
761.34        80.25249
761.76        80.90179
762.18        80.69239
762.59        80.18427
763.01         80.1349
763.42        80.60153
763.84         80.8303
764.26        80.79656
764.67         80.8158
765.09        80.93498
765.50        81.15718
765.92        81.40624
766.33        81.23306
766.75        80.67083
767.16         80.4486
767.58         80.6033
768.00        80.76379
768.41        80.89034
768.83        81.11797
769.24        81.37905
769.66        81.38051
770.07        81.16803
770.49        81.30479
770.90        81.73679
771.32         81.6467
771.73        81.11129
772.15        81.02176
772.56        81.48817
772.97        81.14238
773.39        81.76886
773.80        81.66521
774.22        81.43353
774.63        81.50497
775.05        81.85342
775.46        82.07732
775.88        82.09613
776.29        82.21793
776.70        82.41344
777.12        82.51811
777.53        82.54168
777.95        82.51221
778.36        82.46577
778.77        82.41786
779.19        82.38098
779.60        82.40466
780.02        82.46564
780.43        82.46166
780.84        82.46869
781.26        82.61305
781.67        82.85964
782.09        83.18773
782.50        83.54668
782.91        82.97243
783.33        83.21375
783.74        83.07665
784.15        83.03161
784.57        83.30699
784.98        83.94142
785.39        83.15248
785.81        83.64697
786.22        83.68231
786.63        83.96646
787.04        84.13618
787.46        84.22568
787.87        84.15015
788.28        83.86924
788.70        84.50119
789.11        84.11902
789.52        84.24573
789.93        84.29591
790.35        84.35957
790.76        84.40767
791.17        84.23258
791.58        83.95289
792.00        83.92444
792.41        84.16182
792.82         84.4263
793.23        84.52691
793.65        84.69276
794.06        84.94397
794.47        85.32301
794.88        85.66066
795.29        86.07598
795.71        85.68579
796.12        85.39627
796.53        85.07492
796.94        84.88973
797.35        84.90881
797.76        85.13746
798.18        85.49501
798.59        85.76083
799.00        85.88811
799.41        85.93178
799.82        85.91807
800.23        85.89655
800.64        85.88787
801.06        85.84908
801.47        85.81296
801.88        85.74797
802.29        85.65965
802.70        85.56735
803.11        85.50714
803.52         85.5278
803.93         85.6361
804.34        85.80943
804.75        86.00981
805.17        86.15149
805.58        86.24112
805.99        86.30003
806.40        86.32755
806.81        86.26394
807.22        86.14066
807.63        86.08452
808.04        86.12337
808.45        86.17918
808.86        86.24551
809.27        86.38793
809.68        86.56926
810.09        86.67775
810.50        86.69366
810.91        86.65029
811.32        86.57865
811.73        86.55145
812.14        86.59272
812.55        86.62414
812.96         86.6528
813.37         86.8215
813.78        87.06183
814.19        87.08133
814.60        86.90611
815.01        86.82874
815.42        86.87108
815.83        86.86337
816.24        86.82064
816.65        86.86447
817.05        87.00539
817.46        87.15868
817.87        87.31673
818.28        87.40984
818.69         87.4257
819.10         87.3954
819.51        87.33086
819.92        87.27335
820.33        87.25159
820.74        87.19383
821.14        87.14565
821.55        87.36751
821.96        87.77697
822.37        87.99387
822.78        87.99745
823.19        88.07922
823.60        88.23892
824.00        88.30566
824.41        88.20335
824.82        88.02885
825.23        87.80222
825.64        87.51553
826.04        87.29115
826.45          87.275
826.86        87.51043
827.27        87.95596
827.68         88.4726
828.08         88.8528
828.49        88.95162
828.90        88.85944
829.31        88.67945
829.72        88.59669
830.12        88.69383
830.53        88.85941
830.94        89.03432
831.35        89.08321
831.75          88.995
832.16        88.75827
832.57        88.48243
832.97         88.3031
833.38        88.25366
833.79        88.31191
834.20        88.39931
834.60        88.38966
835.01        88.27614
835.42        88.08973
835.82        87.94862
836.23          87.957
836.64        88.17316
837.04        88.56503
837.45        88.96743
837.86        89.22778
838.26        89.30888
838.67        89.23656
839.08        89.09879
839.48        89.02301
839.89        89.04916
840.29        89.14036
840.70        89.26673
841.11         89.3895
841.51        89.50704
841.92        89.58744
842.33        89.64638
842.73        89.69511
843.14        89.68405
843.54        89.65607
843.95        89.58344
844.35        89.45571
844.76        89.26868
845.17        89.03084
845.57        88.84292
845.98        88.81787
846.38        89.00255
846.79        89.33025
847.19        89.67257
847.60        89.74565
848.00         89.5178
848.41        89.03117
848.81        88.49539
849.22        88.17117
849.62        88.17889
850.03        88.41928
850.43        88.77242
850.84        88.94689
851.24        88.93169
851.65        88.73602
852.05        88.57638
852.46        88.67794
852.86        89.07849
853.27        89.66432
853.67        90.16125
854.07        90.44571
854.48         90.4323
854.88        90.22861
855.29        89.79353
855.69        89.32196
856.10        88.79546
856.50        88.30315
856.90        87.86427
857.31        87.53893
857.71        87.39796
858.12        87.38635
858.52        87.53839
858.92        87.75356
859.33        87.96689
859.73        88.22617
860.13        88.45419
860.54        88.55727
860.94        88.55716
861.34        88.42358
861.75        88.18895
862.15        87.98177
862.55        87.80939
862.96        87.66015
863.36        87.51568
863.76        87.31374
864.17        87.04285
864.57        86.75882
864.97        86.50923
865.38        86.33553
865.78        86.30389
866.18        86.37344
866.58        86.49473
866.99        86.59612
867.39        86.68157
867.79         86.7128
868.19        86.71754
868.60        86.70463
869.00        86.66328
869.40        86.61543
869.80        86.51886
870.21        86.31798
870.61        86.10795
871.01        85.86625
871.41        85.66875
871.81        85.60696
872.22        85.66578
872.62        85.86079
873.02        86.15633
873.42        86.46188
873.82        86.72319
874.22        86.94536
874.63         87.1442
875.03        87.31134
875.43        87.45856
875.83        87.55305
876.23        87.59045
876.63        87.57313
877.03        87.49911
877.44        87.37804
877.84        87.19435
878.24        86.87282
878.64        86.43986
879.04        85.95866
879.44        85.56134
879.84        85.42225
880.24        85.55952
880.64        85.90776
881.04        86.35764
881.44        86.71537
881.84        86.89947
882.24        86.94112
882.65        86.83676
883.05        86.71039
883.45        86.56664
883.85        86.40713
884.25        86.25171
884.65        86.13176
885.05        86.05878
885.45         86.0238
885.85         86.0746
886.25        86.27754
886.65        86.62042
887.05        87.07202
887.45        87.46981
887.85        87.57365
888.25        87.34174
888.65        86.83224
889.04        86.24673
889.44        85.96484
889.84        86.06347
890.24        86.43816
890.64        86.86755
891.04        86.99393
891.44        86.74008
891.84        86.23833
892.24        85.67782
892.64        85.35068
893.04        85.33396
893.44        85.52142
893.83         85.8288
894.23        86.05615
894.63        86.16396
895.03         86.2122
895.43        86.20597
895.83        86.14825
896.23        86.05794
896.63        85.92426
897.02        85.79804
897.42        85.81634
897.82         85.9822
898.22        86.28503
898.62        86.63287
899.01        86.87744
899.41        86.95224
899.81         86.8993
900.21        86.83849
900.61        86.97373
901.00        87.33014
901.40        87.84614
901.80        88.34341
902.20        88.55659
902.59        88.44469
902.99        88.08845
903.39        87.66216
903.79        87.43691
904.18        87.47875
904.58        87.70636
904.98        88.01214
905.38         88.2551
905.77        88.37101
906.17        88.40292
906.57        88.34533
906.96        88.20824
907.36        87.98121
907.76        87.71063
908.15        87.41961
908.55        87.06931
908.95        86.72033
909.34        86.36337
909.74        86.18062
910.14        86.38441
910.53        86.98784
910.93         87.8892
911.33        88.78504
911.72        89.15659
912.12        88.88239
912.52        88.16066
912.91        87.30123
913.31        86.80076
913.70        86.76376
914.10        87.04443
914.49        87.53064
914.89        87.92119
915.29        88.12325
915.68        88.20476
916.08        88.21348
916.47        88.22381
916.87        88.26546
917.26        88.26267
917.66        88.18214
918.05        87.94544
918.45         87.5559
918.84        87.12215
919.24        86.68431
919.64        86.38646
920.03         86.3008
920.42        86.37392
920.82        86.64656
921.21        87.16865
921.61        87.88621
922.00        88.77355
922.40        89.62724
922.79        90.20146
923.19        90.35993
923.58        90.19527
923.98        89.78642
924.37        89.32379
924.77        88.87605
925.16        88.41099
925.55        87.99438
925.95         87.7223
926.34          87.632
926.74        87.71204
927.13        87.91453
927.52        88.03162
927.92        88.03717
928.31         87.9545
928.70        87.88242
929.10        87.96774
929.49         88.2382
929.89        88.59146
930.28        88.99145
930.67        89.23578
931.07        89.24601
931.46        89.10774
931.85        88.85339
932.24        88.57399
932.64        88.31847
933.03        88.08601
933.42        87.90179
933.82        87.79579
934.21         87.7837
934.60        87.86099
934.99        88.03958
935.39         88.2987
935.78        88.65851
936.17        89.09704
936.56         89.5169
936.96         89.7525
937.35        89.81609
937.74         89.7097
938.13        89.56383
938.53        89.58445
938.92        89.80485
939.31        90.15143
939.70        90.50462
940.09         90.6454
940.49        90.49167
940.88        90.17194
941.27        89.74771
941.66        89.31651
942.05        88.93019
942.44        88.56895
942.84        88.31538
943.23        88.25401
943.62        88.42044
944.01         88.8075
944.40        89.27534
944.79        89.56224
945.18         89.5841
945.57        89.37468
945.97        89.07844
946.36        88.99941
946.75        89.16001
947.14        89.46812
947.53        89.72872
947.92        89.60782
948.31        89.05217
948.70        88.23432
949.09        87.37322
949.48        86.78984
949.87        86.58138
950.26        86.63834
950.65        86.92982
951.04        87.40146
951.43        87.99253
951.82        88.71963
952.21        89.38875
952.60        89.66797
952.99        89.47693
953.38        88.87073
953.77        88.14336
954.16        87.76843
954.55        87.84976
954.94        88.28001
955.33        88.75769
955.72        88.76969
956.11        88.19064
956.50        87.17206
956.89        86.08526
957.28        85.56217
957.66        85.82311
958.05        86.67801
958.44        87.72136
958.83         88.2954
959.22        88.21613
959.61        87.61855
960.00        86.93378
960.39        86.84719
960.78        87.49005
961.16        88.69456
961.55        89.79042
961.94        89.77852
962.33        88.46172
962.72        86.25618
963.11        83.98225
963.49        82.80811
963.88        83.00437
964.27        84.25246
964.66        85.97677
965.04        87.14349
965.43        87.29745
965.82         86.7817
966.21        86.06507
966.60        85.87382
966.98        86.41116
967.37        87.38873
967.76        88.44518
968.15        88.91165
968.53        88.59404
968.92        87.72168
969.31        86.71392
969.69        86.15687
970.08        86.19022
970.47        86.64137
970.86        87.29065
971.24        87.78267
971.63        87.92635
972.02        87.87111
972.40        87.74944
972.79         87.6101
973.17        87.55933
973.56        87.49829
973.95        87.43387
974.33        87.36286
974.72        87.26636
975.11        87.15106
975.49        87.06648
975.88        87.10025
976.26        87.28704
976.65        87.57048
977.04        87.81963
977.42        87.79875
977.81         87.3925
978.19        86.66993
978.58        85.95789
978.96        85.80849
979.35        86.32007
979.74         87.3847
980.12        88.63109
980.51        89.21952
980.89        89.07648
981.28        88.30856
981.66        87.39732
982.05        87.20879
982.43        87.95436
982.82        89.25246
983.20        90.62498
983.59        91.17572
983.97        90.79745
984.35        89.76454
984.74        88.35793
985.12        87.10922
985.51        86.26952
985.89        85.70649
986.28        85.53922
986.66        85.98955
987.04        86.98221
987.43        88.43179
987.81        89.91299
988.20        90.53109
988.58        90.12305
988.96        88.91065
989.35        87.34198
989.73        86.25123
990.12        85.83817
990.50        85.92776
990.88        86.43259
991.27        87.07802
991.65        87.67549
992.03        88.29926
992.42         88.7198
992.80         88.8476
993.18        88.60611
993.56         87.9311
993.95        87.04562
994.33        86.56735
994.71        86.78136
995.10        87.47758
995.48          88.191
995.86        88.37305
996.24        87.95692
996.63        86.94916
997.01        85.82523
997.39        85.45171
997.77        86.14182
998.15        87.65549
998.54         89.1028
998.92        89.23811
999.30        87.88288
999.68        85.38506
1000.06        82.79681
1000.45        82.04385
1000.83        83.69588
1001.21        86.95419
1001.59        90.55334
1001.97        92.69686
1002.35        92.92771
1002.73        91.75735
1003.12        89.59704
1003.50        87.42968
1003.88        85.90014
1004.26        84.71812
1004.64         84.0733
1005.02        84.17601
1005.40        84.92579
1005.78        86.39684
1006.16        87.91387
1006.54        88.17219
1006.92        86.86433
1007.30        84.29385
1007.69        81.54955
1008.07        80.42628
1008.45        81.42194
1008.83        83.94217
1009.21        86.83376
1009.59        88.44909
1009.97        88.34021
1010.35        86.80901
1010.73        84.51704
1011.11        83.18298
1011.49        83.62494
1011.86        85.38338
1012.24        87.27819
1012.62        87.94002
1013.00        87.14578
1013.38        85.47195
1013.76        83.64481
1014.14        82.82748
1014.52        83.36948
1014.90         84.8101
1015.28        86.79671
1015.66        88.60027
1016.04        89.78219
1016.41        90.67799
1016.79        90.78353
1017.17         89.7415
1017.55          87.662
1017.93        84.67796
1018.31        81.82169
1018.69        80.72758
1019.06        81.87823
1019.44        85.10549
1019.82        89.24191
1020.20        91.62858
1020.58        91.26954
1020.95        88.76749
1021.33        85.91495
1021.71        85.04767
1022.09        86.45812
1022.46         89.3796
1022.84        92.29524
1023.22        92.35901
1023.60        88.57601
1023.97        81.29109
1024.35         72.2872
1024.73        65.95725
