SpectraSmart Spectrum 2.9.0.0
--------- Device Information -----------
Spectrum Name :  反射率_0
Saving Time :  2024/04/27 23:02:40
Spectro-Module Model Name : SE2030-DUVN
Spectro-Module Serial Number : OS361AC55029948
Wavelength Start : 200
Wavelength End : 1025
Wavelength Unit : Wavelength(nm)
Spectrum Unit : Reflectance(%)
-----------Spectrum Setting ------------
Integration Time : 20ms
Average : 10
Boxcar : 0
Background removal :  enabled
linearity correction :  enabled
SC :  disabled
Intensity correction :  disabled
DWT denoise :  enabled
savitzky-golay :  disabled
FFT :  disabled
Running average :  disabled
Kalman :  disabled
High pass :  disabled
---------------BEGIN--------------------
Wavelength(nm)             Reflectance(%)
200.29               0
200.75        107.6749
201.21        122.4836
201.67        126.1488
202.13        123.0043
202.58        116.1138
203.04        107.2184
203.50        99.01784
203.96        96.18083
204.42        98.67868
204.88        103.7065
205.34        109.0955
205.80        113.3686
206.26         116.613
206.72        119.8909
207.18        122.3301
207.64        119.6072
208.10        112.3226
208.55        105.7495
209.01        101.1162
209.47         97.2859
209.93        92.40801
210.39        82.16198
210.85        58.10606
211.31        57.21066
211.77        113.2403
212.23        133.7119
212.69        137.9174
213.14        137.9508
213.60        135.4356
214.06        129.1313
214.52         117.472
214.98        107.5056
215.44        108.6485
215.90        115.2397
216.36        120.9474
216.81        122.9315
217.27        122.4198
217.73        120.8573
218.19        118.9521
218.65        117.6939
219.11        117.7137
219.57        118.7481
220.02        121.4184
220.48        127.0815
220.94        134.6547
221.40        142.6344
221.86        149.0728
222.32        152.6917
222.77        153.6943
223.23        152.9594
223.69        151.8971
224.15        152.2206
224.61        154.1079
225.06        157.3046
225.52        160.2132
225.98        159.4237
226.44        155.3984
226.90        150.4578
227.36        147.0522
227.81         146.906
228.27        150.1374
228.73        155.8359
229.19        162.6037
229.65        167.2734
230.10        168.3624
230.56        166.9596
231.02        164.5797
231.48        163.5213
231.93        164.0915
232.39        165.7682
232.85         167.374
233.31        167.6229
233.77        166.3456
234.22        164.0338
234.68        161.7414
235.14        160.5073
235.60        160.5287
236.05        161.7463
236.51        162.9258
236.97        162.0049
237.43        158.3423
237.88        152.7726
238.34        147.1007
238.80        143.8731
239.26        143.5096
239.71         146.736
240.17        151.8916
240.63         151.925
241.08        142.8574
241.54        130.7836
242.00        121.9608
242.46        117.6252
242.91        116.4576
243.37        117.5448
243.83        121.9621
244.28        128.7729
244.74        129.6673
245.20        124.8204
245.66        119.5382
246.11        115.7178
246.57        112.2421
247.03        107.1373
247.48         100.095
247.94        94.87472
248.40        96.49612
248.85        103.5536
249.31         111.274
249.77        115.1865
250.22        115.6743
250.68        114.5343
251.14        114.0843
251.59        116.9315
252.05        123.9413
252.51        135.8333
252.96        150.8112
253.42        157.8934
253.88         151.065
254.33        137.2175
254.79        126.2867
255.25        122.2397
255.70        123.0403
256.16        126.7382
256.62        130.8873
257.07        133.1464
257.53        134.2214
257.99        134.5018
258.44        134.1589
258.90        134.2793
259.35        134.1956
259.81        134.5276
260.27        134.6909
260.72        134.1969
261.18        133.7499
261.63        132.8406
262.09        132.3629
262.55        132.3817
263.00        132.6153
263.46        133.2469
263.91        133.4703
264.37        133.0225
264.83        131.7596
265.28        129.8692
265.74        128.0607
266.19        126.6102
266.65        125.7663
267.11        125.2235
267.56        124.7105
268.02        124.0055
268.47        122.9547
268.93        121.7545
269.38        120.4554
269.84        119.2276
270.30        118.0995
270.75        116.9718
271.21        115.9046
271.66        114.8852
272.12        113.9326
272.57        112.9615
273.03        111.9086
273.48        110.4912
273.94        108.8213
274.39        106.9087
274.85        105.0591
275.31        103.4421
275.76        102.0452
276.22        100.9148
276.67        99.85378
277.13        98.89893
277.58         97.8617
278.04        96.86346
278.49        95.73598
278.95        94.54182
279.40        93.15799
279.86        91.73773
280.31        90.20425
280.77        88.75535
281.22        87.32373
281.68        86.03437
282.13        84.79885
282.59         83.7171
283.04        82.68052
283.50        81.74178
283.95        80.81291
284.41        79.92831
284.86        79.02304
285.32        78.16598
285.77        77.27394
286.22        76.36726
286.68        75.47182
287.13        74.51905
287.59         73.5955
288.04          72.674
288.50        71.82958
288.95         71.0074
289.41        70.24628
289.86        69.47689
290.32        68.74486
290.77        68.02055
291.22        67.35547
291.68        66.80151
292.13        66.33039
292.59        65.95961
293.04        65.62308
293.50        65.28559
293.95        64.91473
294.40        64.53649
294.86        64.20634
295.31        63.98771
295.77        63.90537
296.22        63.91884
296.68        63.97643
297.13        63.96367
297.58         63.8634
298.04        63.71917
298.49        63.56704
298.95        63.51737
299.40        63.55982
299.85           63.66
300.31        63.78526
300.76        63.84131
301.21        63.81812
301.67        63.76694
302.12        63.65519
302.58        63.52219
303.03        63.34687
303.48        63.15814
303.94        63.03396
304.39        63.00724
304.84         63.1086
305.30        63.32273
305.75        63.54736
306.20        63.70638
306.66        63.78908
307.11         63.7733
307.57        63.72131
308.02        63.63447
308.47        63.54683
308.93        63.46084
309.38        63.33402
309.83        63.16476
310.29        62.96535
310.74        62.72356
311.19        62.47976
311.65        62.28347
312.10        62.12408
312.55        61.99881
313.00        61.87777
313.46        61.71449
313.91        61.48835
314.36        61.22137
314.82        60.93679
315.27        60.67033
315.72        60.43625
316.18        60.23278
316.63         60.0393
317.08        59.85242
317.53        59.66576
317.99        59.47295
318.44         59.2825
318.89        59.08795
319.35        58.88796
319.80        58.69018
320.25        58.47967
320.70        58.24136
321.16        57.96606
321.61         57.6642
322.06        57.36805
322.51         57.1368
322.97        56.96992
323.42        56.87148
323.87        56.76608
324.32        56.54002
324.78         56.1689
325.23        55.71444
325.68        55.26245
326.13        54.96784
326.59        54.85773
327.04         54.9133
327.49        55.05474
327.94        55.16765
328.39        55.20376
328.85        55.17024
329.30        55.10308
329.75        55.00623
330.20        54.89269
330.66        54.73965
331.11        54.58023
331.56        54.40265
332.01        54.21549
332.46        54.02586
332.92        53.85735
333.37        53.81174
333.82        53.87864
334.27          54.033
334.72        54.19996
335.17        54.25558
335.63        54.15435
336.08        53.95981
336.53        53.71415
336.98        53.51635
337.43        53.40734
337.88        53.36548
338.34        53.37997
338.79        53.45016
339.24         53.5573
339.69        53.70169
340.14        53.86177
340.59         53.9973
341.05         54.0972
341.50        54.17713
341.95        54.22287
342.40        54.23269
342.85        54.20884
343.30        54.13477
343.75        54.06835
344.20        54.10251
344.66        54.25161
345.11        54.49849
345.56        54.71202
346.01        54.67573
346.46        54.36792
346.91         53.8691
347.36        53.39199
347.81          53.263
348.26         53.5381
348.72        54.09972
349.17        54.73248
349.62        55.09812
350.07        55.09924
350.52         54.8358
350.97        54.44203
351.42        54.13614
351.87        53.98985
352.32        53.93591
352.77        53.91166
353.22        53.82813
353.67        53.65985
354.13        53.45839
354.58        53.24202
355.03        53.08223
355.48        52.99223
355.93        52.94653
356.38         52.8841
356.83        52.71594
357.28        52.42797
357.73        52.05444
358.18        51.66978
358.63        51.38675
359.08        51.23061
359.53        51.16573
359.98        51.12622
360.43        51.01036
360.88        50.78769
361.33        50.47908
361.78        50.12987
362.23        49.83736
362.68        49.62732
363.13        49.43266
363.58        49.18299
364.03        49.00381
364.48        48.50428
364.93        48.02493
365.38        47.54525
365.83        47.21623
366.28        47.06061
366.73        47.03487
367.18        47.03879
367.63        46.90017
368.08        46.58239
368.53        46.14449
368.98        45.67609
369.43         45.3223
369.88        45.12355
370.33        45.02702
370.78        44.98444
371.23        44.92025
371.68        44.79987
372.13        44.64441
372.58        44.44697
373.03        44.19432
373.48        43.89489
373.93        43.55726
374.38        43.21076
374.83        42.90387
375.28        42.65224
375.72        42.43463
376.17        42.27317
376.62        42.14807
377.07        42.04354
377.52        41.94808
377.97        41.83868
378.42        41.68107
378.87        41.46925
379.32        41.22237
379.77        40.94244
380.22        40.63118
380.67        40.30201
381.11        39.96303
381.56        39.66499
382.01        39.49265
382.46        39.45889
382.91        39.53198
383.36        39.63472
383.81        39.64585
384.26        39.53062
384.71        39.31779
385.15        39.04168
385.60        38.80164
386.05        38.61168
386.50        38.45078
386.95         38.3013
387.40        38.13766
387.85         37.9614
388.29        37.77269
388.74        37.62841
389.19        37.51739
389.64        37.43184
390.09        37.34567
390.54        37.26622
390.98        37.20102
391.43        37.16967
391.88        37.17131
392.33        37.13168
392.78        37.00585
393.23        36.81372
393.67        36.41741
394.12        35.97956
394.57        36.16467
395.02        36.35077
395.47        36.41433
395.91        36.18748
396.36        36.12304
396.81        36.22989
397.26        36.25003
397.71        36.16133
398.15        36.06795
398.60        36.01447
399.05        35.83066
399.50        35.61149
399.95        35.72222
400.39        36.05958
400.84        36.07139
401.29        35.74333
401.74        35.40822
402.18        35.17423
402.63        35.11238
403.08         35.1987
403.53        35.19245
403.97        35.08503
404.42        35.07846
404.87        35.15467
405.32        35.21435
405.76        35.23846
406.21        35.16319
406.66         35.0359
407.11         35.1011
407.55         35.2764
408.00        35.17939
408.45        34.81597
408.90        34.32408
409.34        33.89022
409.79        33.94287
410.24        34.38052
410.68        34.58992
411.13         34.5143
411.58        34.52903
412.03        34.64823
412.47        34.70925
412.92        34.69172
413.37        34.64601
413.81        34.57372
414.26        34.50615
414.71        34.44327
415.15        34.38591
415.60         34.3234
416.05        34.26475
416.49        34.21613
416.94        34.17277
417.39        34.13837
417.83        34.11759
418.28        34.10125
418.73        34.07363
419.17        34.03771
419.62        34.00378
420.07        33.98515
420.51        33.99068
420.96        33.98791
421.41        33.96329
421.85        33.90907
422.30        33.68197
422.74        33.40594
423.19        33.68644
423.64        34.37812
424.08         34.5666
424.53        34.17758
424.98        34.05758
425.42        34.25999
425.87         34.0867
426.31        33.66299
426.76        33.90193
427.21        34.61675
427.65        34.58057
428.10        33.91124
428.54        33.68547
428.99        33.94196
429.44        34.35211
429.88        34.65203
430.33        34.20506
430.77         33.2782
431.22        32.96465
431.66        33.30156
432.11        33.68984
432.56        34.02265
433.00        34.26942
433.45        34.12498
433.89        33.75475
434.34        33.62267
434.78        32.00907
435.23        32.92374
435.67        33.79817
436.12        34.20744
436.57        34.17657
437.01        33.53009
437.46        33.22773
437.90        33.47694
438.35        34.00217
438.79        33.66361
439.24        33.70231
439.68        33.80383
440.13         33.8869
440.57        33.90236
441.02        34.04908
441.46        34.22524
441.91        33.78789
442.35         33.0141
442.80        33.13685
443.24         33.9574
443.69        34.05658
444.13        33.43538
444.58        33.22129
445.02        33.40874
445.47        33.39935
445.91        33.19434
446.36        33.11564
446.80        33.16673
447.24        33.22976
447.69        33.29359
448.13        33.41736
448.58        33.54876
449.02        33.51287
449.47        33.35212
449.91        33.27817
450.36         33.3178
450.80        33.34257
451.25        33.35218
451.69        33.39513
452.13        33.45768
452.58        33.49379
453.02        33.49736
453.47        33.47651
453.91        33.42992
454.36        33.41001
454.80        33.36968
455.24        33.19497
455.69        32.96563
456.13        32.75021
456.58        32.63993
457.02        32.89282
457.46        33.32074
457.91         33.3195
458.35        33.04372
458.79        32.95087
459.24        33.09235
459.68        33.15207
460.13        33.13774
460.57        33.04425
461.01         33.0266
461.46        33.06788
461.90        32.96947
462.34        33.04378
462.79        33.38349
463.23        33.41858
463.68        33.24221
464.12        33.12014
464.56        33.11053
465.01        33.27959
465.45        33.45534
465.89        33.34824
466.34         33.0609
466.78        32.79064
467.22         32.5775
467.67          33.176
468.11         33.1144
468.55        33.19946
468.99          33.031
469.44         33.0119
469.88        33.14191
470.32        33.17298
470.77        33.11543
471.21        33.09613
471.65        33.12642
472.10        33.17456
472.54        33.20642
472.98        33.22298
473.42        33.23082
473.87        33.14561
474.31         33.0091
474.75        33.18466
475.20        33.56128
475.64        33.50398
476.08        33.08207
476.52        33.02595
476.97        33.38612
477.41        33.48037
477.85        33.56602
478.29          33.933
478.74        33.79483
479.18        33.49707
479.62        33.97072
480.06        34.00328
480.50        33.96452
480.95        33.91023
481.39        33.82944
481.83        34.03982
482.27         34.1366
482.72        33.89871
483.16        34.26547
483.60        34.27724
484.04        34.22373
484.48        34.23717
484.93        34.49975
485.37        34.24067
485.81        34.85111
486.25        35.12938
486.69        35.07994
487.14        34.61924
487.58         35.1966
488.02        35.29419
488.46        35.31124
488.90         35.4724
489.34        35.18699
489.79        34.66211
490.23        35.24389
490.67        35.42673
491.11        35.57736
491.55        35.52979
491.99        35.36729
492.43        35.40311
492.88        35.64481
493.32        35.88285
493.76          36.067
494.20        36.28827
494.64        36.54957
495.08        36.73756
495.52        36.85312
495.96        37.12817
496.41        37.49445
496.85         37.3391
497.29        36.84221
497.73        36.88761
498.17        37.40486
498.61        37.81991
499.05        37.96266
499.49        37.95415
499.93        37.87204
500.37        37.82944
500.82        37.86025
501.26        38.05194
501.70        38.43039
502.14        38.15388
502.58        38.57388
503.02        38.69058
503.46        38.73963
503.90        38.76195
504.34        38.74786
504.78         38.8094
505.22        38.93544
505.66        39.03453
506.10        39.10384
506.54         39.2235
506.98         39.3934
507.42        39.48521
507.86        39.63748
508.30        39.69249
508.74        39.69597
509.18         39.6537
509.62        39.60402
510.06        39.60788
510.50        39.67723
510.94        39.79188
511.38        39.92425
511.82        40.02821
512.26        40.08796
512.70        40.12233
513.14        40.13242
513.58         40.1045
514.02        40.04416
514.46        39.98207
514.90        39.95724
515.34        39.89212
515.78         40.0247
516.22        40.15217
516.66        40.30191
517.10        40.40039
517.54         40.4287
517.98        40.40097
518.42        40.33759
518.86        40.28015
519.30        40.24355
519.74        40.21916
520.18         40.1994
520.62        40.17184
521.06        40.13624
521.50        40.10219
521.93        40.08569
522.37        40.09842
522.81        40.14333
523.25        40.20592
523.69         40.2678
524.13         40.3023
524.57        40.30057
525.01        40.27114
525.45        40.21381
525.89        40.12927
526.32         40.0204
526.76        39.89974
527.20        39.78773
527.64        39.72174
528.08        39.70736
528.52         39.7311
528.96        39.76782
529.40         39.7763
529.83        39.74085
530.27        39.67876
530.71        39.59374
531.15        39.49696
531.59        39.39706
532.03        39.29401
532.46        39.19696
532.90        39.13642
533.34        39.11506
533.78        39.13006
534.22        39.16823
534.66         39.2076
535.09        39.23497
535.53        39.25968
535.97         39.2832
536.41        39.31778
536.85        39.36394
537.28        39.41902
537.72        39.46432
538.16        39.46554
538.60        39.42376
539.04        39.36413
539.47        39.31169
539.91        39.32613
540.35        39.40839
540.79         39.5479
541.22        39.71151
541.66        39.84898
542.10         39.9422
542.54        40.00506
542.97         40.0508
543.41        40.12326
543.85        40.22726
544.29         40.3568
544.72        40.49008
545.16         40.6189
545.60        40.72982
546.04        40.82352
546.47         40.9276
546.91        41.08234
547.35        41.28339
547.79        41.53172
548.22        41.76173
548.66        41.85663
549.10        41.83189
549.53           41.87
549.97        41.99866
550.41        42.11669
550.84        42.23239
551.28        42.42861
551.72        42.67193
552.15        42.85724
552.59        42.97918
553.03        43.05516
553.46        43.11909
553.90        43.25643
554.34        43.46948
554.77        43.74115
555.21        44.00777
555.65        44.17204
556.08        44.17179
556.52        44.14373
556.96        44.11686
557.39        44.19853
557.83        44.37268
558.27        44.42493
558.70        44.37411
559.14        44.42794
559.57        44.58379
560.01        44.75208
560.45        44.88145
560.88         44.9533
561.32        45.00816
561.75        44.98503
562.19        44.95784
562.63        45.17164
563.06        45.53015
563.50        45.56123
563.93        45.30602
564.37         45.2749
564.80        45.47306
565.24        45.65292
565.68        45.77701
566.11        45.88824
566.55        45.99235
566.98        46.09595
567.42        46.21718
567.85        46.28736
568.29        46.37754
568.72        46.54427
569.16        46.77165
569.60        47.04488
570.03        47.38021
570.47        47.30264
570.90        47.39197
571.34        47.95771
571.77        48.02668
572.21        47.89417
572.64        48.24031
573.08        48.26311
573.51        48.38083
573.95        48.58855
574.38        48.82739
574.82        48.81563
575.25        48.68108
575.69        48.52636
576.12        48.81898
576.56        48.89264
576.99          49.163
577.42         48.8938
577.86        49.39046
578.29        49.35992
578.73        49.15681
579.16         48.9171
579.60        49.11703
580.03        49.03357
580.47        48.75367
580.90        48.90509
581.33        49.18275
581.77        48.92858
582.20        49.06711
582.64        48.91065
583.07        48.55548
583.51        48.39218
583.94        48.54266
584.37        48.54799
584.81        48.35174
585.24        48.25624
585.68        48.34691
586.11        47.88988
586.54         47.8056
586.98        47.82895
587.41        47.95705
587.85        47.82283
588.28        47.66251
588.71        47.69441
589.15        47.72372
589.58        47.48593
590.01        47.44608
590.45        47.58458
590.88         46.8574
591.31        46.95988
591.75        47.43887
592.18        47.49566
592.61        47.26171
593.05        47.51844
593.48        48.20681
593.91         48.0012
594.35        47.81824
594.78        48.02321
595.21        48.02649
595.65        48.17442
596.08        48.21086
596.51        48.30527
596.94        48.45044
597.38        48.67853
597.81        49.03149
598.24        48.91951
598.68        49.72793
599.11        49.48283
599.54        50.33811
599.97        50.40932
600.41        50.86575
600.84         51.1511
601.27        51.44151
601.70        51.58361
602.14        51.74231
602.57        52.27063
603.00        52.58257
603.43        53.26352
603.87        53.79056
604.30         53.8952
604.73        54.11108
605.16        54.97833
605.60        55.21122
606.03        55.79351
606.46        56.21999
606.89        56.40882
607.32         56.8215
607.76         57.2606
608.19        57.43351
608.62        57.77816
609.05        58.17839
609.48        58.39233
609.92        58.43132
610.35        58.81279
610.78        59.31872
611.21         59.3459
611.64         59.9803
612.07          60.217
612.50        60.40706
612.94        60.63588
613.37         60.9511
613.80        61.14763
614.23        61.34679
614.66        61.64264
615.09        62.03194
615.52        62.34949
615.96        62.60009
616.39        62.67306
616.82         63.1068
617.25        63.24486
617.68        63.51677
618.11        63.67781
618.54        63.86197
618.97        64.11082
619.40        64.33905
619.84        64.80081
620.27         64.7763
620.70         64.8139
621.13        64.64459
621.56        65.11624
621.99        64.72319
622.42        64.75234
622.85        65.30768
623.28         65.6323
623.71        65.47179
624.14        65.34703
624.57        65.52551
625.00        65.84348
625.43        65.37573
625.86        65.32871
626.29        65.56564
626.72        65.07621
627.15        65.13208
627.58        64.92453
628.01        64.91628
628.44          64.487
628.87        64.52473
629.30        64.65018
629.73        64.27493
630.16         63.8861
630.59        63.67915
631.02        63.40476
631.45        63.14892
631.88        62.86754
632.31        62.58486
632.74         62.0262
633.17        61.81237
633.60        61.42556
634.03         61.0478
634.46        60.67439
634.89        60.30861
635.32        59.93027
635.75        59.53297
636.18         59.1611
636.61        58.80447
637.04        58.37745
637.47        57.91373
637.89        57.57925
638.32        57.34598
638.75        57.07404
639.18        56.75848
639.61         56.4868
640.04        56.24974
640.47        56.00235
640.90        55.74395
641.33        55.46594
641.76        55.17617
642.18        55.02534
642.61        54.80371
643.04        54.67674
643.47        54.58099
643.90        54.51876
644.33        54.48523
644.76        54.48396
645.18        54.50822
645.61        54.53492
646.04        54.56239
646.47        54.59206
646.90         54.6453
647.33        54.75871
647.75        54.94687
648.18        55.20392
648.61        55.49566
649.04         55.8052
649.47        56.12376
649.89        56.34162
650.32        56.52459
650.75        57.03643
651.18        57.79745
651.61        58.21177
652.03        58.27392
652.46        58.59494
652.89        59.24827
653.32        59.49257
653.74        59.78278
654.17        60.62246
654.60        61.32426
655.03        61.77493
655.46        62.01889
655.88        62.75183
656.31        64.23186
656.74        67.30705
657.16        66.14945
657.59         65.0285
658.02        64.58363
658.45        65.93665
658.87        66.20478
659.30        66.29025
659.73        66.38557
660.15        66.45656
660.58        66.70267
661.01        67.17665
661.44        67.75263
661.86        68.04506
662.29        68.06833
662.72        68.19649
663.14        68.50678
663.57        68.90202
664.00        69.32214
664.42        69.60967
664.85        69.75665
665.27        69.88525
665.70        70.02676
666.13        70.17042
666.55         70.3365
666.98         70.5292
667.41        70.75541
667.83        71.01633
668.26        71.29049
668.69        71.57951
669.11        71.85815
669.54        72.07592
669.96        72.23714
670.39        72.35679
670.82        72.45537
671.24        72.59772
671.67        72.81548
672.09        72.97875
672.52        73.10635
672.94        73.54266
673.37        73.95004
673.80        73.97016
674.22        73.64185
674.65        73.58898
675.07        73.88564
675.50        74.16815
675.92        74.38708
676.35        74.59972
676.77        74.79139
677.20         74.9448
677.62        75.09039
678.05        75.25554
678.47        75.44665
678.90        75.66714
679.32        75.88733
679.75         76.0742
680.17        76.21744
680.60        76.33959
681.02        76.44888
681.45        76.53914
681.87        76.63237
682.30        76.70119
682.72        76.77853
683.15        76.96753
683.57        77.25025
684.00         77.4207
684.42        77.50304
684.85         77.6629
685.27        77.88296
685.70        78.16098
686.12        78.41264
686.54         78.3689
686.97        78.12041
687.39        78.17557
687.82        78.50964
688.24        78.59077
688.66        78.78394
689.09        78.55321
689.51        78.80634
689.94        78.89233
690.36        79.04977
690.78        79.22841
691.21        79.40576
691.63        79.57111
692.06        79.69992
692.48        79.75127
692.90        79.76286
693.33        79.82493
693.75        79.95877
694.17        80.13785
694.60        80.30544
695.02        80.43829
695.44        80.51554
695.87        80.48395
696.29          80.431
696.71         80.6541
697.14        81.07728
697.56        81.31493
697.98        81.33363
698.41        81.44076
698.83        81.63914
699.25        81.84521
699.68        82.03358
700.10         82.2319
700.52        82.42227
700.94        82.63753
701.37        82.81539
701.79        82.86745
702.21        82.76727
702.64         82.5765
703.06        82.37756
703.48        82.32276
703.90         82.4596
704.33        82.71476
704.75        83.07718
705.17        83.36389
705.59         83.5358
706.01        83.58546
706.44         83.5844
706.86        83.74725
707.28        83.84958
707.70        84.20731
708.12        84.62045
708.55        84.48811
708.97        83.96034
709.39        84.00507
709.81        84.60068
710.23        84.86916
710.66        84.76251
711.08        84.83437
711.50        85.05189
711.92        85.13758
712.34        85.08829
712.76        84.98065
713.19          84.883
713.61        84.96873
714.03        85.23893
714.45        85.62577
714.87        86.02754
715.29        86.29681
715.71        86.39416
716.13        86.36566
716.56        86.23819
716.98        86.15777
717.40         86.1407
717.82        86.16184
718.24        86.23112
718.66        86.36486
719.08        86.55443
719.50        86.79232
719.92        87.04137
720.34        87.23544
720.76        87.35298
721.19        87.39614
721.61        87.39139
722.03        87.34999
722.45        87.28779
722.87        87.20815
723.29        87.14697
723.71        87.14594
724.13        87.20161
724.55        87.37723
724.97           87.66
725.39        87.80427
725.81        87.74031
726.23         88.3445
726.65        88.13455
727.07        88.37775
727.49        88.62959
727.91        88.90687
728.33        89.12531
728.75        89.18208
729.17        89.07658
729.59        88.82961
730.01        88.53527
730.43        88.42159
730.85          88.545
731.27        88.69827
731.69        88.76398
732.10        89.33397
732.52        89.10278
732.94        89.17152
733.36        89.21918
733.78        89.17323
734.20         89.0155
734.62        89.51571
735.04        89.23405
735.46        89.50427
735.88        89.81895
736.30        89.81651
736.72        89.57227
737.13        89.61692
737.55        89.93323
737.97        90.24894
738.39         90.4631
738.81        90.37174
739.23        90.07928
739.65        90.20065
740.06        90.64138
740.48        90.83266
740.90        90.71676
741.32        90.73707
741.74        90.79165
742.16        90.87583
742.57        90.95816
742.99        91.07966
743.41        91.20391
743.83        91.20776
744.25        91.10266
744.67        90.99309
745.08        90.96191
745.50        91.00978
745.92        91.16737
746.34        91.45413
746.75        91.76272
747.17        91.88129
747.59        91.76755
748.01        91.49937
748.42        91.21004
748.84        91.02427
749.26          91.005
749.68         91.3092
750.09        91.77488
750.51        91.78614
750.93        91.43195
751.35        91.54278
751.76         92.0648
752.18        92.19971
752.60        91.89134
753.01        91.82113
753.43        91.78851
753.85        91.80698
754.27        91.74619
754.68        92.71982
755.10        92.89648
755.52        92.98714
755.93        93.26731
756.35         93.1431
756.77        92.91122
757.18        92.93233
757.60        93.34208
758.02        93.52324
758.43         93.2261
758.85        94.59387
759.26        93.79728
759.68         93.4769
760.10        93.46031
760.51        92.86305
760.93        93.19171
761.34        93.74654
761.76        94.43137
762.18        94.40794
762.59        93.84527
763.01        93.24862
763.42        93.95973
763.84        94.33795
764.26        94.62213
764.67        94.62878
765.09        94.45457
765.50        94.59489
765.92        95.01469
766.33        94.92517
766.75        94.24929
767.16        94.47485
767.58        94.22291
768.00        94.39764
768.41        94.58434
768.83        94.85563
769.24        95.10721
769.66        95.23586
770.07        95.22436
770.49        95.11049
770.90        94.99638
771.32        95.09964
771.73        95.39205
772.15        95.52271
772.56        95.48708
772.97        95.51315
773.39         95.6945
773.80        95.59668
774.22        95.32839
774.63        95.48818
775.05        95.97121
775.46        96.22836
775.88        96.16808
776.29        96.15241
776.70         96.2215
777.12        96.31467
777.53        96.46313
777.95        96.63212
778.36        96.79518
778.77        96.88436
779.19        96.89781
779.60        96.88515
780.02        96.81773
780.43        96.76214
780.84        96.74997
781.26        96.48523
781.67        96.16513
782.09        96.67938
782.50        97.65661
782.91        97.88223
783.33        96.97221
783.74        96.75256
784.15        97.15103
784.57        97.30143
784.98        97.18713
785.39        97.23267
785.81        97.41271
786.22        97.50647
786.63        97.52476
787.04        97.62461
787.46        97.82494
787.87        98.03989
788.28        98.21695
788.70        98.31931
789.11        98.32345
789.52        98.16767
789.93        97.96917
790.35        98.14046
790.76        98.62264
791.17        98.76194
791.58        98.58881
792.00        98.61002
792.41        98.86034
792.82        99.17342
793.23        99.44353
793.65        99.35668
794.06        99.13313
794.47         99.4789
794.88        100.1419
795.29        101.0261
795.71        100.2887
796.12        100.0993
796.53        99.99581
796.94        99.62473
797.35        99.12386
797.76        99.15292
798.18        99.69746
798.59        100.0828
799.00        100.2589
799.41        100.5652
799.82         100.934
800.23        101.1044
800.64         101.045
801.06        100.7863
801.47        100.4638
801.88        100.2181
802.29        100.1123
802.70        100.0919
803.11        100.1249
803.52        100.2184
803.93        100.3221
804.34        100.2989
804.75        100.2228
805.17        100.3461
805.58         100.725
805.99        101.1793
806.40        101.6059
806.81        101.8763
807.22        101.9349
807.63        101.8438
808.04        101.6779
808.45         101.532
808.86        101.4506
809.27        101.4211
809.68        101.4303
810.09        101.4424
810.50        101.4408
810.91        101.4526
811.32        101.4818
811.73        101.4695
812.14        101.4005
812.55        101.4433
812.96         101.595
813.37        101.4321
813.78         101.145
814.19        101.6711
814.60        102.7477
815.01        103.1643
815.42        102.8287
815.83         102.354
816.24        101.9395
816.65        101.6823
817.05        101.6954
817.46        101.9032
817.87        102.2191
818.28        102.4378
818.69        102.5107
819.10        102.5091
819.51        102.4782
819.92        102.5259
820.33        102.6867
820.74        102.8025
821.14         102.892
821.55        103.2658
821.96        103.7961
822.37        103.9546
822.78        103.7267
823.19        103.5742
823.60        103.5302
824.00        103.3377
824.41         102.968
824.82        102.6565
825.23        102.4412
825.64        102.2815
826.04        102.2297
826.45        102.2943
826.86        102.4822
827.27        102.7854
827.68        103.1169
828.08        103.3617
828.49        103.4042
828.90        103.3216
829.31        103.1931
829.72        103.1651
830.12        103.3114
830.53        103.5189
830.94        103.7728
831.35        103.9974
831.75        104.1943
832.16        104.3221
832.57        104.3924
832.97        104.3716
833.38        104.2513
833.79        104.0577
834.20        103.8666
834.60        103.7856
835.01        103.8571
835.42        104.0476
835.82        104.3248
836.23        104.5052
836.64        104.5815
837.04        104.6193
837.45        104.6112
837.86        104.6739
838.26        104.8462
838.67        105.0561
839.08        105.2834
839.48        105.4803
839.89        105.6114
840.29         105.689
840.70        105.7114
841.11        105.6785
841.51        105.6233
841.92        105.5162
842.33        105.3745
842.73        105.2239
843.14          105.02
843.54        104.7973
843.95        104.6141
844.35        104.5962
844.76        104.7348
845.17        105.0012
845.57        105.2654
845.98        105.2505
846.38        104.9408
846.79        104.3806
847.19        103.7721
847.60        103.3704
848.00        103.2917
848.41        103.4161
848.81        103.6809
849.22        103.8725
849.62        103.9727
850.03        104.0236
850.43          104.07
850.84        104.0724
851.24        104.1118
851.65        104.0783
852.05        104.1484
852.46          104.44
852.86         104.945
853.27        105.6102
853.67        106.1226
854.07        106.3378
854.48        106.1645
854.88        105.7077
855.29        104.9957
855.69        104.4193
856.10        103.9923
856.50        103.7863
856.90        103.6547
857.31        103.3931
857.71        103.0225
858.12        102.5557
858.52        102.2309
858.92        102.2733
859.33         102.689
859.73        103.4381
860.13        104.2301
860.54        104.5976
860.94        104.4604
861.34        103.8973
861.75        103.1219
862.15        102.5423
862.55        102.2532
862.96        102.1572
863.36        102.1582
863.76        102.0572
864.17        101.7953
864.57        101.4806
864.97        101.1958
865.38        101.0282
865.78        101.0564
866.18        101.1968
866.58        101.3646
866.99        101.4406
867.39         101.426
867.79        101.3103
868.19        101.1324
868.60        100.8975
869.00        100.6144
869.40        100.3209
869.80        100.0449
870.21        99.85695
870.61        99.88181
871.01        100.0245
871.41         100.266
871.81         100.578
872.22        100.8963
872.62        101.2611
873.02        101.6208
873.42         101.863
873.82        101.9533
874.22        101.9376
874.63        101.8878
875.03        101.8484
875.43        101.8661
875.83        101.8991
876.23        101.9998
876.63        102.2485
877.03        102.6377
877.44        103.1433
877.84        103.5829
878.24         103.595
878.64        103.1282
879.04        102.2986
879.44        101.4476
879.84        101.0619
880.24        101.2173
880.64        101.7804
881.04        102.4313
881.44        102.6086
881.84        102.1747
882.24        101.3183
882.65        100.3519
883.05        99.92482
883.45        100.1541
883.85        100.8284
884.25        101.6908
884.65        102.3787
885.05        102.7728
885.45        102.9702
885.85        103.0207
886.25        103.0026
886.65        102.9557
887.05        102.8509
887.45        102.6788
887.85        102.4393
888.25        102.1508
888.65        101.8458
889.04        101.6096
889.44        101.5866
889.84        101.7879
890.24        102.1635
890.64        102.5901
891.04        102.8703
891.44        102.9558
891.84        102.9077
892.24         102.795
892.64        102.7391
893.04        102.7734
893.44        102.8354
893.83        102.9571
894.23        103.1238
894.63        103.3364
895.03        103.5986
895.43        103.7851
895.83        103.6857
896.23        103.2924
896.63        102.7009
897.02        102.1053
897.42        101.8605
897.82        102.0161
898.22        102.4912
898.62        103.1313
899.01        103.6877
899.41        104.0304
899.81        104.2207
900.21        104.3457
900.61        104.5613
901.00        104.8824
901.40        105.2411
901.80        105.5044
902.20        105.4894
902.59        105.1872
902.99        104.6782
903.39        104.1236
903.79        103.7589
904.18        103.6518
904.58        103.7609
904.98        104.0115
905.38        104.3111
905.77        104.5985
906.17        104.8861
906.57        105.1326
906.96        105.2918
907.36        105.3118
907.76        105.2518
908.15        105.1149
908.55        104.8277
908.95        104.4488
909.34        103.9537
909.74          103.59
910.14        103.6802
910.53        104.2584
910.93        105.2074
911.33        106.1184
911.72        106.2804
912.12        105.5797
912.52        104.3304
912.91        103.0028
913.31        102.3391
913.70        102.4721
914.10        103.1483
914.49         104.196
914.89        105.1625
915.29        105.8626
915.68        106.3893
916.08        106.6521
916.47        106.5297
916.87        106.0615
917.26        105.2409
917.66        104.3183
918.05        103.6671
918.45        103.3897
918.84        103.4697
919.24        103.7011
919.64        103.8053
920.03         103.728
920.42        103.5467
920.82         103.443
921.21        103.6845
921.61          104.29
922.00        105.1716
922.40        106.0963
922.79        106.8045
923.19        107.1358
923.58        107.2044
923.98        107.0689
924.37         106.876
924.77         106.675
925.16         106.412
925.55         106.153
925.95        106.0046
926.34        106.0073
926.74        106.1476
927.13        106.3144
927.52        106.1996
927.92        105.7887
928.31        105.1497
928.70        104.5482
929.10        104.3717
929.49        104.6995
929.89        105.3626
930.28         106.164
930.67        106.5747
931.07        106.4321
931.46        105.9396
931.85        105.2962
932.24        104.8646
932.64        104.7571
933.03         104.856
933.42        105.1055
933.82        105.4112
934.21        105.7265
934.60        106.0803
934.99        106.4154
935.39        106.5885
935.78        106.6228
936.17        106.5143
936.56         106.313
936.96        106.1279
937.35         106.055
937.74         106.033
938.13        106.0605
938.53        106.1256
938.92        106.2013
939.31        106.2848
939.70        106.3379
940.09        106.2872
940.49        106.1042
940.88        105.8692
941.27        105.5869
941.66        105.2733
942.05        104.9676
942.44        104.6947
942.84        104.5647
943.23        104.7198
943.62        105.1926
944.01        105.9072
944.40        106.7174
944.79        107.3581
945.18         107.695
945.57        107.7465
945.97        107.5081
946.36        107.0455
946.75        106.3853
947.14         105.543
947.53        104.6019
947.92        103.7186
948.31        103.0029
948.70        102.5032
949.09        102.2521
949.48        102.2502
949.87        102.4785
950.26         102.912
950.65        103.5146
951.04        104.2358
951.43        105.0166
951.82        105.8064
952.21        106.4851
952.60        106.8759
952.99        106.9259
953.38        106.6803
953.77        106.2444
954.16        105.7923
954.55          105.39
954.94        105.0096
955.33        104.6671
955.72        104.3753
956.11        104.1303
956.50        103.9561
956.89        103.8088
957.28        103.5805
957.66         103.308
958.05        103.0326
958.44        102.8397
958.83        102.8456
959.22         103.064
959.61        103.3764
960.00        103.8531
960.39        104.6181
960.78        105.6304
961.16        106.9006
961.55        107.8992
961.94        107.8979
962.33        106.7736
962.72        104.7951
963.11        102.7182
963.49        101.6499
963.88        101.8406
964.27        103.0363
964.66        104.6108
965.04        105.4274
965.43        105.0485
965.82        103.8882
966.21        102.6167
966.60        102.2536
966.98        103.0651
967.37        104.6763
967.76        106.5385
968.15        107.5967
968.53           107.5
968.92        106.5383
969.31         105.281
969.69        104.5555
970.08        104.5829
970.47        105.1457
970.86        105.9332
971.24        106.4417
971.63        106.4613
972.02        106.2052
972.40        105.9654
972.79        106.0511
973.17        106.5647
973.56        107.2946
973.95         108.009
974.33        108.2793
974.72        107.9533
975.11        107.2232
975.49        106.3307
975.88        105.6679
976.26        105.4332
976.65        105.4541
977.04        105.7474
977.42        106.3082
977.81        106.9824
978.19        107.8052
978.58        108.6159
978.96        109.1478
979.35        109.2601
979.74        109.0732
980.12        108.7626
980.51        108.3828
980.89        108.1554
981.28        107.9722
981.66        108.0436
982.05        108.6407
982.43        109.7501
982.82        111.1061
983.20        112.4066
983.59        113.0293
983.97        112.9017
984.35        112.1468
984.74        110.7696
985.12        108.9182
985.51        106.8343
985.89        104.6692
986.28        102.9124
986.66        102.2124
987.04        102.6351
987.43        103.9697
987.81        105.7938
988.20        107.1711
988.58        107.8318
988.96        107.9218
989.35        107.6493
989.73        107.5262
990.12        107.6543
990.50        107.9584
990.88        108.3314
991.27        108.5971
991.65        108.7221
992.03        108.7125
992.42        108.6537
992.80        108.7443
993.18         108.959
993.56        109.2694
993.95        109.3641
994.33        108.7392
994.71        107.3681
995.10        105.7444
995.48          104.35
995.86        103.5991
996.24        103.4823
996.63        103.7802
997.01        104.5592
997.39        105.5656
997.77        106.5299
998.15        107.3895
998.54        107.9747
998.92        108.0843
999.30        107.7401
999.68        107.0194
1000.06        106.0257
1000.45        104.9909
1000.83        104.1907
1001.21        103.5202
1001.59        103.1998
1001.97        103.5051
1002.35        104.4505
1002.73        106.0745
1003.12         107.734
1003.50        108.0841
1003.88        106.7783
1004.26        104.2966
1004.64        101.8074
1005.02        100.7815
1005.40        101.3961
1005.78        103.2393
1006.16        105.4276
1006.54        106.3568
1006.92        105.5473
1007.30        103.4909
1007.69        101.1353
1008.07         99.9803
1008.45           100.5
1008.83         102.159
1009.21        104.1345
1009.59        105.2957
1009.97        105.3123
1010.35        104.4186
1010.73        103.0519
1011.11        102.2727
1011.49         102.623
1011.86        103.9064
1012.24        105.2663
1012.62        105.7896
1013.00        105.3575
1013.38        104.3013
1013.76        103.4054
1014.14        103.9622
1014.52        106.2565
1014.90        109.8454
1015.28        113.7321
1015.66          115.93
1016.04        115.6739
1016.41        113.6499
1016.79         110.487
1017.17        107.4949
1017.55        105.1455
1017.93        103.1766
1018.31        101.7176
1018.69        100.9216
1019.06         100.853
1019.44        101.6043
1019.82        102.9234
1020.20        104.0557
1020.58        104.6361
1020.95        104.5929
1021.33        104.3826
1021.71        104.6072
1022.09         105.359
1022.46        106.4575
1022.84        107.4442
1023.22        107.4071
1023.60          106.04
1023.97        103.3474
1024.35        100.1798
1024.73        98.45206
