SpectraSmart Spectrum 2.9.0.0
--------- Device Information -----------
Spectrum Name :  反射率_0
Saving Time :  2024/04/27 22:37:05
Spectro-Module Model Name : SE2030-DUVN
Spectro-Module Serial Number : OS361AC55029948
Wavelength Start : 200
Wavelength End : 1025
Wavelength Unit : Wavelength(nm)
Spectrum Unit : Reflectance(%)
-----------Spectrum Setting ------------
Integration Time : 20ms
Average : 10
Boxcar : 0
Background removal :  enabled
linearity correction :  enabled
SC :  disabled
Intensity correction :  disabled
DWT denoise :  enabled
savitzky-golay :  disabled
FFT :  disabled
Running average :  disabled
Kalman :  disabled
High pass :  disabled
---------------BEGIN--------------------
Wavelength(nm)             Reflectance(%)
200.29               0
200.75       -52.12329
201.21       -8.748914
201.67        31.29785
202.13        50.33518
202.58        55.15076
203.04        54.05787
203.50        51.28624
203.96        51.53201
204.42         55.2629
204.88        59.90159
205.34        63.99086
205.80        66.95901
206.26        68.86456
206.72         69.8259
207.18        70.19579
207.64          70.326
208.10        70.36878
208.55        71.18719
209.01        69.84016
209.47        64.18586
209.93        51.08103
210.39        16.98918
210.85       -85.76166
211.31       -209.9112
211.77       -61.04667
212.23        37.55781
212.69        71.37081
213.14        78.84387
213.60        72.54654
214.06        53.42841
214.52        19.57386
214.98       -1.464094
215.44        15.63419
215.90        44.29502
216.36        65.93472
216.81         75.6552
217.27        77.08797
217.73        74.54479
218.19        69.32821
218.65        62.81615
219.11        55.93337
219.57        47.74611
220.02        39.94912
220.48        38.41384
220.94        43.97215
221.40        53.82655
221.86        63.91258
222.32        70.26573
222.77        72.73257
223.23        72.78042
223.69        71.21528
224.15        68.69569
224.61        65.49146
225.06        61.21483
225.52        57.02975
225.98        55.06317
226.44        55.65182
226.90        57.63868
227.36        59.60677
227.81        60.38455
228.27        60.02654
228.73        58.79441
229.19        57.08062
229.65         55.7326
230.10        55.03863
230.56         55.0372
231.02        55.05126
231.48        54.29648
231.93        52.66843
232.39        50.58109
232.85        48.89384
233.31        48.81936
233.77        50.36755
234.22        53.09126
234.68        55.65716
235.14        56.35961
235.60        54.90215
236.05         51.5117
236.51        47.58543
236.97        46.38157
237.43        49.07684
237.88        54.77029
238.34        60.66653
238.80        63.74533
239.26        63.15458
239.71        58.61341
240.17        49.70017
240.63         42.4459
241.08        43.94787
241.54        50.64819
242.00        57.01274
242.46        60.34259
242.91         61.1537
243.37        59.99832
243.83        56.00927
244.28         49.9043
244.74        47.89405
245.20         50.5094
245.66        52.58854
246.11        50.78754
246.57        44.57633
247.03        33.79414
247.48        18.20197
247.94        8.257038
248.40        14.88039
248.85         30.9991
249.31        49.13871
249.77        64.00135
250.22        74.37059
250.68        81.36815
251.14        85.34805
251.59        86.82478
252.05        86.20214
252.51        82.46225
252.96        74.89446
253.42        66.51686
253.88        61.01305
254.33        59.42362
254.79        58.66889
255.25        54.96204
255.70        48.98047
256.16        42.88284
256.62        39.38482
257.07        41.29727
257.53         47.0302
257.99        53.47183
258.44        58.06186
258.90         59.0603
259.35         56.8536
259.81        53.30125
260.27        49.45464
260.72        46.52785
261.18        44.98038
261.63        44.05979
262.09        43.62498
262.55        43.25599
263.00        42.78735
263.46        42.45422
263.91        42.16379
264.37        42.03765
264.83        41.99122
265.28        41.92707
265.74        41.82581
266.19        41.52578
266.65        41.08145
267.11        40.51217
267.56        39.87461
268.02        39.35123
268.47         38.9409
268.93        38.60483
269.38        38.30579
269.84        38.00533
270.30        37.67229
270.75         37.3223
271.21        36.89606
271.66        36.25842
272.12        35.43383
272.57        34.44441
273.03        33.48073
273.48        32.75738
273.94        32.36364
274.39        32.18452
274.85        32.10896
275.31        31.90225
275.76        31.49345
276.22         30.9777
276.67        30.40608
277.13        29.94292
277.58        29.57018
278.04         29.2837
278.49         28.9615
278.95        28.53756
279.40        27.96543
279.86         27.3561
280.31         26.7733
280.77        26.41703
281.22        26.26887
281.68        26.28815
282.13        26.34999
282.59        26.33087
283.04        26.17921
283.50        25.94533
283.95        25.65843
284.41         25.4033
284.86        25.18616
285.32         24.9995
285.77        24.80404
286.22        24.57658
286.68        24.33302
287.13        24.07007
287.59         23.8404
288.04        23.64535
288.50        23.51898
288.95        23.42579
289.41        23.38161
289.86        23.36919
290.32        23.39216
290.77        23.43592
291.22        23.48094
291.68        23.49372
292.13         23.4628
292.59        23.41476
293.04        23.37461
293.50        23.40647
293.95        23.52076
294.40        23.71666
294.86        23.97831
295.31        24.26958
295.77        24.58752
296.22        24.92699
296.68        25.31288
297.13        25.75981
297.58        26.26398
298.04        26.80052
298.49        27.31915
298.95        27.76172
299.40         28.1157
299.85        28.39999
300.31        28.67464
300.76        28.99792
301.21         29.3922
301.67        29.83799
302.12        30.27015
302.58        30.62613
303.03        30.87848
303.48        31.05975
303.94        31.23595
304.39        31.46193
304.84        31.76201
305.30        32.11348
305.75        32.44268
306.20        32.67592
306.66        32.80685
307.11        32.83345
307.57        32.82709
308.02        32.83602
308.47        32.88949
308.93        32.96946
309.38         33.0161
309.83         32.9608
310.29        32.80583
310.74        32.57273
311.19        32.32845
311.65        32.17302
312.10        32.11346
312.55        32.12086
313.00         32.1584
313.46        32.17045
313.91        32.13101
314.36        32.05998
314.82        31.94328
315.27        31.75381
315.72        31.50215
316.18        31.21039
316.63        30.92348
317.08        30.73596
317.53        30.66627
317.99        30.67889
318.44        30.74168
318.89        30.78212
319.35        30.77288
319.80        30.73729
320.25        30.65989
320.70         30.5241
321.16        30.32908
321.61        30.08006
322.06        29.83317
322.51        29.68638
322.97        29.65747
323.42        29.74007
323.87        29.84201
324.32        29.81389
324.78        29.61604
325.23        29.28769
325.68        28.94026
326.13        28.76715
326.59         28.8001
327.04        29.00246
327.49         29.2179
327.94        29.19912
328.39        28.88615
328.85        28.34721
329.30        27.75495
329.75        27.39738
330.20        27.36369
330.66        27.55964
331.11        27.85208
331.56        27.97182
332.01         27.8439
332.46        27.55304
332.92        27.20175
333.37        26.99454
333.82        26.98709
334.27        27.10312
334.72        27.28753
335.17         27.4578
335.63        27.56812
336.08        27.66877
336.53        27.71855
336.98        27.65654
337.43        27.48541
337.88        27.21857
338.34        26.95522
338.79        26.86962
339.24        26.99997
339.69        27.30049
340.14        27.65691
340.59        27.87505
341.05        27.90224
341.50        27.80119
341.95        27.64726
342.40        27.57302
342.85        27.61298
343.30         27.7108
343.75        27.83004
344.20        27.91618
344.66        27.95252
345.11        27.96897
345.56        27.94752
346.01        27.85115
346.46        27.68751
346.91        27.46441
347.36        27.27099
347.81        27.24536
348.26        27.40585
348.72        27.71169
349.17        28.03403
349.62        28.16438
350.07        28.05389
350.52        27.75749
350.97         27.4147
351.42        27.25181
351.87        27.32039
352.32        27.55104
352.77        27.80098
353.22        27.85226
353.67        27.66249
354.13        27.32215
354.58        26.94589
355.03        26.76526
355.48        26.83168
355.93        27.06276
356.38        27.33165
356.83        27.44488
357.28        27.35268
357.73        27.12424
358.18        26.83562
358.63        26.60278
359.08        26.46111
359.53         26.3665
359.98        26.30006
360.43        26.23606
360.88        26.16415
361.33        26.10384
361.78         26.0268
362.23        25.91658
362.68        25.77756
363.13        25.54503
363.58        25.26094
364.03        25.34064
364.48        25.23886
364.93        25.36644
365.38        25.47368
365.83        25.44252
366.28        25.24046
366.73        24.91528
367.18        24.54629
367.63        24.24696
368.08        24.05523
368.53        23.94033
368.98        23.86102
369.43        23.74792
369.88        23.58323
370.33        23.39659
370.78        23.21392
371.23        23.07424
371.68        22.98361
372.13        22.91297
372.58        22.85041
373.03        22.78165
373.48         22.6971
373.93        22.60956
374.38        22.48886
374.83        22.28468
375.28        22.00213
375.72        21.65475
376.17        21.34511
376.62        21.19301
377.07        21.21446
377.52         21.3546
377.97        21.52815
378.42        21.59922
378.87        21.53107
379.32        21.37495
379.77        21.15425
380.22         20.9055
380.67        20.65127
381.11        20.37443
381.56        20.13217
382.01        20.02089
382.46        20.05261
382.91        20.20479
383.36        20.36428
383.81        20.34961
384.26        20.12643
384.71        19.74734
385.15        19.33213
385.60        19.10367
386.05        19.10032
386.50         19.2594
386.95        19.46386
387.40        19.53068
387.85        19.42342
388.29        19.19888
388.74        18.97864
389.19        18.88754
389.64        18.94312
390.09        19.07946
390.54        19.22562
390.98        19.27094
391.43        19.19481
391.88        19.04419
392.33        18.83644
392.78        18.62363
393.23        18.43636
393.67        18.18282
394.12        17.92429
394.57        17.95592
395.02        17.96007
395.47        17.89214
395.91        17.69309
396.36        17.61759
396.81        17.67637
397.26         17.7263
397.71         17.7366
398.15        17.73081
398.60        17.72247
399.05        17.63797
399.50        17.52383
399.95         17.5597
400.39        17.69721
400.84        17.66131
401.29        17.46385
401.74        17.29979
402.18         17.2259
402.63        17.27055
403.08        17.38874
403.53        17.40603
403.97        17.30794
404.42        17.21243
404.87        17.14785
405.32        17.12416
405.76        17.14539
406.21        17.15905
406.66        17.16164
407.11        17.23121
407.55        17.31484
408.00        17.23957
408.45        17.01723
408.90        16.73121
409.34        16.48112
409.79        16.46954
410.24        16.65337
410.68        16.74839
411.13        16.72696
411.58        16.76818
412.03        16.86273
412.47        16.90168
412.92        16.86798
413.37        16.79994
413.81        16.71579
414.26         16.6564
414.71        16.62944
415.15        16.62541
415.60          16.641
416.05        16.67701
416.49        16.72967
416.94        16.79416
417.39        16.85497
417.83        16.88996
418.28        16.88792
418.73        16.84498
419.17        16.78164
419.62        16.73653
420.07        16.72763
420.51        16.75815
420.96         16.7919
421.41        16.79074
421.85        16.74588
422.30        16.59465
422.74         16.4339
423.19         16.6147
423.64         17.0734
424.08        17.34437
424.53        17.31791
424.98        17.31625
425.42        17.34333
425.87        17.07968
426.31        16.66613
426.76        16.68158
427.21        17.05805
427.65        17.16056
428.10        16.98058
428.54        16.94239
428.99          17.043
429.44        17.20321
429.88        17.31874
430.33        17.02027
430.77        16.50389
431.22        16.48739
431.66        16.94291
432.11        17.30311
432.56        17.46382
433.00        17.57153
433.45         17.4789
433.89        17.13963
434.34         16.8798
434.78        16.05416
435.23        16.71127
435.67        17.29272
436.12        17.57212
436.57        17.69765
437.01        17.53937
437.46        17.45765
437.90        17.54842
438.35         17.7028
438.79        17.36707
439.24        17.25665
439.68        17.23373
440.13        17.24726
440.57        17.26194
441.02        17.37705
441.46        17.53617
441.91          17.352
442.35         16.9845
442.80        17.20586
443.24        17.86704
443.69        17.95051
444.13        17.47132
444.58        17.29007
445.02        17.41382
445.47         17.3898
445.91        17.22096
446.36        17.15378
446.80        17.19414
447.24        17.26284
447.69        17.35202
448.13        17.49361
448.58         17.6516
449.02        17.73278
449.47         17.7374
449.91        17.74695
450.36        17.76849
450.80        17.74224
451.25        17.68599
451.69        17.65757
452.13        17.65851
452.58        17.65768
453.02        17.64284
453.47        17.60239
453.91        17.53314
454.36         17.4745
454.80        17.40792
455.24        17.28328
455.69        17.14637
456.13        17.02636
456.58        16.97481
457.02        17.13258
457.46        17.39855
457.91        17.44907
458.35        17.34648
458.79        17.30186
459.24        17.33957
459.68        17.30584
460.13        17.22533
460.57        17.11039
461.01         17.0499
461.46        17.05584
461.90        17.03338
462.34        17.01927
462.79        17.27033
463.23         17.3223
463.68        17.27556
464.12        17.24974
464.56        17.26848
465.01        17.36596
465.45        17.45063
465.89         17.3808
466.34        17.21269
466.78        17.04727
467.22        16.90695
467.67        17.18378
468.11        17.11823
468.55          17.133
468.99        17.02504
469.44        17.00657
469.88        17.07619
470.32        17.10162
470.77        17.09069
471.21        17.11007
471.65        17.16497
472.10        17.24126
472.54        17.30131
472.98        17.31434
473.42        17.28179
473.87        17.16721
474.31         17.0358
474.75        17.14562
475.20        17.44718
475.64        17.58611
476.08         17.5256
476.52        17.55117
476.97        17.67381
477.41        17.55706
477.85        17.40178
478.29        17.49634
478.74        17.41449
479.18        17.34188
479.62        17.69379
480.06        17.78453
480.50        17.78755
480.95         17.7138
481.39        17.58025
481.83        17.78954
482.27        17.81908
482.72        17.79914
483.16        18.09625
483.60        18.16997
484.04        18.14535
484.48        18.12878
484.93        18.28876
485.37        18.18476
485.81        18.57952
486.25        19.15803
486.69        18.49649
487.14        18.28813
487.58        19.18425
488.02        18.74251
488.46        19.28552
488.90         18.8784
489.34        18.86815
489.79        18.56108
490.23         18.9855
490.67        19.31224
491.11        19.64518
491.55        19.70324
491.99        19.53748
492.43        19.56975
492.88        19.81383
493.32        19.98884
493.76        20.06347
494.20        20.17703
494.64        20.34231
495.08        20.45872
495.52        20.53381
495.96        20.75719
496.41        21.09908
496.85        21.02876
497.29        20.68921
497.73        20.82494
498.17        21.36367
498.61        21.67486
499.05        21.65644
499.49         21.6244
499.93        21.63334
500.37        21.61588
500.82        21.60473
501.26        21.72295
501.70        21.99187
502.14        21.91338
502.58        22.23327
503.02        22.32757
503.46        22.32253
503.90        22.25982
504.34        22.16962
504.78        22.17378
505.22        22.28253
505.66         22.4236
506.10        22.56112
506.54        22.69863
506.98        22.82547
507.42        22.83363
507.86        22.91613
508.30        22.95271
508.74        23.00552
509.18        23.05856
509.62         23.1151
510.06        23.17975
510.50        23.24885
510.94        23.32251
511.38        23.39093
511.82        23.43707
512.26        23.45703
512.70        23.45747
513.14        23.44629
513.58        23.42734
514.02        23.40602
514.46        23.40093
514.90        23.42037
515.34         23.3935
515.78        23.45573
516.22        23.49492
516.66        23.54979
517.10        23.61386
517.54        23.68199
517.98        23.74874
518.42        23.79769
518.86        23.80844
519.30        23.77748
519.74        23.71232
520.18        23.63192
520.62        23.56542
521.06        23.52395
521.50         23.5054
521.93         23.5032
522.37        23.49556
522.81        23.48043
523.25        23.46012
523.69        23.44699
524.13        23.46004
524.57        23.49814
525.01        23.55054
525.45        23.58858
525.89        23.56882
526.32        23.48158
526.76        23.35131
527.20        23.20846
527.64        23.10569
528.08         23.0566
528.52        23.04186
528.96         23.0468
529.40        23.04729
529.83        23.03144
530.27         23.0111
530.71        22.97215
531.15         22.8922
531.59        22.77398
532.03        22.62677
532.46        22.48489
532.90        22.41702
533.34        22.43298
533.78        22.51321
534.22        22.61985
534.66        22.69418
535.09        22.71658
535.53        22.70482
535.97        22.67555
536.41        22.66045
536.85        22.66796
537.28        22.68818
537.72        22.70586
538.16        22.69481
538.60        22.65511
539.04        22.60843
539.47        22.57157
539.91        22.58018
540.35        22.63614
540.79        22.73206
541.22        22.85309
541.66        22.97674
542.10        23.09151
542.54        23.20126
542.97        23.30184
543.41        23.40173
543.85        23.49927
544.29        23.59335
544.72        23.68147
545.16         23.7788
545.60        23.88107
546.04        23.98558
546.47        24.09639
546.91        24.21414
547.35        24.33537
547.79        24.47126
548.22        24.60274
548.66        24.69388
549.10        24.75795
549.53        24.89084
549.97        25.09029
550.41        25.26657
550.84        25.41248
551.28        25.58431
551.72        25.76629
552.15        25.90277
552.59         25.9957
553.03        26.05381
553.46        26.10182
553.90        26.19796
554.34        26.34721
554.77        26.54131
555.21         26.7417
555.65        26.88715
556.08        26.93671
556.52        26.97105
556.96        27.00588
557.39        27.10461
557.83        27.25545
558.27        27.32728
558.70        27.32574
559.14        27.36221
559.57        27.43472
560.01          27.518
560.45        27.59283
560.88        27.61406
561.32        27.63662
561.75        27.73162
562.19        27.90066
562.63        28.13089
563.06        28.34674
563.50        28.33816
563.93        28.15712
564.37        28.13658
564.80        28.29002
565.24        28.45354
565.68        28.59812
566.11        28.74127
566.55         28.8788
566.98         29.0259
567.42        29.18066
567.85         29.2556
568.29        29.30662
568.72        29.42439
569.16        29.60314
569.60        29.81206
570.03        30.05949
570.47        30.04937
570.90        30.16757
571.34        30.63073
571.77        30.67037
572.21        30.78684
572.64        31.22193
573.08        31.00303
573.51        31.06487
573.95        31.19523
574.38        31.47257
574.82        31.68886
575.25        31.48805
575.69        31.32216
576.12        31.09799
576.56        31.68077
576.99        31.87486
577.42        31.63088
577.86        31.89325
578.29         31.8479
578.73        31.69991
579.16        31.61142
579.60        31.49141
580.03        31.37961
580.47        31.28008
580.90        31.17506
581.33        31.42194
581.77        31.24162
582.20        31.11138
582.64        30.88724
583.07        30.89548
583.51        30.78903
583.94        30.72557
584.37        30.62136
584.81        30.47882
585.24        30.38082
585.68        30.39314
586.11        30.05993
586.54        29.91024
586.98        29.97905
587.41        30.26822
587.85        29.86479
588.28        29.93634
588.71        29.77316
589.15        29.98643
589.58        29.65933
590.01        29.80711
590.45        29.80948
590.88        29.45766
591.31        29.43278
591.75        29.58651
592.18        29.69824
592.61        29.75668
593.05        29.91244
593.48        30.12646
593.91        29.73491
594.35        29.85055
594.78         30.1461
595.21        30.35637
595.65          30.342
596.08        30.02923
596.51        30.32504
596.94        30.55996
597.38        30.93156
597.81        31.26839
598.24        31.14343
598.68        31.66948
599.11        32.01951
599.54        32.14708
599.97        32.17632
600.41        32.80068
600.84         33.0789
601.27        33.22055
601.70        33.50468
602.14        33.64325
602.57        34.12941
603.00        34.65841
603.43        35.07677
603.87        35.52071
604.30        35.61938
604.73        35.92622
605.16        36.53356
605.60        36.83368
606.03         37.3182
606.46        37.71902
606.89        37.97554
607.32        38.29368
607.76        38.87238
608.19        38.91264
608.62        39.15535
609.05         39.4047
609.48        39.71453
609.92        40.04797
610.35        40.53247
610.78         40.7571
611.21        40.99327
611.64        41.33669
612.07        41.58745
612.50        41.80099
612.94         42.0653
613.37        42.42725
613.80        42.55619
614.23        42.96467
614.66        43.28973
615.09        43.62867
615.52        43.97284
615.96         44.3366
616.39        44.28564
616.82        44.45053
617.25        44.88032
617.68        45.17088
618.11        45.34832
618.54        45.30913
618.97        45.54184
619.40        45.98766
619.84          46.251
620.27        46.38491
620.70        46.36878
621.13        46.21468
621.56        46.76944
621.99        46.90018
622.42        46.88016
622.85        46.79635
623.28        47.20228
623.71        47.24592
624.14        46.97594
624.57        47.30145
625.00        47.60454
625.43        47.11665
625.86        47.03662
626.29        47.11388
626.72        46.69255
627.15        46.73036
627.58        46.61013
628.01        46.66084
628.44        46.28782
628.87        46.15445
629.30        46.21377
629.73        45.61572
630.16         45.1971
630.59        44.96511
631.02        44.73579
631.45         44.5522
631.88        44.29273
632.31        43.94624
632.74        43.65885
633.17        43.28416
633.60        42.92088
634.03        42.52666
634.46        42.11584
634.89        41.69788
635.32        41.28528
635.75        40.88652
636.18        40.51941
636.61          40.179
637.04         39.8068
637.47         39.4194
637.89        39.12806
638.32        38.89124
638.75        38.58068
639.18        38.19099
639.61         37.7967
640.04        37.42105
640.47        37.08051
640.90         36.7897
641.33        36.53239
641.76        36.30464
642.18        36.18789
642.61         36.0344
643.04        35.95555
643.47        35.90195
643.90        35.86214
644.33        35.83061
644.76        35.81179
645.18        35.80494
645.61        35.80608
646.04        35.81656
646.47        35.83111
646.90        35.87638
647.33        35.99115
647.75        36.19042
648.18        36.48484
648.61        36.81239
649.04         37.0937
649.47         37.3253
649.89        37.43989
650.32        37.54685
650.75        38.05949
651.18        38.87502
651.61        39.36999
652.03        39.47916
652.46        39.67713
652.89        40.12284
653.32        40.43668
653.74        40.78099
654.17        42.06132
654.60        41.87746
655.03        42.30855
655.46        42.72859
655.88        43.48638
656.31        44.67625
656.74        46.23666
657.16        46.24713
657.59        46.48022
658.02        45.32117
658.45        45.68258
658.87        46.24424
659.30         46.4786
659.73        46.21751
660.15        46.64081
660.58        46.71325
661.01        47.16592
661.44        47.98789
661.86        48.11021
662.29        47.76681
662.72        47.82475
663.14        48.33891
663.57        48.68927
664.00        48.84133
664.42        49.07169
664.85        49.38245
665.27         49.6693
665.70        49.92348
666.13        50.16243
666.55        50.38629
666.98        50.59037
667.41        50.79224
667.83        51.01177
668.26        51.24627
668.69         51.5021
669.11        51.75063
669.54        51.95239
669.96        52.10861
670.39        52.17561
670.82        52.21068
671.24        52.42202
671.67        52.76682
672.09        52.93947
672.52        52.95808
672.94        53.04641
673.37        53.22544
673.80        53.38115
674.22        53.52196
674.65        53.66182
675.07         53.8148
675.50        53.97833
675.92        54.14713
676.35        54.29264
676.77        54.41833
677.20        54.53509
677.62        54.66966
678.05        54.84855
678.47        55.07318
678.90         55.3355
679.32        55.60378
679.75         55.8398
680.17        56.02917
680.60        56.19067
681.02        56.31426
681.45        56.37637
681.87        56.39441
682.30        56.34263
682.72        56.29485
683.15        56.42863
683.57        56.74205
684.00        57.01956
684.42        57.21946
684.85         57.4404
685.27        57.65721
685.70        57.78445
686.12        57.84593
686.54        57.95582
686.97         58.1121
687.39        58.28404
687.82        58.45475
688.24        58.48095
688.66        58.64014
689.09        58.70175
689.51        58.77503
689.94        58.87407
690.36         59.0155
690.78        59.13819
691.21        59.24575
691.63        59.43993
692.06        59.67064
692.48        59.71811
692.90        59.61198
693.33        59.58227
693.75        59.65541
694.17        59.70967
694.60        59.74905
695.02        59.87976
695.44        60.10167
695.87        60.33604
696.29        60.56917
696.71        60.90638
697.14        61.26181
697.56        61.35318
697.98        61.23357
698.41        61.29483
698.83        61.54628
699.25        61.80438
699.68        62.00262
700.10        62.16931
700.52        62.27607
700.94        62.32434
701.37        62.32446
701.79        62.32633
702.21        62.33078
702.64        62.34509
703.06        62.36997
703.48        62.42182
703.90        62.51314
704.33        62.64474
704.75        62.81324
705.17        62.98837
705.59        63.15479
706.01        63.28186
706.44        63.39857
706.86        63.64836
707.28        63.84692
707.70        64.18056
708.12        64.50565
708.55        64.51655
708.97        64.26558
709.39        64.17135
709.81        64.28384
710.23        64.34775
710.66        64.37254
711.08        64.56396
711.50        64.84629
711.92        65.01537
712.34        65.04684
712.76        64.99899
713.19        64.93468
713.61        65.00397
714.03        65.21594
714.45        65.51273
714.87        65.82345
715.29        66.04869
715.71        66.16338
716.13        66.20203
716.56        66.17548
716.98        66.19128
717.40        66.25785
717.82        66.30148
718.24        66.33744
718.66         66.5233
719.08        66.79512
719.50        66.85281
719.92         66.7354
720.34        66.76375
720.76        66.95551
721.19        67.12093
721.61        67.23231
722.03          67.299
722.45        67.30967
722.87        67.26105
723.29        67.20065
723.71        67.20444
724.13        67.29357
724.55        67.45616
724.97        67.64162
725.39        67.76282
725.81        67.79992
726.23        67.77671
726.65        67.75724
727.07         67.8438
727.49        68.05467
727.91        68.35265
728.33        68.65563
728.75        68.82921
729.17         68.8388
729.59        68.72465
730.01        68.55359
730.43        68.47163
730.85        68.52283
731.27        68.59975
731.69        68.64926
732.10        68.95423
732.52        68.89869
732.94        69.00903
733.36          69.128
733.78        69.19623
734.20        69.19479
734.62        69.61674
735.04        69.31229
735.46        69.71854
735.88        69.86679
736.30        69.70287
736.72        69.18659
737.13        69.15311
737.55        69.56273
737.97        69.72771
738.39        69.62675
738.81        69.62736
739.23        69.76471
739.65        69.98548
740.06        70.18603
740.48        70.25687
740.90        70.15503
741.32         70.0435
741.74         69.8822
742.16        69.83471
742.57        69.90923
742.99        70.08157
743.41        70.29919
743.83        70.45425
744.25        70.52213
744.67        70.52858
745.08        70.53992
745.50        70.62445
745.92        70.80785
746.34        71.04995
746.75        71.28425
747.17        71.40347
747.59        71.38652
748.01        71.27807
748.42        71.13521
748.84        71.03382
749.26        71.01372
749.68        71.06365
750.09        71.14837
750.51        71.24829
750.93        71.31747
751.35        71.29082
751.76        71.19908
752.18        71.15144
752.60        71.15753
753.01        71.17506
753.43        71.22796
753.85        71.25646
754.27        71.22947
754.68        71.59104
755.10         71.9929
755.52        71.57976
755.93        71.85229
756.35        71.93085
756.77        72.20686
757.18        72.42644
757.60         72.6487
758.02        72.62513
758.43        72.24747
758.85        73.14405
759.26        72.85335
759.68        72.24158
760.10        72.48437
760.51         71.7542
760.93        72.83132
761.34        72.23453
761.76         72.7393
762.18         72.6568
762.59        72.66998
763.01        72.71619
763.42        72.85908
763.84        72.94269
764.26        72.97647
764.67        73.18169
765.09        73.49946
765.50        73.48128
765.92        73.19995
766.33        73.11655
766.75        73.19197
767.16        73.12431
767.58        72.73978
768.00         72.9762
768.41        73.65997
768.83        73.90648
769.24        73.67554
769.66        73.49023
770.07        73.41157
770.49        73.40392
770.90        73.48124
771.32        73.54634
771.73        73.59031
772.15        73.65747
772.56        73.75223
772.97        73.80993
773.39        73.91104
773.80        73.83201
774.22         73.6505
774.63        73.71255
775.05        73.97469
775.46        74.14619
775.88        74.17109
776.29        74.27949
776.70        74.43745
777.12        74.50116
777.53        74.48315
777.95         74.4036
778.36        74.33544
778.77        74.37689
779.19        74.55176
779.60        74.83269
780.02        75.13497
780.43        75.37659
780.84        75.50361
781.26        75.46696
781.67        75.39521
782.09        75.48371
782.50        75.54504
782.91        76.00257
783.33        74.94864
783.74        74.77737
784.15        74.95607
784.57        75.03275
784.98         74.9959
785.39        75.20425
785.81         75.5806
786.22        75.69072
786.63        75.56138
787.04        75.57777
787.46        75.76917
787.87        75.91359
788.28        75.98071
788.70        76.03724
789.11        76.06767
789.52        75.98913
789.93        75.88692
790.35        76.07208
790.76        76.48972
791.17        76.63725
791.58         76.4984
792.00        76.41969
792.41        76.42926
792.82        76.36901
793.23        76.23581
793.65        76.07216
794.06        76.05535
794.47        76.36314
794.88        76.73426
795.29        77.77798
795.71        77.12145
796.12         77.0167
796.53        76.87691
796.94         76.7711
797.35        76.74488
797.76        76.87164
798.18        77.12562
798.59        77.30545
799.00        77.38838
799.41        77.44476
799.82        77.47165
800.23        77.45548
800.64        77.40356
801.06        77.28953
801.47        77.19054
801.88        77.15791
802.29        77.20757
802.70        77.32706
803.11        77.47072
803.52        77.55614
803.93        77.56805
804.34        77.53032
804.75        77.48828
805.17         77.5428
805.58        77.74917
805.99        77.93965
806.40        78.08616
806.81        78.39888
807.22        78.71852
807.63        78.50215
808.04        77.88669
808.45        77.62328
808.86         77.8058
809.27        78.03134
809.68        78.21075
810.09        78.36021
810.50        78.44012
810.91        78.45498
811.32        78.43283
811.73        78.43342
812.14        78.47641
812.55        78.49049
812.96        78.48617
813.37        78.60249
813.78        78.78256
814.19        78.76298
814.60        78.56799
815.01         78.4582
815.42        78.45142
815.83        78.39838
816.24        78.31213
816.65        78.29836
817.05        78.37499
817.46        78.47813
817.87        78.60473
818.28        78.69646
818.69        78.73669
819.10        78.73489
819.51        78.72401
819.92        78.76005
820.33        78.85722
820.74        79.00024
821.14        79.12878
821.55        79.18711
821.96        79.14633
822.37        79.02695
822.78        78.90569
823.19        78.91526
823.60        79.09103
824.00        79.41887
824.41        79.74622
824.82        79.92037
825.23        79.89787
825.64        79.72441
826.04        79.53535
826.45        79.51444
826.86        79.71735
827.27        80.07693
827.68        80.46231
828.08        80.68815
828.49         80.6315
828.90        80.40583
829.31        80.11391
829.72         79.9281
830.12        79.93032
830.53        80.01032
830.94         80.1583
831.35        80.32156
831.75        80.49087
832.16        80.63724
832.57        80.72934
832.97        80.67018
833.38        80.44605
833.79        80.10217
834.20        79.74897
834.60        79.54808
835.01        79.54932
835.42        79.70196
835.82        79.96018
836.23        80.14828
836.64        80.24075
837.04        80.30067
837.45         80.3043
837.86        80.31952
838.26        80.37647
838.67        80.42896
839.08        80.49339
839.48        80.58653
839.89        80.70341
840.29        80.84109
840.70        80.97791
841.11        81.07939
841.51        81.15545
841.92        81.17779
842.33        81.17043
842.73        81.16784
843.14        81.13508
843.54        81.10445
843.95        81.08044
844.35        81.09409
844.76        81.13771
845.17        81.19995
845.57         81.2872
845.98         81.3649
846.38        81.44329
846.79         81.4982
847.19        81.51015
847.60        81.38878
848.00        81.15711
848.41        80.81714
848.81        80.48445
849.22        80.26649
849.62        80.23727
850.03        80.34207
850.43        80.54424
850.84        80.69003
851.24        80.79259
851.65         80.8256
852.05        80.89487
852.46        81.04845
852.86        81.28785
853.27        81.58768
853.67        81.80408
854.07        81.95272
854.48        81.98193
854.88        81.94059
855.29        81.76535
855.69        81.57502
856.10        81.30325
856.50        81.03086
856.90        80.72662
857.31        80.37119
857.71        80.02637
858.12        79.66587
858.52        79.38519
858.92        79.19613
859.33        79.08627
859.73        79.08492
860.13        79.14308
860.54        79.19869
860.94        79.26441
861.34        79.31209
861.75        79.30779
862.15        79.26769
862.55        79.17495
862.96        79.04842
863.36        78.91008
863.76        78.78359
864.17        78.67679
864.57        78.59297
864.97        78.57623
865.38         78.6753
865.78         78.9286
866.18        79.28631
866.58        79.60081
866.99        79.62609
867.39        79.34568
867.79        78.81838
868.19        78.21605
868.60        77.75057
869.00        77.47308
869.40        77.35435
869.80        77.36469
870.21         77.4485
870.61        77.63959
871.01        77.88354
871.41        78.11925
871.81        78.25677
872.22        78.25202
872.62        78.14864
873.02        77.99957
873.42        77.91272
873.82        77.92916
874.22        78.02545
874.63        78.18438
875.03        78.34449
875.43        78.49194
875.83        78.62167
876.23        78.73751
876.63        78.84184
877.03        78.92677
877.44        78.98848
877.84        78.97479
878.24        78.77059
878.64        78.38856
879.04        77.89391
879.44        77.46201
879.84        77.33328
880.24        77.53829
880.64        77.99983
881.04        78.55238
881.44        78.90356
881.84        78.95103
882.24        78.75684
882.65        78.40692
883.05        78.16637
883.45        78.07723
883.85        78.09654
884.25        78.14335
884.65         78.0985
885.05        77.93755
885.45        77.68836
885.85        77.47857
886.25        77.51926
886.65         77.8293
887.05        78.31841
887.45        78.74326
887.85        78.73489
888.25        78.23611
888.65        77.38906
889.04        76.44002
889.44        75.84423
889.84        75.72128
890.24        75.92883
890.64        76.34711
891.04        76.77663
891.44        77.12667
891.84        77.46796
892.24        77.71477
892.64        77.72805
893.04        77.50557
893.44        77.06547
893.83        76.64153
894.23        76.55802
894.63         76.9104
895.03        77.60896
895.43         78.3859
895.83        78.79269
896.23        78.71909
896.63        78.29308
897.02        77.77802
897.42        77.61275
897.82        77.87411
898.22        78.45029
898.62        79.07549
899.01        79.32387
899.41        79.07218
899.81        78.46711
900.21        77.83283
900.61        77.69705
901.00        78.16232
901.40        79.05453
901.80        80.00845
902.20         80.4662
902.59         80.3059
902.99        79.70991
903.39          78.951
903.79        78.46324
904.18        78.37965
904.58        78.55632
904.98        78.88582
905.38        79.23058
905.77        79.51256
906.17        79.78647
906.57        79.98972
906.96        80.01896
907.36        79.84003
907.76          79.514
908.15        79.13008
908.55        78.78178
908.95        78.55314
909.34        78.38171
909.74        78.38265
910.14        78.66384
910.53        79.21058
910.93        79.97127
911.33        80.66033
911.72        80.79295
912.12        80.28224
912.52        79.32581
912.91        78.29385
913.31        77.75147
913.70        77.80524
914.10        78.28589
914.49         78.9911
914.89        79.46794
915.29         79.5728
915.68        79.42467
916.08        79.15509
916.47        78.96387
916.87        78.93845
917.26        78.99517
917.66          79.071
918.05        79.05032
918.45         78.8987
918.84        78.67361
919.24         78.4725
919.64        78.52637
920.03        78.88314
920.42        79.46784
920.82         80.0438
921.21        80.23148
921.61        79.95004
922.00         79.3279
922.40        78.67854
922.79        78.63937
923.19        79.30663
923.58         80.4877
923.98        81.72965
924.37        82.41729
924.77        82.37922
925.16        81.77347
925.55        80.89648
925.95        80.26333
926.34        80.05716
926.74         80.1325
927.13        80.29953
927.52        80.15366
927.92        79.64636
928.31        78.92986
928.70        78.29343
929.10        78.13939
929.49        78.54632
929.89        79.33376
930.28         80.2746
930.67        80.84546
931.07        80.86604
931.46        80.51102
931.85         79.9612
932.24        79.54798
932.64         79.3778
933.03        79.34892
933.42        79.41575
933.82        79.50191
934.21        79.58498
934.60         79.7262
934.99         79.9016
935.39        80.02825
935.78        80.11941
936.17        80.13582
936.56        80.15439
936.96         80.3118
937.35        80.66244
937.74        81.12824
938.13        81.51449
938.53          81.537
938.92        81.16476
939.31        80.48225
939.70        79.75114
940.09         79.4341
940.49        79.62638
940.88        80.20937
941.27        80.89229
941.66        81.23445
942.05        81.12945
942.44        80.72787
942.84         80.2131
943.23         79.8324
943.62        79.70188
944.01        79.72754
944.40        79.86471
944.79        80.04224
945.18        80.20689
945.57        80.37741
945.97        80.48111
946.36        80.46925
946.75        80.30209
947.14        79.98539
947.53        79.57825
947.92         79.1992
948.31        78.91334
948.70         78.7393
949.09        78.64071
949.48        78.54425
949.87          78.438
950.26        78.32987
950.65        78.33224
951.04        78.62233
951.43        79.20348
951.82        79.99651
952.21        80.73313
952.60        80.96842
952.99        80.58824
953.38        79.72079
953.77        78.68049
954.16         77.9474
954.55        77.65343
954.94        77.70042
955.33        77.86448
955.72        77.76215
956.11         77.2984
956.50        76.59496
956.89        75.93758
957.28        75.79468
957.66        76.31687
958.05         77.3413
958.44        78.49534
958.83        79.19529
959.22        79.28102
959.61        78.85735
960.00        78.33157
960.39        78.36418
960.78        79.07634
961.16        80.29958
961.55        81.39835
961.94        81.41219
962.33        80.14668
962.72        78.00815
963.11        75.74737
963.49        74.42293
963.88        74.29752
964.27        75.10052
964.66        76.37244
965.04        77.28945
965.43        77.47019
965.82        77.18366
966.21        76.79331
966.60        76.87472
966.98        77.55429
967.37        78.55051
967.76        79.50706
968.15        79.77425
968.53        79.19296
968.92        78.06586
969.31         76.7485
969.69        75.71292
970.08         75.1377
970.47        74.90524
970.86        75.16232
971.24         76.1522
971.63        77.68571
972.02        79.55914
972.40        81.31982
972.79        82.23766
973.17        82.28085
973.56        81.59277
973.95        80.43022
974.33        79.26545
974.72        78.32415
975.11        77.50563
975.49        76.93806
975.88        76.82917
976.26        77.20853
976.65        78.07105
977.04         79.0697
977.42        79.54784
977.81        79.25646
978.19        78.27647
978.58        77.13649
978.96         76.7767
979.35        77.41306
979.74         78.8296
980.12         80.3838
980.51        80.81171
980.89        79.94544
981.28        78.03023
981.66        75.92023
982.05        75.17068
982.43         76.1895
982.82        78.42397
983.20        80.92121
983.59        82.05994
983.97        81.55947
984.35        79.87646
984.74        77.72417
985.12        76.37533
985.51        76.25163
985.89        76.92958
986.28        78.01724
986.66        79.05153
987.04        79.80687
987.43        80.40661
987.81        80.80745
988.20        80.78287
988.58         80.3763
988.96        79.64512
989.35        78.64616
989.73        77.59016
990.12        76.51418
990.50        75.34511
990.88        74.45268
991.27        74.57991
991.65         75.8474
992.03        77.95683
992.42        79.89455
992.80        80.69869
993.18        80.12835
993.56        78.29482
993.95        75.84544
994.33        74.49361
994.71        75.03036
995.10        76.72426
995.48        78.51236
995.86        79.18676
996.24         78.6237
996.63        77.10992
997.01        75.26178
997.39         74.3356
997.77        74.87491
998.15         76.4466
998.54        78.20641
998.92        79.04229
999.30        78.71659
999.68        77.57166
1000.06        76.21801
1000.45         75.7129
1000.83        76.44907
1001.21        77.97481
1001.59        79.68122
1001.97        80.72092
1002.35        80.88999
1002.73        80.46854
1003.12        79.69838
1003.50         79.0046
1003.88        78.65108
1004.26        78.41577
1004.64        78.34676
1005.02        78.51768
1005.40        78.89391
1005.78        79.57112
1006.16          80.141
1006.54        79.84573
1006.92        78.56148
1007.30        76.47353
1007.69        74.49403
1008.07        74.04558
1008.45         75.4716
1008.83        78.26917
1009.21        81.27924
1009.59         82.8554
1009.97        82.55842
1010.35        80.62161
1010.73        77.77868
1011.11         76.0116
1011.49        76.29417
1011.86        78.18652
1012.24        80.33658
1012.62        81.08067
1013.00        80.15003
1013.38        78.20457
1013.76        76.18338
1014.14        75.60081
1014.52        76.90179
1014.90        79.54774
1015.28        82.89861
1015.66        85.63965
1016.04        87.09835
1016.41        87.72856
1016.79        87.39332
1017.17        86.30471
1017.55        84.72034
1017.93        82.63489
1018.31        80.72964
1018.69        80.11804
1019.06        81.08648
1019.44        83.43414
1019.82        86.41352
1020.20        88.26211
1020.58        88.20985
1020.95        86.64213
1021.33        84.31361
1021.71        82.10883
1022.09        80.23658
1022.46        78.44009
1022.84        76.53005
1023.22        74.05316
1023.60        70.94252
1023.97        67.25131
1024.35        63.94455
1024.73        62.60916
