SpectraSmart Spectrum 2.9.0.0
--------- Device Information -----------
Spectrum Name :  反射率_0
Saving Time :  2024/04/27 22:48:33
Spectro-Module Model Name : SE2030-DUVN
Spectro-Module Serial Number : OS361AC55029948
Wavelength Start : 200
Wavelength End : 1025
Wavelength Unit : Wavelength(nm)
Spectrum Unit : Reflectance(%)
-----------Spectrum Setting ------------
Integration Time : 20ms
Average : 10
Boxcar : 0
Background removal :  enabled
linearity correction :  enabled
SC :  disabled
Intensity correction :  disabled
DWT denoise :  enabled
savitzky-golay :  disabled
FFT :  disabled
Running average :  disabled
Kalman :  disabled
High pass :  disabled
---------------BEGIN--------------------
Wavelength(nm)             Reflectance(%)
200.29               0
200.75        52.98039
201.21        62.30285
201.67        65.91808
202.13        63.34456
202.58        56.61565
203.04        47.94282
203.50        40.46154
203.96        38.73669
204.42        42.61692
204.88        49.25505
205.34        55.70492
205.80        59.89537
206.26        61.73164
206.72        61.17845
207.18        58.57777
207.64        57.01094
208.10        58.37379
208.55         61.5398
209.01        61.78318
209.47        56.48266
209.93        42.68312
210.39        6.849808
210.85       -100.8489
211.31       -229.7973
211.77       -72.48745
212.23        30.15634
212.69         66.3538
213.14          77.649
213.60        77.80363
214.06        70.12262
214.52        53.04581
214.98        37.98262
215.44        40.00002
215.90        49.42394
216.36        57.88853
216.81        62.50623
217.27        64.30618
217.73        65.36828
218.19        66.15461
218.65        66.87234
219.11        67.79102
219.57        68.66016
220.02        69.57258
220.48        71.78648
220.94        74.68004
221.40        77.38229
221.86        79.23705
222.32         79.8072
222.77          79.305
223.23        78.22233
223.69        76.75315
224.15        74.90073
224.61        72.74597
225.06        70.16892
225.52        68.07681
225.98        67.75432
226.44        69.10995
226.90        71.10225
227.36        72.86113
227.81        73.75488
228.27        73.93534
228.73        73.55331
229.19        72.61723
229.65        71.22908
230.10         69.4974
230.56         67.7476
231.02         66.1256
231.48         64.8934
231.93        64.04541
232.39         63.6972
232.85        63.78363
233.31        64.26483
233.77        65.04768
234.22        66.10253
234.68        67.15759
235.14         67.9446
235.60        68.43383
236.05        68.64288
236.51        68.84512
236.97        69.57494
237.43        70.93102
237.88        72.84153
238.34        74.50741
238.80        75.54494
239.26        75.88132
239.71        75.48522
240.17        74.28767
240.63        73.77387
241.08        75.09585
241.54        77.06196
242.00        78.27605
242.46        77.83389
242.91        75.52975
243.37        69.90683
243.83        58.33313
244.28        44.03965
244.74        43.94688
245.20        58.29397
245.66        70.64742
246.11        74.38082
246.57         71.1644
247.03        61.14794
247.48        44.47712
247.94        33.45022
248.40        40.40191
248.85        58.00297
249.31        74.99101
249.77        82.54097
250.22        82.14785
250.68        78.33037
251.14        74.62692
251.59        73.93734
252.05        76.66196
252.51        82.15062
252.96        88.96404
253.42        91.51268
253.88        86.82218
254.33        79.45368
254.79        73.64357
255.25        70.40665
255.70        69.05119
256.16        69.08861
256.62        70.44707
257.07        73.14922
257.53        76.71286
257.99         80.0606
258.44        82.13937
258.90        82.60371
259.35          81.393
259.81        79.61374
260.27        77.58463
260.72         75.7551
261.18        74.63624
261.63        73.66822
262.09        73.05198
262.55        72.50482
263.00        71.86115
263.46        71.36507
263.91        70.80385
264.37        70.33137
264.83        69.85685
265.28         69.3163
265.74        68.81118
266.19        68.17648
266.65        67.50374
267.11        66.74689
267.56        65.93575
268.02        65.24584
268.47        64.64467
268.93        64.11689
269.38        63.55693
269.84        62.84681
270.30        61.95201
270.75        60.91455
271.21         59.8102
271.66        58.68969
272.12        57.60957
272.57        56.50554
273.03        55.43963
273.48        54.39811
273.94        53.45212
274.39        52.56637
274.85           51.75
275.31        50.87923
275.76        49.92041
276.22        48.96288
276.67        48.04058
277.13        47.35561
277.58        46.84387
278.04        46.49186
278.49        46.11006
278.95        45.58611
279.40        44.82538
279.86        43.96572
280.31        43.03928
280.77        42.25536
281.22        41.60131
281.68        41.09181
282.13         40.6331
282.59        40.18515
283.04        39.69294
283.50         39.2043
283.95        38.73288
284.41        38.36481
284.86         38.0835
285.32        37.88977
285.77        37.69418
286.22        37.42957
286.68        37.10346
287.13        36.70551
287.59        36.33385
288.04        36.04213
288.50        35.88354
288.95        35.79798
289.41         35.7625
289.86         35.6793
290.32        35.55568
290.77        35.40246
291.22        35.27217
291.68        35.23146
292.13        35.28309
292.59        35.43012
293.04         35.6342
293.50        35.87012
293.95        36.12135
294.40        36.41511
294.86        36.78561
295.31        37.27192
295.77        37.88678
296.22        38.58955
296.68        39.35262
297.13        40.10545
297.58        40.82088
298.04        41.50656
298.49        42.14553
298.95        42.75079
299.40        43.32259
299.85         43.8649
300.31        44.41676
300.76        44.99677
301.21        45.61171
301.67        46.25567
302.12        46.86352
302.58        47.40047
303.03        47.83184
303.48        48.19573
303.94        48.54613
304.39        48.89838
304.84        49.28548
305.30        49.70311
305.75        50.10778
306.20        50.49606
306.66        50.86898
307.11        51.18476
307.57        51.46638
308.02        51.66467
308.47        51.79207
308.93        51.86818
309.38        51.85802
309.83        51.75574
310.29        51.58616
310.74        51.34846
311.19        51.11542
311.65        50.99161
312.10        50.97663
312.55        51.04516
313.00        51.13882
313.46        51.16461
313.91        51.08681
314.36        50.93811
314.82        50.72792
315.27         50.4734
315.72        50.19053
316.18        49.87748
316.63        49.56182
317.08        49.31504
317.53        49.14699
317.99        49.04076
318.44        48.94276
318.89        48.74149
319.35         48.4193
319.80        48.02085
320.25        47.61628
320.70        47.32551
321.16        47.16885
321.61        47.10706
322.06        47.09117
322.51        47.04821
322.97        46.93743
323.42        46.79502
323.87        46.58979
324.32        46.28267
324.78        45.87534
325.23        45.39571
325.68        44.91461
326.13        44.56439
326.59        44.36429
327.04        44.30636
327.49        44.31145
327.94        44.25451
328.39         44.0921
328.85        43.84528
329.30        43.55969
329.75        43.27878
330.20        43.03038
330.66        42.78604
331.11        42.57566
331.56        42.38816
332.01         42.2226
332.46        42.08579
332.92        41.96906
333.37        41.90194
333.82        41.86492
334.27        41.84433
334.72        41.82155
335.17        41.76964
335.63        41.67148
336.08        41.56243
336.53        41.42711
336.98        41.26088
337.43        41.07587
337.88        40.87757
338.34        40.71785
338.79        40.69196
339.24        40.80673
339.69        41.02736
340.14        41.26349
340.59        41.36844
341.05        41.30177
341.50        41.10911
341.95        40.84472
342.40        40.60957
342.85        40.43769
343.30        40.29802
343.75        40.18121
344.20        40.07142
344.66        39.96631
345.11         39.8824
345.56        39.80442
346.01        39.69681
346.46        39.55862
346.91        39.39672
347.36        39.26028
347.81        39.22629
348.26         39.3035
348.72        39.46407
349.17        39.63433
349.62        39.70158
350.07        39.63347
350.52        39.45213
350.97        39.23057
351.42        39.08776
351.87        39.05202
352.32        39.09413
352.77        39.12384
353.22        39.00383
353.67        38.71299
354.13        38.30996
354.58        37.89225
355.03        37.66678
355.48        37.67206
355.93        37.84038
356.38         38.0249
356.83        37.99667
357.28        37.70922
357.73        37.24667
358.18        36.73624
358.63        36.37452
359.08        36.21208
359.53        36.17859
359.98        36.20549
360.43        36.18762
360.88        36.08815
361.33        35.94264
361.78        35.74928
362.23        35.53311
362.68        35.30923
363.13        35.00615
363.58        34.64367
364.03        34.56175
364.48        34.28247
364.93        34.18428
365.38         34.0722
365.83        33.87529
366.28        33.57445
366.73        33.20179
367.18        32.81639
367.63        32.49953
368.08        32.27709
368.53        32.12764
368.98        32.00955
369.43        31.85439
369.88        31.64392
370.33        31.39854
370.78        31.15442
371.23        30.97069
371.68        30.85549
372.13        30.77817
372.58        30.69868
373.03        30.55527
373.48        30.33476
373.93        30.07008
374.38        29.78012
374.83        29.49044
375.28        29.22044
375.72        28.95505
376.17        28.75312
376.62        28.66226
377.07        28.67732
377.52        28.76514
377.97        28.85905
378.42         28.8537
378.87        28.72455
379.32        28.51192
379.77        28.24302
380.22        27.96099
380.67        27.68871
381.11        27.41282
381.56        27.17708
382.01          27.055
382.46        27.05251
382.91        27.14833
383.36        27.25114
383.81        27.21319
384.26         27.0068
384.71        26.67968
385.15        26.31132
385.60        26.06574
386.05        25.97047
386.50        25.97571
386.95        26.03098
387.40        26.05744
387.85        26.02931
388.29        25.96057
388.74        25.88504
389.19         25.7877
389.64        25.67001
390.09        25.51819
390.54        25.36272
390.98        25.25465
391.43        25.21747
391.88        25.23837
392.33        25.25041
392.78        25.19687
393.23        25.08048
393.67        24.81158
394.12        24.49857
394.57        24.58566
395.02         24.6495
395.47        24.60907
395.91        24.36121
396.36        24.23007
396.81        24.23002
397.26        24.18596
397.71        24.08846
398.15         24.0109
398.60        23.97869
399.05        23.87591
399.50        23.74742
399.95        23.80982
400.39        23.98866
400.84        23.92089
401.29        23.61884
401.74        23.34129
402.18         23.1697
402.63          23.142
403.08        23.22161
403.53        23.21547
403.97        23.10956
404.42        23.04795
404.87        23.03746
405.32        23.04076
405.76        23.05203
406.21        23.01982
406.66        22.95761
407.11        22.99923
407.55        23.08342
408.00        22.96645
408.45        22.67212
408.90        22.32358
409.34           22.05
409.79        22.12141
410.24        22.44818
410.68        22.59353
411.13        22.51252
411.58        22.46035
412.03         22.4736
412.47        22.49503
412.92        22.52021
413.37        22.56376
413.81        22.59228
414.26        22.57568
414.71        22.50396
415.15        22.39427
415.60         22.2656
416.05        22.16656
416.49        22.11535
416.94        22.09197
417.39         22.0879
417.83        22.08983
418.28        22.08233
418.73        22.06256
419.17          22.021
419.62        21.94568
420.07        21.84706
420.51        21.73983
420.96        21.62968
421.41        21.55059
421.85        21.50437
422.30        21.38456
422.74        21.24753
423.19        21.44635
423.64        21.87847
424.08        21.97286
424.53        21.68166
424.98        21.54875
425.42         21.6116
425.87        21.42924
426.31        21.09507
426.76        21.20923
427.21        21.65625
427.65        21.66693
428.10        21.29221
428.54        21.17263
428.99        21.32551
429.44        21.55681
429.88        21.71698
430.33        21.43426
430.77        20.88013
431.22        20.72963
431.66        20.99204
432.11        21.26163
432.56        21.45157
433.00        21.53091
433.45        21.32432
433.89        20.97489
434.34        20.82278
434.78        19.82462
435.23        20.51732
435.67        21.15545
436.12        21.47318
436.57        21.54084
437.01        21.22384
437.46        21.05616
437.90        21.16335
438.35        21.38911
438.79        21.04675
439.24        20.96998
439.68        20.97806
440.13        21.01139
440.57        21.02858
441.02        21.14632
441.46        21.29694
441.91        21.03725
442.35         20.5504
442.80        20.71064
443.24        21.35377
443.69        21.36509
444.13        20.78772
444.58        20.58734
445.02        20.77164
445.47        20.83588
445.91          20.752
446.36        20.73971
446.80        20.79107
447.24        20.83126
447.69         20.8601
448.13        20.92939
448.58        21.00874
449.02        20.98544
449.47        20.88503
449.91        20.84114
450.36        20.86777
450.80        20.88483
451.25        20.88599
451.69        20.89209
452.13        20.89329
452.58        20.86646
453.02         20.8116
453.47        20.74058
453.91        20.65567
454.36        20.58743
454.80        20.51435
455.24        20.37927
455.69        20.23193
456.13        20.11033
456.58        20.05189
457.02        20.18538
457.46        20.39032
457.91        20.30511
458.35        20.05264
458.79        19.94708
459.24        20.02638
459.68        20.08997
460.13        20.12292
460.57         20.0735
461.01         20.0256
461.46         20.0083
461.90        19.93503
462.34        19.89081
462.79        20.18703
463.23        20.26744
463.68        20.22439
464.12        20.15857
464.56        20.09708
465.01        20.10135
465.45        20.10061
465.89        19.97856
466.34        19.80674
466.78        19.68211
467.22        19.60589
467.67        19.99328
468.11        19.94568
468.55        19.96572
468.99         19.8218
469.44        19.76957
469.88        19.81473
470.32        19.80133
470.77        19.75045
471.21        19.76147
471.65        19.84216
472.10        19.96636
472.54        20.07865
472.98        20.12368
473.42        20.09599
473.87         19.9612
474.31         19.7852
474.75        19.85198
475.20        20.10693
475.64        20.14758
476.08         19.9719
476.52         19.9606
476.97        20.13284
477.41        20.09097
477.85        20.02003
478.29        20.17786
478.74         20.0545
479.18        19.88785
479.62        20.19272
480.06        20.24463
480.50         20.2582
480.95        20.22574
481.39        20.13736
481.83        20.41041
482.27        20.43243
482.72        20.36477
483.16         20.6458
483.60        20.69157
484.04        20.67627
484.48        20.66309
484.93        20.80631
485.37        20.68852
485.81        21.24454
486.25        21.34383
486.69        21.24742
487.14        20.77861
487.58        21.66589
488.02        21.57631
488.46        21.61361
488.90        21.85495
489.34        21.43421
489.79        21.13131
490.23        21.54497
490.67        21.78516
491.11        22.02386
491.55        22.07635
491.99        21.99802
492.43        22.07194
492.88        22.30348
493.32        22.48215
493.76        22.58478
494.20        22.73975
494.64        22.96153
495.08        23.13685
495.52        23.26688
495.96         23.5584
496.41        23.96492
496.85        23.90292
497.29        23.52205
497.73        23.63307
498.17        24.16022
498.61         24.4459
499.05        24.39806
499.49        24.33845
499.93        24.34388
500.37        24.41337
500.82          24.532
501.26        24.69364
501.70        24.90394
502.14        24.65991
502.58         24.8695
503.02         24.9196
503.46        24.97454
503.90        25.05205
504.34        25.12164
504.78        25.21462
505.22        25.31289
505.66        25.36553
506.10        25.38664
506.54        25.46716
506.98        25.61826
507.42        25.69071
507.86        25.86031
508.30         25.9273
508.74        25.94486
509.18        25.91853
509.62          25.887
510.06        25.90862
510.50        25.99417
510.94        26.12697
511.38        26.26751
511.82        26.35251
512.26        26.36688
512.70        26.33311
513.14        26.28514
513.58        26.26714
514.02         26.2926
514.46        26.36379
514.90         26.4663
515.34        26.48377
515.78        26.55816
516.22        26.57562
516.66        26.58939
517.10        26.60601
517.54        26.62964
517.98        26.65412
518.42        26.67025
518.86         26.6701
519.30         26.6513
519.74        26.61594
520.18        26.57722
520.62        26.55392
521.06        26.55034
521.50        26.56459
521.93        26.57752
522.37         26.5487
522.81        26.47551
523.25        26.36685
523.69        26.25831
524.13        26.20602
524.57        26.21745
525.01        26.27212
525.45        26.32275
525.89        26.29445
526.32        26.16933
526.76        25.98328
527.20        25.77814
527.64        25.62461
528.08        25.54254
528.52        25.50646
528.96        25.49879
529.40        25.49136
529.83        25.47012
530.27        25.44984
530.71        25.41397
531.15        25.33628
531.59        25.21747
532.03        25.06393
532.46         24.9129
532.90        24.83977
533.34         24.8541
533.78        24.93458
534.22        25.03314
534.66        25.07512
535.09        25.04059
535.53        24.95657
535.97        24.85643
536.41        24.79807
536.85        24.79693
537.28        24.83544
537.72        24.88655
538.16        24.90458
538.60        24.88079
539.04        24.83889
539.47        24.79818
539.91        24.79998
540.35        24.84724
540.79        24.93284
541.22        25.03466
541.66        25.11966
542.10         25.1795
542.54        25.22657
542.97         25.2784
543.41        25.37661
543.85        25.52333
544.29         25.7038
544.72        25.89215
545.16        26.06762
545.60        26.21411
546.04        26.33833
546.47         26.4502
546.91        26.56201
547.35        26.67571
547.79        26.79889
548.22        26.92034
548.66        27.01498
549.10        27.10037
549.53          27.282
549.97        27.54227
550.41        27.75487
550.84        27.90707
551.28        28.06787
551.72        28.24409
552.15        28.41416
552.59        28.58449
553.03         28.7467
553.46        28.89635
553.90        29.05161
554.34        29.20746
554.77        29.37059
555.21        29.51972
555.65        29.62046
556.08        29.64112
556.52         29.6661
556.96        29.70683
557.39        29.81017
557.83         29.9812
558.27        30.06234
558.70        30.07022
559.14        30.13177
559.57        30.24227
560.01        30.36667
560.45        30.47244
560.88         30.4929
561.32        30.48683
561.75        30.54669
562.19        30.68295
562.63         30.8797
563.06        31.06709
563.50        31.04456
563.93        30.86521
564.37        30.85935
564.80        31.03692
565.24        31.23281
565.68        31.41184
566.11        31.58271
566.55        31.73801
566.98        31.88882
567.42        32.02651
567.85        32.06348
568.29        32.05439
568.72        32.07246
569.16        32.15043
569.60        32.30323
570.03        32.54518
570.47        32.60335
570.90        32.87699
571.34        33.25804
571.77        33.44839
572.21        33.54385
572.64        33.91154
573.08        33.78814
573.51         34.0829
573.95        34.15941
574.38        34.20762
574.82        34.15595
575.25        34.10962
575.69        33.98516
576.12        34.10379
576.56        34.33653
576.99        34.53991
577.42        34.48358
577.86        34.48129
578.29         34.5807
578.73        34.17054
579.16        34.20251
579.60        34.35462
580.03        34.35217
580.47        34.13629
580.90        33.92623
581.33        33.90729
581.77        33.87824
582.20        33.72141
582.64        33.46943
583.07         33.5207
583.51           33.26
583.94        32.90425
584.37        33.02837
584.81         32.9883
585.24        32.88034
585.68        32.56882
586.11         32.4557
586.54         32.4193
586.98        32.16008
587.41        32.38366
587.85        32.05098
588.28        32.16433
588.71        32.14158
589.15        32.18533
589.58        32.09861
590.01        32.14506
590.45        32.20353
590.88        31.57397
591.31        31.51029
591.75         31.7393
592.18         31.8287
592.61        31.82088
593.05        31.82356
593.48        32.29196
593.91         31.9492
594.35        31.99563
594.78        32.24689
595.21        32.42334
595.65        32.45996
596.08        32.21364
596.51        32.67357
596.94        32.72287
597.38        33.08693
597.81        33.46406
598.24        33.36496
598.68        33.88961
599.11        34.27988
599.54        34.51248
599.97        34.80132
600.41        35.28833
600.84        35.62188
601.27        35.83307
601.70        36.21213
602.14        36.41452
602.57        36.83049
603.00        37.20932
603.43        37.71608
603.87        38.43978
604.30        38.68847
604.73        39.06605
605.16        39.48052
605.60        40.00441
606.03         40.5585
606.46        41.02961
606.89        41.44294
607.32         41.7257
607.76        42.38193
608.19         42.5113
608.62        42.89544
609.05        43.23301
609.48        43.51674
609.92         43.7349
610.35        44.10612
610.78        44.80723
611.21        44.65809
611.64        45.12111
612.07        45.23269
612.50        45.41758
612.94        45.64015
613.37        45.95985
613.80        45.95971
614.23        46.42618
614.66        46.64645
615.09        46.85234
615.52        47.18941
615.96        47.65186
616.39         47.7588
616.82        47.96356
617.25        48.31391
617.68        48.34876
618.11        48.52745
618.54        48.71926
618.97        49.01714
619.40        49.31796
619.84        49.75974
620.27        49.78977
620.70        49.76601
621.13        49.53591
621.56        50.02745
621.99        50.02243
622.42        49.96114
622.85        50.00093
623.28        50.10602
623.71        50.33062
624.14        49.96956
624.57        50.26647
625.00         50.0666
625.43        50.01987
625.86        49.87906
626.29        49.70814
626.72        49.78551
627.15        49.61733
627.58        49.32607
628.01        49.56397
628.44        49.13764
628.87        48.64629
629.30        48.82421
629.73        48.46056
630.16        48.07233
630.59        47.90909
631.02        47.57562
631.45        47.24315
631.88        46.90248
632.31        46.58202
632.74         46.0219
633.17        45.68334
633.60        45.22391
634.03        44.78451
634.46        44.35252
634.89         43.9305
635.32        43.50651
635.75        43.07629
636.18        42.66974
636.61        42.28711
637.04        41.87766
637.47        41.46268
637.89        41.15504
638.32        40.90738
638.75        40.58003
639.18         40.1653
639.61         39.7418
640.04        39.33947
640.47        38.98378
640.90         38.6911
641.33        38.44315
641.76        38.22335
642.18        38.09735
642.61        37.90762
643.04        37.77876
643.47        37.68044
643.90        37.63602
644.33        37.64576
644.76        37.70082
645.18        37.78012
645.61        37.84488
646.04        37.89046
646.47        37.92965
646.90         37.9941
647.33        38.13671
647.75        38.37823
648.18        38.70073
648.61         39.0729
649.04        39.49585
649.47        39.94379
649.89        40.27902
650.32        40.56406
650.75        41.13134
651.18        41.91457
651.61        42.46507
652.03        42.74351
652.46         43.0705
652.89        43.58266
653.32        43.98707
653.74        44.51529
654.17        45.50758
654.60        46.00782
655.03        46.14185
655.46        47.12962
655.88        48.12829
656.31        49.06626
656.74        50.64637
657.16        50.69235
657.59        50.91171
658.02        50.11467
658.45        51.10657
658.87        51.89301
659.30        51.69202
659.73        51.78551
660.15        51.92115
660.58        52.10654
661.01        52.65423
661.44         53.2995
661.86        53.63454
662.29        53.65378
662.72        53.78516
663.14        54.08731
663.57        54.36349
664.00        54.59148
664.42        54.75925
664.85        54.87583
665.27         55.0053
665.70        55.14141
666.13        55.23078
666.55        55.27816
666.98        55.30386
667.41        55.35636
667.83        55.49413
668.26        55.72032
668.69        56.04036
669.11        56.37957
669.54        56.56145
669.96        56.68011
670.39        56.60455
670.82        56.47928
671.24        56.63062
671.67         57.0174
672.09         57.2358
672.52        57.26331
672.94        57.30404
673.37        57.37408
673.80          57.395
674.22        57.39435
674.65          57.378
675.07        57.37291
675.50        57.45819
675.92        57.51456
676.35        57.61462
676.77        57.72175
677.20        57.84917
677.62        57.99585
678.05        58.14318
678.47        58.28346
678.90        58.41872
679.32        58.54436
679.75        58.66907
680.17        58.79397
680.60        58.92561
681.02        59.03511
681.45        59.08818
681.87        59.09887
682.30        58.98494
682.72        58.83979
683.15        59.02282
683.57        59.46571
684.00        59.59273
684.42        59.43253
684.85        59.50487
685.27        59.81326
685.70        60.04363
686.12        60.15078
686.54         60.2649
686.97        60.37028
687.39        60.30745
687.82        60.34589
688.24         60.2403
688.66        60.36589
689.09        60.44946
689.51        60.56284
689.94        60.63174
690.36        60.65352
690.78        60.65452
691.21        60.64952
691.63        60.65466
692.06        60.67954
692.48        60.71234
692.90         60.7739
693.33         60.8646
693.75        60.98071
694.17        61.19453
694.60        61.43657
695.02        61.45053
695.44        61.29515
695.87         61.3545
696.29        61.61103
696.71        61.79018
697.14        61.81406
697.56        61.68156
697.98        61.46482
698.41        61.41411
698.83        61.53423
699.25        61.70082
699.68        61.85009
700.10        61.99274
700.52        62.09788
700.94        62.16427
701.37        62.19132
701.79         62.2183
702.21        62.23791
702.64        62.24807
703.06        62.26004
703.48        62.30687
703.90        62.38996
704.33        62.53333
704.75        62.71529
705.17        62.76906
705.59        62.65587
706.01        62.80827
706.44        62.54224
706.86        62.69167
707.28        62.87366
707.70        63.21332
708.12        63.55041
708.55        63.68919
708.97        63.61488
709.39        63.46046
709.81        63.31198
710.23        63.24046
710.66        63.28479
711.08        63.46337
711.50        63.68253
711.92         63.7915
712.34        63.76154
712.76        63.64597
713.19        63.50524
713.61        63.48106
714.03        63.58758
714.45        63.77321
714.87        63.99053
715.29        64.17269
715.71        64.29458
716.13        64.37997
716.56        64.40758
716.98        64.40839
717.40        64.37383
717.82        64.30809
718.24        64.25108
718.66        64.27092
719.08        64.37867
719.50        64.54802
719.92        64.74565
720.34        64.91341
720.76        65.02732
721.19         65.0961
721.61        65.11702
722.03        65.05872
722.45        64.92852
722.87        64.73754
723.29        64.55306
723.71        64.48422
724.13        64.55938
724.55        64.75733
724.97        65.00868
725.39        65.19254
725.81        65.27272
726.23        65.27448
726.65        65.25687
727.07        65.31904
727.49        65.47977
727.91         65.7001
728.33         65.9081
728.75        65.98867
729.17        65.91579
729.59        65.73428
730.01         65.5153
730.43         65.3725
730.85        65.33862
731.27        65.37329
731.69        65.44666
732.10        65.53217
732.52        65.60365
732.94        65.68752
733.36        65.75435
733.78        65.86734
734.20        65.67891
734.62        65.90833
735.04        65.46532
735.46        65.80857
735.88        66.28978
736.30        66.24866
736.72        65.71023
737.13        65.55739
737.55        65.80067
737.97        65.99142
738.39        66.04631
738.81        65.85687
739.23        65.52908
739.65        65.64558
740.06        66.08568
740.48        66.22415
740.90        66.00381
741.32        65.84608
741.74        65.75365
742.16        65.81165
742.57        66.02192
742.99        66.36835
743.41        66.72047
743.83         66.8579
744.25        66.74113
744.67        66.42803
745.08        66.08468
745.50        65.95322
745.92        66.10693
746.34        66.46243
746.75        66.86705
747.17         67.0601
747.59        66.97261
748.01        66.72204
748.42        66.42974
748.84         66.1701
749.26        66.03189
749.68        66.23795
750.09        66.67293
750.51        66.69991
750.93        66.33417
751.35         66.3939
751.76        66.92791
752.18        66.39374
752.60         66.6756
753.01        66.50864
753.43        66.47041
753.85        66.46916
754.27        66.52818
754.68        66.64395
755.10        66.77525
755.52        66.90585
755.93        67.01567
756.35        67.10096
756.77        67.17159
757.18        67.25116
757.60        67.45307
758.02        67.56458
758.43        67.48704
758.85        67.73078
759.26        68.08814
759.68        67.20215
760.10        66.78304
760.51        67.29405
760.93        67.61242
761.34        67.62484
761.76        67.80372
762.18        67.67613
762.59        67.61047
763.01        67.67397
763.42         67.9203
763.84        67.99646
764.26        67.92558
764.67        67.96584
765.09        68.11871
765.50         68.1753
765.92        68.13188
766.33        67.95367
766.75        67.65917
767.16        67.54946
767.58         67.6243
768.00        67.74324
768.41         67.8885
768.83        68.08752
769.24        68.27318
769.66        68.29611
770.07         68.1603
770.49        68.08674
770.90        68.09739
771.32        68.04601
771.73        67.97167
772.15        67.95448
772.56        68.01585
772.97        68.17844
773.39        68.35176
773.80        68.36208
774.22        68.24681
774.63        68.15643
775.05         68.5084
775.46        68.60343
775.88        68.53595
776.29        68.54115
776.70        68.61605
777.12        68.65457
777.53        68.66302
777.95        68.64114
778.36        68.63703
778.77        68.69724
779.19        68.82908
779.60        69.06907
780.02        69.29369
780.43        69.27965
780.84        69.03602
781.26        68.69888
781.67        68.47099
782.09        68.62933
782.50        68.94372
782.91        69.55177
783.33        68.69383
783.74        68.69135
784.15        69.02518
784.57        69.19779
784.98        69.18874
785.39         69.2514
785.81        69.39668
786.22        69.53844
786.63        69.63918
787.04         69.6704
787.46         69.6423
787.87        69.56572
788.28        69.47398
788.70        69.43893
789.11        69.46427
789.52        69.44151
789.93        69.39441
790.35         69.5955
790.76        69.94895
791.17        69.85261
791.58        69.40045
792.00        69.26906
792.41        69.52486
792.82         69.7656
793.23        69.94448
793.65        70.15566
794.06        70.36989
794.47        70.55486
794.88        70.68147
795.29        70.52092
795.71        70.51296
796.12        70.23368
796.53          69.895
796.94        69.88288
797.35        70.15312
797.76        70.15231
798.18         69.9097
798.59        69.91367
799.00        70.17757
799.41        70.40517
799.82        70.53191
800.23        70.60818
800.64        70.61482
801.06        70.50931
801.47        70.37009
801.88        70.26027
802.29        70.20393
802.70        70.18819
803.11        70.19153
803.52        70.16976
803.93        70.12346
804.34         70.0798
804.75        70.05598
805.17        70.11839
805.58        70.31348
805.99        70.42594
806.40        70.47142
806.81        70.88754
807.22        71.44997
807.63        71.25047
808.04         70.4547
808.45        70.17244
808.86        70.51778
809.27        70.87402
809.68        71.10849
810.09        71.26183
810.50        71.28257
810.91         71.1741
811.32        70.99752
811.73        70.86668
812.14        70.82185
812.55        70.78736
812.96        70.77722
813.37        70.91629
813.78        71.14646
814.19        71.23431
814.60        71.16575
815.01        71.12021
815.42        71.10529
815.83        70.99435
816.24        70.84227
816.65        70.83138
817.05        70.99484
817.46        71.23475
817.87        71.49498
818.28        71.64288
818.69        71.64189
819.10        71.53173
819.51        71.35179
819.92        71.17371
820.33        71.04115
820.74         70.9472
821.14        70.88954
821.55        70.89701
821.96        70.95225
822.37        71.05356
822.78        71.20592
823.19        71.40676
823.60        71.63725
824.00        71.90123
824.41        72.09448
824.82        72.14585
825.23        72.04517
825.64        71.82323
826.04        71.58495
826.45        71.48303
826.86        71.57004
827.27        71.76516
827.68        72.00339
828.08        72.28371
828.49         72.4602
828.90        72.41016
829.31        72.18096
829.72        72.03215
830.12        72.02583
830.53         71.9785
830.94         71.9101
831.35        71.88183
831.75        71.91509
832.16        71.95884
832.57        72.00954
832.97        72.01669
833.38         71.9641
833.79         71.8782
834.20        71.79088
834.60        71.74583
835.01        71.76557
835.42        71.82473
835.82        71.93462
836.23        72.03581
836.64        72.13605
837.04        72.26878
837.45         72.3645
837.86        72.40785
838.26         72.4078
838.67         72.3518
839.08        72.30515
839.48        72.36023
839.89        72.53278
840.29        72.79182
840.70        73.06693
841.11        73.24741
841.51        73.32287
841.92        73.28937
842.33        73.20684
842.73        73.17325
843.14        73.16728
843.54        73.18267
843.95        73.19838
844.35        73.20049
844.76        73.17279
845.17        73.13755
845.57        73.08261
845.98        72.94427
846.38        72.74506
846.79        72.47844
847.19        72.23512
847.60         72.1134
848.00        72.15898
848.41        72.31283
848.81        72.51746
849.22        72.60128
849.62        72.55479
850.03        72.39221
850.43        72.20705
850.84        72.06868
851.24        72.05243
851.65        72.08389
852.05        72.18301
852.46        72.27115
852.86        72.31879
853.27        72.36675
853.67        72.36292
854.07        72.39738
854.48        72.43578
854.88        72.49525
855.29        72.46178
855.69        72.33224
856.10        72.01852
856.50        71.62344
856.90        71.20554
857.31        70.88419
857.71         70.7448
858.12        70.71189
858.52        70.77937
858.92        70.80351
859.33        70.73089
859.73        70.62891
860.13        70.51501
860.54        70.44694
860.94        70.47103
861.34         70.5183
861.75        70.52985
862.15        70.48547
862.55        70.35049
862.96        70.17078
863.36        69.93991
863.76        69.63354
864.17        69.26812
864.57        68.87239
864.97        68.56976
865.38        68.53404
865.78         68.8335
866.18        69.39482
866.58        70.01294
866.99        70.32724
867.39        70.25784
867.79        69.87091
868.19        69.36848
868.60        69.02749
869.00        68.91074
869.40        68.96693
869.80        69.09526
870.21        69.11914
870.61        69.05751
871.01        68.93014
871.41         68.8104
871.81        68.78544
872.22        68.85325
872.62        69.00691
873.02        69.21317
873.42        69.40668
873.82        69.55139
874.22        69.65813
874.63        69.76309
875.03        69.89745
875.43        70.07708
875.83        70.28686
876.23        70.48129
876.63        70.59163
877.03        70.59336
877.44        70.48341
877.84        70.33668
878.24        70.24889
878.64        70.23995
879.04        70.29201
879.44         70.3089
879.84         70.1433
880.24        69.78339
880.64        69.28487
881.04        68.79736
881.44        68.57593
881.84        68.68501
882.24        69.03983
882.65        69.46066
883.05        69.74145
883.45          69.769
883.85        69.62862
884.25        69.40363
884.65        69.22037
885.05        69.12138
885.45         69.0529
885.85        69.03463
886.25        69.10922
886.65        69.27141
887.05        69.52249
887.45        69.76147
887.85        69.82424
888.25         69.6824
888.65        69.37369
889.04         69.0254
889.44        68.90265
889.84        69.04256
890.24        69.36176
890.64        69.70889
891.04        69.84437
891.44        69.71361
891.84        69.40981
892.24        69.03781
892.64        68.75782
893.04        68.62822
893.44        68.60184
893.83        68.69099
894.23        68.84686
894.63        69.06994
895.03        69.36816
895.43         69.6841
895.83         69.9176
896.23        70.03864
896.63        70.05278
897.02         70.0146
897.42        70.05508
897.82        70.18732
898.22        70.39067
898.62        70.58192
899.01        70.63345
899.41        70.49741
899.81        70.21809
900.21        69.92512
900.61        69.82771
901.00        69.96272
901.40         70.2924
901.80        70.63158
902.20        70.70139
902.59        70.45354
902.99        69.95641
903.39        69.43556
903.79        69.24144
904.18        69.45615
904.58        69.98492
904.98        70.58607
905.38        70.91418
905.77        70.88529
906.17        70.58663
906.57        70.25687
906.96         70.3194
907.36        70.84325
907.76        71.71976
908.15        72.59227
908.55        72.80271
908.95        72.24617
909.34        71.10882
909.74        69.90836
910.14        69.39246
910.53        69.73347
910.93        70.67664
911.33         71.7866
911.72        72.32011
912.12        72.06686
912.52        71.32926
912.91         70.4188
913.31        69.78284
913.70        69.53715
914.10        69.51149
914.49        69.67627
914.89        69.93594
915.29        70.23824
915.68        70.61812
916.08        70.96763
916.47        71.09537
916.87        70.98547
917.26        70.65084
917.66        70.24651
918.05        70.00246
918.45        69.96955
918.84         70.1152
919.24        70.30054
919.64        70.37141
920.03        70.30247
920.42        70.14863
920.82        69.99606
921.21        69.96315
921.61        70.06257
922.00         70.2466
922.40        70.47729
922.79        70.76439
923.19        71.04476
923.58        71.36291
923.98        71.57679
924.37        71.52929
924.77        71.20238
925.16        70.62935
925.55        70.05595
925.95        69.90715
926.34        70.27172
926.74        71.00105
927.13        71.82487
927.52          72.205
927.92        72.04441
928.31        71.51011
928.70        70.85709
929.10         70.4709
929.49        70.45578
929.89        70.64204
930.28        70.98683
930.67        71.30072
931.07        71.48516
931.46        71.64068
931.85        71.67129
932.24        71.45014
932.64        70.99187
933.03        70.33743
933.42        69.70987
933.82        69.47588
934.21         69.7222
934.60        70.36197
934.99        71.16682
935.39        71.71761
935.78        71.91369
936.17         71.8361
936.56        71.65775
936.96        71.67268
937.35        72.00069
937.74        72.49213
938.13         72.9574
938.53        73.14694
938.92        73.00457
939.31          72.586
939.70        72.06424
940.09        71.73108
940.49        71.65164
940.88        71.80453
941.27        71.94822
941.66        71.70901
942.05        71.04252
942.44         70.0942
942.84        69.22301
943.23        68.94828
943.62        69.41701
944.01        70.44749
944.40        71.68385
944.79        72.48735
945.18         72.6284
945.57        72.27379
945.97        71.61961
946.36        71.05105
946.75        70.65485
947.14        70.31738
947.53        70.00901
947.92         69.6979
948.31        69.38443
948.70        69.14595
949.09        68.97191
949.48        68.80183
949.87        68.63535
950.26        68.48129
950.65        68.40188
951.04        68.51083
951.43        68.80978
951.82          69.227
952.21        69.65727
952.60        69.92651
952.99        69.96474
953.38         69.8196
953.77        69.50909
954.16        69.06372
954.55        68.52586
954.94        67.90689
955.33        67.30718
955.72        66.89421
956.11        66.71068
956.50        66.72601
956.89        66.86411
957.28        66.95615
957.66        66.98006
958.05        66.99558
958.44        67.00651
958.83          67.026
959.22        67.05773
959.61        67.01537
960.00        67.05927
960.39        67.46378
960.78        68.23289
961.16        69.33207
961.55        70.24618
961.94        70.18476
962.33        69.02894
962.72        67.11222
963.11        65.14747
963.49        64.17637
963.88        64.42456
964.27        65.58357
964.66        67.19209
965.04        68.40303
965.43        68.79773
965.82         68.6571
966.21        68.18222
966.60        67.69163
966.98        67.31336
967.37        66.88119
967.76        66.43619
968.15        66.08511
968.53        65.89241
968.92        65.92171
969.31        66.09495
969.69        66.22646
970.08        66.26605
970.47        66.24006
970.86        66.33019
971.24        66.86666
971.63        67.79772
972.02        68.97305
972.40        70.09238
972.79        70.61717
973.17         70.5636
973.56        70.01665
973.95        69.30545
974.33        68.97307
974.72        69.18461
975.11        69.77599
975.49        70.46149
975.88        70.79154
976.26        70.64001
976.65        70.14568
977.04        69.48193
977.42        68.93093
977.81        68.54875
978.19        68.19247
978.58        67.98824
978.96        68.08287
979.35        68.44063
979.74        69.09853
980.12        69.71062
980.51        69.46635
980.89        68.34389
981.28         66.4543
981.66        64.50358
982.05        63.85015
982.43        64.80991
982.82        66.90424
983.20        69.30055
983.59        70.54542
983.97        70.37421
984.35        69.16733
984.74        67.43659
985.12        66.10634
985.51        65.54365
985.89        65.48589
986.28         65.8032
986.66        66.41502
987.04        67.17261
987.43        68.08952
987.81        68.99397
988.20        69.44538
988.58        69.36889
988.96        68.86616
989.35        67.99841
989.73        66.97713
990.12        65.87387
990.50        64.60107
990.88          63.518
991.27        63.39547
991.65        64.38088
992.03        66.19444
992.42        67.97702
992.80        68.99724
993.18        69.01199
993.56        68.15727
993.95        66.76137
994.33        65.59689
994.71        65.25838
995.10        65.46758
995.48        65.90378
995.86        66.03345
996.24        65.76736
996.63        65.20856
997.01         64.7576
997.39        65.12495
997.77        66.47746
998.15        68.48457
998.54        70.31384
998.92        70.92223
999.30        70.15009
999.68        68.29759
1000.06         66.1416
1000.45        65.12322
1000.83        65.75123
1001.21        67.49178
1001.59        69.61802
1001.97        71.06611
1002.35        71.56422
1002.73        71.50078
1003.12        70.98774
1003.50        70.14838
1003.88        69.26913
1004.26        68.25085
1004.64        67.55432
1005.02        67.80914
1005.40        69.00134
1005.78        70.99866
1006.16        73.03275
1006.54         73.6497
1006.92        72.46761
1007.30        69.92339
1007.69         66.9902
1008.07        65.23448
1008.45        65.20786
1008.83         66.4085
1009.21        68.12592
1009.59        69.33829
1009.97        69.71517
1010.35        69.50208
1010.73        68.88912
1011.11        68.33521
1011.49        68.13029
1011.86         68.2179
1012.24        68.22746
1012.62        67.93505
1013.00        67.34209
1013.38        66.62263
1013.76        66.15964
1014.14         66.5437
1014.52        67.91557
1014.90        70.09167
1015.28        72.60328
1015.66        74.47005
1016.04        75.24049
1016.41        75.18481
1016.79        74.42267
1017.17        73.59125
1017.55        72.89594
1017.93        72.19892
1018.31        71.54137
1018.69        70.96021
1019.06        70.48832
1019.44         70.2207
1019.82        70.09117
1020.20         69.9272
1020.58        69.68305
1020.95        69.30877
1021.33         68.9951
1021.71        68.96716
1022.09        69.18734
1022.46        69.51044
1022.84        69.63176
1023.22        68.84326
1023.60        66.90384
1023.97        63.70754
1024.35        59.95002
1024.73        56.90085
