SpectraSmart Spectrum 2.9.0.0
--------- Device Information -----------
Spectrum Name :  反射率_0
Saving Time :  2024/04/27 23:06:45
Spectro-Module Model Name : SE2030-DUVN
Spectro-Module Serial Number : OS361AC55029948
Wavelength Start : 200
Wavelength End : 1025
Wavelength Unit : Wavelength(nm)
Spectrum Unit : Reflectance(%)
-----------Spectrum Setting ------------
Integration Time : 20ms
Average : 10
Boxcar : 0
Background removal :  enabled
linearity correction :  enabled
SC :  disabled
Intensity correction :  disabled
DWT denoise :  enabled
savitzky-golay :  disabled
FFT :  disabled
Running average :  disabled
Kalman :  disabled
High pass :  disabled
---------------BEGIN--------------------
Wavelength(nm)             Reflectance(%)
200.29               0
200.75       -49.56631
201.21        1.358809
201.67        38.36111
202.13        46.53379
202.58        36.01542
203.04        16.67217
203.50       -1.342956
203.96       -3.864993
204.42        8.622963
204.88        27.05783
205.34        44.79857
205.80        57.78785
206.26        66.69833
206.72        74.42628
207.18        80.25458
207.64         77.7085
208.10        66.94164
208.55         55.9511
209.01        46.96261
209.47        38.06196
209.93        24.79062
210.39       -4.915824
210.85       -87.60384
211.31       -169.5118
211.77       -37.41636
212.23        39.66165
212.69        64.17214
213.14         68.5795
213.60        61.92225
214.06        44.12524
214.52         12.0533
214.98       -11.88843
215.44       -2.454465
215.90        19.42994
216.36        38.15832
216.81        49.38692
217.27        55.35529
217.73        59.69881
218.19        61.69997
218.65        59.12881
219.11        51.63341
219.57        38.81001
220.02        24.12116
220.48         18.4225
220.94        24.56595
221.40        37.83609
221.86        51.49539
222.32        58.83553
222.77        59.95792
223.23        57.87949
223.69        54.54498
224.15        51.65873
224.61        49.67578
225.06        47.74218
225.52        46.82116
225.98        48.19092
226.44        51.21006
226.90        54.62603
227.36        57.29972
227.81        58.42749
228.27        58.19689
228.73        56.87453
229.19        54.58843
229.65        51.78688
230.10        48.90633
230.56        46.40084
231.02        44.38972
231.48        43.03093
231.93        42.27044
232.39        42.08607
232.85        42.68641
233.31        44.36901
233.77        46.89356
234.22        50.02291
234.68        52.70298
235.14        53.65303
235.60        52.68871
236.05        49.94014
236.51        46.55029
236.97        45.21145
237.43        46.99397
237.88        51.34519
238.34         56.0146
238.80        58.61796
239.26         58.5126
239.71        55.47332
240.17        49.62475
240.63        46.25979
241.08        50.02384
241.54        56.90781
242.00        62.13277
242.46        63.52564
242.91        61.20633
243.37        53.97989
243.83        37.50625
244.28        13.03678
244.74         3.89635
245.20        15.96472
245.66        30.23026
246.11        35.77757
246.57        33.83521
247.03          26.918
247.48        15.38944
247.94        8.769108
248.40        15.73265
248.85        28.87809
249.31        42.41638
249.77        53.04239
250.22        60.20786
250.68        65.00583
251.14         67.6244
251.59        68.10268
252.05        66.72955
252.51        62.72382
252.96        56.06511
253.42        51.06178
253.88        50.56897
254.33         53.5876
254.79        56.33252
255.25        55.56279
255.70        52.21013
256.16         48.4063
256.62        46.40527
257.07        48.51442
257.53        53.58392
257.99        59.04955
258.44        62.96655
258.90         64.1426
259.35        62.77293
259.81        60.40961
260.27        57.65982
260.72        55.22982
261.18        53.65253
261.63        52.39701
262.09        51.64283
262.55        51.26726
263.00         51.0668
263.46        51.10506
263.91        51.10374
264.37        50.99174
264.83        50.66086
265.28        50.15577
265.74        49.50944
266.19        48.55723
266.65        47.41025
267.11        46.08204
267.56        44.80095
268.02        44.02998
268.47        43.79355
268.93        43.96021
269.38        44.22852
269.84        44.14516
270.30         43.5821
270.75        42.67218
271.21        41.58046
271.66        40.52199
272.12        39.60612
272.57        38.73355
273.03        37.93623
273.48        37.18565
273.94        36.52417
274.39        35.93843
274.85        35.44523
275.31        34.96297
275.76        34.45754
276.22        33.97639
276.67        33.48609
277.13        33.05153
277.58        32.62284
278.04        32.21513
278.49        31.78273
278.95        31.37664
279.40         30.9477
279.86        30.56441
280.31        30.14093
280.77        29.67424
281.22        29.13851
281.68        28.59787
282.13        28.11951
282.59        27.84671
283.04        27.76329
283.50        27.82889
283.95        27.91263
284.41        27.85808
284.86        27.61384
285.32        27.25405
285.77         26.8525
286.22        26.55482
286.68        26.40303
287.13        26.31701
287.59        26.26135
288.04        26.10846
288.50        25.86943
288.95        25.56875
289.41        25.28331
289.86        25.07491
290.32        24.98302
290.77        24.97542
291.22        25.03118
291.68        25.11529
292.13        25.20469
292.59        25.31852
293.04        25.47036
293.50        25.70459
293.95        26.01595
294.40         26.4016
294.86        26.81306
295.31        27.16923
295.77        27.46681
296.22        27.71468
296.68        28.00023
297.13        28.43915
297.58        29.04513
298.04        29.75847
298.49        30.46179
298.95        30.99801
299.40        31.32954
299.85        31.51025
300.31        31.63826
300.76        31.83148
301.21        32.13663
301.67        32.52028
302.12        32.90858
302.58        33.23159
303.03        33.45444
303.48        33.61501
303.94         33.7834
304.39        34.01209
304.84        34.32619
305.30        34.70661
305.75         35.0615
306.20        35.29535
306.66        35.40179
307.11        35.38067
307.57        35.34154
308.02        35.39071
308.47        35.55783
308.93        35.79573
309.38        35.98301
309.83        35.96201
310.29        35.72042
310.74        35.31576
311.19        34.85881
311.65        34.52116
312.10        34.33654
312.55        34.25418
313.00        34.24255
313.46         34.2513
313.91        34.24557
314.36        34.24801
314.82        34.19649
315.27        33.98567
315.72        33.60985
316.18        33.10444
316.63        32.58359
317.08        32.25492
317.53        32.16206
317.99        32.24502
318.44        32.38599
318.89        32.37181
319.35        32.14876
319.80        31.78437
320.25        31.37701
320.70        31.09216
321.16        30.96357
321.61        30.93152
322.06        30.92355
322.51        30.83035
322.97        30.61448
323.42        30.33516
323.87         30.0004
324.32        29.62815
324.78        29.23679
325.23        28.81952
325.68        28.44149
326.13        28.21848
326.59         28.1549
327.04        28.24471
327.49         28.3501
327.94        28.24566
328.39        27.87754
328.85        27.29797
329.30        26.66407
329.75        26.24844
330.20        26.13479
330.66        26.23367
331.11        26.42322
331.56        26.45291
332.01        26.24913
332.46        25.88729
332.92        25.45694
333.37         25.1376
333.82        24.98393
334.27        24.93785
334.72        24.95051
335.17        24.94842
335.63        24.89278
336.08        24.82293
336.53        24.73215
336.98        24.61473
337.43         24.4757
337.88        24.31428
338.34        24.14188
338.79        23.98592
339.24        23.85937
339.69          23.762
340.14        23.69895
340.59        23.67547
341.05        23.68484
341.50        23.72145
341.95        23.75899
342.40        23.76501
342.85        23.72684
343.30         23.6481
343.75        23.53093
344.20        23.38232
344.66        23.21748
345.11        23.04225
345.56        22.87424
346.01        22.73734
346.46        22.63901
346.91        22.56992
347.36        22.54019
347.81        22.56011
348.26        22.62252
348.72        22.72323
349.17        22.80784
349.62        22.79003
350.07        22.65551
350.52        22.42387
350.97        22.18557
351.42         22.0876
351.87        22.15839
352.32        22.35436
352.77        22.56236
353.22        22.60936
353.67        22.45905
354.13        22.17562
354.58        21.84909
355.03         21.6738
355.48        21.69669
355.93        21.86423
356.38        22.05622
356.83        22.08669
357.28         21.9178
357.73        21.61193
358.18        21.29366
358.63        21.15467
359.08        21.22848
359.53        21.43928
359.98        21.66499
360.43        21.71722
360.88        21.55339
361.33        21.24348
361.78        20.86353
362.23        20.57163
362.68        20.42262
363.13        20.29894
363.58        20.17451
364.03        20.37643
364.48        20.29031
364.93        20.39495
365.38        20.46768
365.83        20.44675
366.28        20.31351
366.73        20.09063
367.18        19.83132
367.63        19.61206
368.08        19.46154
368.53        19.36539
368.98        19.30024
369.43         19.2235
369.88        19.12466
370.33         19.0204
370.78        18.93024
371.23        18.88423
371.68        18.88177
372.13        18.89744
372.58        18.90649
373.03        18.87262
373.48        18.78673
373.93        18.67184
374.38        18.52375
374.83        18.33429
375.28        18.11685
375.72        17.86839
376.17        17.67412
376.62        17.62683
377.07        17.73051
377.52        17.93906
377.97        18.15574
378.42        18.22714
378.87        18.12045
379.32        17.89452
379.77        17.60672
380.22        17.34642
380.67        17.14544
381.11        16.97066
381.56         16.8466
382.01         16.8126
382.46        16.86385
382.91        16.99503
383.36        17.11382
383.81        17.07156
384.26        16.84577
384.71        16.47999
385.15        16.08893
385.60        15.88714
386.05        15.91026
386.50        16.09883
386.95        16.33931
387.40        16.45154
387.85        16.39677
388.29        16.22924
388.74        16.05733
389.19        15.99594
389.64        16.06269
390.09        16.19695
390.54        16.33889
390.98         16.3961
391.43         16.3492
391.88        16.23911
392.33        16.07523
392.78         15.8937
393.23        15.72079
393.67        15.48138
394.12        15.23766
394.57        15.25267
395.02         15.2591
395.47        15.21624
395.91        15.06523
396.36        15.00763
396.81        15.04916
397.26        15.07226
397.71        15.06003
398.15        15.04653
398.60        15.04393
399.05         14.9825
399.50        14.89291
399.95        14.91499
400.39        15.00506
400.84        14.93624
401.29        14.72248
401.74        14.53509
402.18        14.42643
402.63        14.41814
403.08        14.48293
403.53        14.49213
403.97        14.43383
404.42        14.40015
404.87        14.39114
405.32        14.37741
405.76        14.35578
406.21        14.29448
406.66        14.21592
407.11        14.22405
407.55        14.28558
408.00        14.24738
408.45         14.1033
408.90        13.89362
409.34        13.69123
409.79        13.67378
410.24        13.81325
410.68        13.88569
411.13        13.87109
411.58        13.91115
412.03         13.9928
412.47         14.0193
412.92         13.9732
413.37        13.88901
413.81        13.78422
414.26        13.69442
414.71        13.62671
415.15        13.57333
415.60         13.5321
416.05        13.50363
416.49        13.48864
416.94        13.48703
417.39        13.49204
417.83        13.49301
418.28        13.48042
418.73         13.4467
419.17        13.40363
419.62        13.37514
420.07        13.37097
420.51        13.39452
420.96        13.41004
421.41        13.37828
421.85        13.29325
422.30        13.10976
422.74        12.91863
423.19        13.01569
423.64        13.35185
424.08        13.55688
424.53        13.53037
424.98        13.50199
425.42        13.46821
425.87        13.19172
426.31        12.79129
426.76        12.72777
427.21        12.95136
427.65        12.97703
428.10        12.80571
428.54         12.7662
428.99         12.8518
429.44        12.99697
429.88        13.10809
430.33        12.88478
430.77         12.4695
431.22        12.41067
431.66        12.68935
432.11        12.87968
432.56        12.90925
433.00        12.89801
433.45        12.74783
433.89        12.41857
434.34        12.17002
434.78        11.58464
435.23        12.12006
435.67        12.58073
436.12        12.78648
436.57        12.87662
437.01        12.75908
437.46        12.68336
437.90        12.72221
438.35        12.80059
438.79        12.51635
439.24         12.3878
439.68        12.31642
440.13        12.26588
440.57        12.22931
441.02        12.30477
441.46        12.45291
441.91        12.38334
442.35        12.17373
442.80        12.33018
443.24        12.73858
443.69        12.68761
444.13        12.22577
444.58        12.00968
445.02         12.0528
445.47        12.02751
445.91        11.92414
446.36        11.89675
446.80         11.9399
447.24         12.0058
447.69        12.08028
448.13        12.17465
448.58        12.26202
449.02        12.28135
449.47        12.24556
449.91        12.23464
450.36        12.25801
450.80        12.26821
451.25        12.26684
451.69        12.27808
452.13        12.29652
452.58        12.30363
453.02         12.2933
453.47        12.26218
453.91        12.20889
454.36        12.15945
454.80        12.09796
455.24        11.98651
455.69         11.8597
456.13        11.74304
456.58        11.67931
457.02        11.77439
457.46        11.96038
457.91        12.00831
458.35        11.96054
458.79        11.95914
459.24        12.01902
459.68        12.03537
460.13        12.01212
460.57         11.9365
461.01        11.86964
461.46        11.82339
461.90        11.75957
462.34        11.74835
462.79        11.97394
463.23        12.10318
463.68        12.16392
464.12         12.1775
464.56        12.14919
465.01        12.12957
465.45        12.09073
465.89        11.98943
466.34        11.87731
466.78        11.80429
467.22        11.76908
467.67        12.01704
468.11        12.00567
468.55        12.03865
468.99        11.97488
469.44        11.96511
469.88        12.01147
470.32        12.02015
470.77        12.00198
471.21        12.01425
471.65        12.06369
472.10        12.13637
472.54        12.20719
472.98         12.2537
473.42        12.27431
473.87        12.24407
474.31        12.19422
474.75        12.28886
475.20        12.48983
475.64        12.54896
476.08        12.46565
476.52        12.48064
476.97        12.60902
477.41        12.60147
477.85        12.57146
478.29        12.67803
478.74        12.60157
479.18        12.49392
479.62        12.68758
480.06        12.74014
480.50        12.78778
480.95        12.82115
481.39        12.82062
481.83        13.03576
482.27        13.07238
482.72        13.03806
483.16        13.22664
483.60        13.27455
484.04        13.28051
484.48        13.33237
484.93        13.54294
485.37         13.4742
485.81        13.66638
486.25        14.11904
486.69        13.64748
487.14        13.28514
487.58        14.31404
488.02        13.98203
488.46        14.38972
488.90        14.66569
489.34        13.92379
489.79        13.78998
490.23        14.38861
490.67        14.74539
491.11        14.90473
491.55        14.89964
491.99        14.80877
492.43        14.86612
492.88         15.0871
493.32         15.2629
493.76        15.36844
494.20        15.51937
494.64        15.72454
495.08        15.90002
495.52        16.03403
495.96         16.2492
496.41        16.53367
496.85        16.45195
497.29        16.15212
497.73        16.29482
498.17        16.81944
498.61        17.15094
499.05        17.18774
499.49        17.20039
499.93        17.23539
500.37        17.24889
500.82        17.26471
501.26        17.36153
501.70        17.55903
502.14        17.47296
502.58        17.71799
503.02        17.81752
503.46        17.87577
503.90        17.92463
504.34        17.95052
504.78        17.98669
505.22        18.02961
505.66         18.0399
506.10        18.04389
506.54        18.13327
506.98        18.31766
507.42        18.48046
507.86        18.72076
508.30        18.84928
508.74        18.89179
509.18        18.86498
509.62        18.81182
510.06        18.80127
510.50        18.85161
510.94        18.94204
511.38        19.04732
511.82        19.12739
512.26        19.16965
512.70        19.19096
513.14        19.20111
513.58        19.20529
514.02        19.20921
514.46        19.22365
514.90        19.25575
515.34        19.25113
515.78        19.32039
516.22        19.36899
516.66        19.42706
517.10        19.48526
517.54        19.53994
517.98        19.59215
518.42        19.62542
518.86        19.61858
519.30        19.56949
519.74        19.48248
520.18        19.39184
520.62        19.35068
521.06        19.36991
521.50        19.43942
521.93        19.51441
522.37        19.51189
522.81        19.41972
523.25        19.26096
523.69        19.09853
524.13        19.03146
524.57         19.0769
525.01        19.19927
525.45        19.32825
525.89        19.35343
526.32        19.24722
526.76        19.05579
527.20        18.83626
527.64        18.68207
528.08         18.6201
528.52        18.61781
528.96        18.64717
529.40         18.6651
529.83        18.65438
530.27        18.63224
530.71        18.59523
531.15        18.53516
531.59        18.45598
532.03        18.35951
532.46        18.26371
532.90         18.2122
533.34        18.21006
533.78        18.24641
534.22        18.30232
534.66         18.3471
535.09        18.36958
535.53        18.38061
535.97        18.38308
536.41        18.38514
536.85        18.38996
537.28        18.39408
537.72        18.40013
538.16        18.41019
538.60        18.42772
539.04        18.46161
539.47        18.50304
539.91        18.54863
540.35        18.59298
540.79        18.63808
541.22        18.69608
541.66        18.78739
542.10          18.911
542.54         19.0592
542.97        19.19984
543.41         19.2952
543.85        19.33729
544.29        19.34242
544.72        19.34267
545.16        19.40393
545.60        19.53355
546.04        19.71093
546.47        19.90899
546.91        20.07851
547.35        20.20295
547.79        20.30725
548.22        20.39502
548.66        20.46744
549.10        20.54461
549.53        20.69718
549.97        20.91375
550.41        21.10563
550.84        21.26202
551.28        21.43454
551.72        21.61791
552.15        21.77671
552.59        21.91245
553.03        22.02468
553.46        22.12095
553.90        22.23189
554.34        22.35925
554.77        22.50418
555.21        22.64482
555.65        22.74744
556.08         22.7831
556.52        22.81397
556.96        22.85302
557.39        22.95225
557.83        23.10131
558.27        23.19352
558.70        23.22118
559.14        23.26122
559.57        23.30849
560.01        23.33482
560.45        23.35242
560.88        23.38075
561.32        23.46059
561.75        23.61646
562.19        23.81558
562.63        23.99074
563.06         24.0897
563.50        24.01876
563.93        23.84824
564.37        23.83406
564.80         23.9928
565.24        24.21374
565.68        24.43824
566.11        24.60577
566.55        24.70169
566.98        24.76644
567.42        24.82257
567.85        24.83533
568.29        24.86182
568.72        24.95826
569.16        25.12533
569.60        25.33375
570.03        25.59186
570.47        25.67235
570.90        25.85725
571.34        26.21827
571.77        26.30429
572.21        26.18407
572.64        26.30744
573.08        26.37532
573.51        26.62287
573.95        26.86289
574.38        26.98889
574.82        27.04634
575.25        26.95189
575.69        26.81907
576.12        26.81803
576.56        27.45487
576.99        27.71234
577.42        27.50703
577.86        27.29495
578.29        27.61391
578.73        27.17284
579.16        27.17713
579.60         27.1372
580.03        27.06732
580.47        26.94905
580.90        26.80568
581.33        27.06794
581.77        26.79993
582.20         26.5754
582.64        26.36816
583.07        26.33443
583.51        26.32237
583.94           26.39
584.37          26.323
584.81        26.10991
585.24        25.94451
585.68        25.89894
586.11        25.68476
586.54        25.45882
586.98        25.51717
587.41          25.793
587.85        25.43015
588.28        25.46149
588.71        25.41291
589.15        25.67342
589.58        25.15429
590.01         25.4203
590.45        25.41443
590.88        25.02856
591.31        25.02959
591.75        25.24099
592.18        25.28969
592.61         25.1759
593.05        25.41923
593.48         25.7128
593.91        25.33536
594.35        25.48846
594.78        25.68354
595.21        25.82445
595.65        25.89742
596.08        25.77133
596.51        26.12993
596.94        26.08264
597.38        26.37076
597.81        26.77443
598.24        26.71278
598.68         27.2055
599.11        27.53382
599.54        27.85381
599.97        27.83472
600.41        28.36044
600.84        28.59719
601.27        28.79517
601.70        29.11228
602.14        29.27606
602.57        29.77447
603.00        30.20055
603.43        30.60258
603.87         31.0658
604.30        31.22639
604.73        31.56715
605.16        32.22383
605.60        32.67843
606.03        33.14646
606.46        33.40503
606.89        33.76053
607.32        34.15619
607.76        34.65994
608.19        34.82012
608.62        35.11307
609.05        35.43901
609.48        35.77066
609.92        36.10176
610.35        36.31244
610.78        36.81867
611.21        36.80401
611.64        37.39718
612.07        37.61885
612.50        37.78336
612.94        37.99268
613.37        38.27537
613.80        38.55081
614.23        38.77213
614.66        39.07688
615.09        39.40557
615.52        39.74118
615.96        40.10838
616.39        40.09301
616.82        40.38552
617.25        40.82671
617.68        40.93596
618.11         41.0933
618.54        41.15329
618.97        41.68762
619.40        42.08689
619.84        42.60023
620.27        42.55996
620.70        42.59035
621.13        42.61085
621.56        42.62407
621.99        42.96933
622.42         42.9754
622.85        42.85958
623.28        43.32539
623.71        43.41289
624.14        43.07764
624.57        43.28363
625.00        43.54515
625.43        43.21003
625.86        43.27564
626.29        43.46379
626.72        43.14788
627.15        43.13256
627.58        42.91753
628.01        42.83913
628.44        42.39815
628.87        42.21453
629.30        42.34618
629.73        41.83108
630.16        41.38768
630.59        41.23695
631.02        40.98442
631.45        40.74508
631.88        40.47223
632.31        40.17944
632.74        39.68283
633.17        39.38534
633.60        38.97255
634.03        38.56604
634.46        38.16187
634.89        37.75916
635.32        37.34064
635.75        36.90456
636.18        36.48293
636.61        36.08287
637.04        35.67067
637.47        35.26758
637.89        34.96653
638.32         34.7276
638.75        34.43283
639.18        34.07382
639.61        33.71782
640.04        33.37626
640.47         33.0493
640.90        32.74608
641.33        32.45263
641.76        32.17796
642.18        32.01643
642.61        31.84305
643.04        31.75295
643.47        31.68643
643.90        31.60588
644.33        31.50383
644.76        31.39722
645.18        31.31079
645.61        31.27999
646.04        31.31539
646.47         31.3996
646.90        31.53481
647.33        31.71983
647.75        31.95363
648.18        32.25275
648.61        32.57095
649.04        32.84822
649.47        33.08609
649.89        33.23549
650.32        33.38443
650.75        33.85633
651.18        34.57403
651.61          35.056
652.03        35.24159
652.46        35.48927
652.89        35.94016
653.32        36.23408
653.74        36.51511
654.17        37.60329
654.60        37.73608
655.03        37.64645
655.46        38.60023
655.88        39.02982
656.31        40.43787
656.74        41.01293
657.16        40.91254
657.59        40.78361
658.02         41.2417
658.45        41.55928
658.87        41.80711
659.30        42.44551
659.73        42.52844
660.15        42.70002
660.58        42.97795
661.01        43.31726
661.44        43.77074
661.86        44.16289
662.29        44.46168
662.72        44.57771
663.14        44.60603
663.57        44.89288
664.00        45.39594
664.42        45.69331
664.85        45.77894
665.27        45.92044
665.70        46.14677
666.13        46.37607
666.55        46.61521
666.98         46.8836
667.41        47.17489
667.83        47.46637
668.26        47.74563
668.69        48.02958
669.11        48.29319
669.54        48.51165
669.96        48.69112
670.39        48.76943
670.82        48.83033
671.24        49.13361
671.67        49.62844
672.09        49.98431
672.52        50.15577
672.94        50.25428
673.37        50.30937
673.80        50.32162
674.22        50.34378
674.65        50.38987
675.07        50.49688
675.50        50.68945
675.92        50.94228
676.35        51.16803
676.77        51.34914
677.20        51.51057
677.62        51.66312
678.05        51.80554
678.47        51.94193
678.90        52.07924
679.32        52.20976
679.75        52.33611
680.17        52.45863
680.60        52.58285
681.02        52.71658
681.45        52.85769
681.87         53.0167
682.30        53.16938
682.72        53.31644
683.15        53.50349
683.57        53.70827
684.00        53.77964
684.42        53.76746
684.85        53.85447
685.27        54.04151
685.70        54.30965
686.12         54.5803
686.54        54.60782
686.97        54.44852
687.39        54.54399
687.82         54.8778
688.24        54.93554
688.66        54.96646
689.09        54.97237
689.51        55.06805
689.94        55.18065
690.36        55.32492
690.78        55.47002
691.21        55.60529
691.63        55.80192
692.06        56.01183
692.48        56.03216
692.90        55.91844
693.33        55.93271
693.75        56.10227
694.17        56.29296
694.60         56.4676
695.02        56.64572
695.44        56.80618
695.87        56.93486
696.29        57.04724
696.71        57.19856
697.14        57.36698
697.56        57.48065
697.98        57.53999
698.41         57.6622
698.83        57.83783
699.25         58.0252
699.68         58.1934
700.10        58.36385
700.52        58.51907
700.94        58.65512
701.37         58.7573
701.79         58.8361
702.21        58.88067
702.64        58.90435
703.06        58.92137
703.48        58.97989
703.90        59.09933
704.33        59.24292
704.75        59.39875
705.17        59.59066
705.59         59.7712
706.01        59.77303
706.44        59.67057
706.86        59.80543
707.28        60.02575
707.70        60.41211
708.12        60.79932
708.55        60.86345
708.97        60.65398
709.39        60.63518
709.81        60.83643
710.23        60.92395
710.66        60.89808
711.08        60.99787
711.50        61.18203
711.92        61.28798
712.34        61.30379
712.76        61.28017
713.19          61.251
713.61        61.31056
714.03        61.45939
714.45        61.66349
714.87        61.88111
715.29        62.05526
715.71        62.16801
716.13        62.23417
716.56        62.25617
716.98        62.30574
717.40         62.3771
717.82        62.45887
718.24        62.53846
718.66        62.60708
719.08        62.67612
719.50        62.70394
719.92        62.69345
720.34        62.80469
720.76        63.07576
721.19        62.84556
721.61        63.21513
722.03        63.23701
722.45        63.23372
722.87        63.18999
723.29        63.15346
723.71        63.17511
724.13        63.25476
724.55        63.40596
724.97        63.62407
725.39        63.70713
725.81        63.59983
726.23        63.69376
726.65        64.12975
727.07        63.23482
727.49        64.04697
727.91        64.11676
728.33        64.27898
728.75        64.35066
729.17        64.32858
729.59        64.21758
730.01        64.06597
730.43        64.03679
730.85         64.1537
731.27        64.36855
731.69        64.61429
732.10        64.79278
732.52        64.86888
732.94        64.88535
733.36         64.8737
733.78        64.87367
734.20        64.90566
734.62        65.02568
735.04        65.03093
735.46        65.19567
735.88        65.41359
736.30        65.45013
736.72        65.33387
737.13        65.37285
737.55        65.53212
737.97        65.58375
738.39        65.52038
738.81        65.42326
739.23        65.34346
739.65         65.4377
740.06        65.62911
740.48        65.71217
740.90        65.64456
741.32        65.62938
741.74        65.60235
742.16         65.6488
742.57         65.7588
742.99        65.91595
743.41         66.0998
743.83         66.2642
744.25        66.39433
744.67        66.49075
745.08        66.58527
745.50        66.69168
745.92        66.82771
746.34        66.98494
746.75        67.11569
747.17        67.15545
747.59        67.08782
748.01        66.89878
748.42        66.68991
748.84        66.64526
749.26        66.72044
749.68        66.96058
750.09        66.87853
750.51        66.73408
750.93        66.50568
751.35        66.61404
751.76         67.0188
752.18        67.22996
752.60        67.22016
753.01        67.31892
753.43        67.52542
753.85        67.53659
754.27        67.65142
754.68         67.6619
755.10        67.67545
755.52        67.71058
755.93        67.78131
756.35        67.87626
756.77        67.96581
757.18        68.06599
757.60        68.18301
758.02        68.17339
758.43        68.05141
758.85        68.28452
759.26        68.36005
759.68        68.21113
760.10        67.86027
760.51        67.13098
760.93        67.72707
761.34        67.42081
761.76        68.51066
762.18        68.50798
762.59        68.10812
763.01        68.13573
763.42        68.65676
763.84        68.86195
764.26        68.73304
764.67        68.74459
765.09        68.90543
765.50        68.91701
765.92         68.8041
766.33        68.65416
766.75        68.45359
767.16        68.31703
767.58        68.23866
768.00        68.25164
768.41        68.37877
768.83        68.53455
769.24        68.67998
769.66        68.89864
770.07        69.11103
770.49        69.08113
770.90         68.8927
771.32        68.97907
771.73        69.31355
772.15        69.42561
772.56        69.30861
772.97         69.2918
773.39        69.36959
773.80        69.30804
774.22        69.16036
774.63        69.35723
775.05        69.79114
775.46        70.00828
775.88        69.92809
776.29        69.82819
776.70        69.75491
777.12        69.69403
777.53        69.68855
777.95        69.71587
778.36        69.77177
778.77        69.83272
779.19        69.89749
779.60        69.98899
780.02        70.07813
780.43        70.19265
780.84        70.32097
781.26        70.30063
781.67        70.25316
782.09         70.5911
782.50        70.99796
782.91        71.36971
783.33        70.02406
783.74        69.77807
784.15        70.16989
784.57        70.60579
784.98        70.92334
785.39        70.93011
785.81        70.76354
786.22        70.85831
786.63         71.2018
787.04         71.3121
787.46         71.1943
787.87        71.12681
788.28        71.13866
788.70          71.128
789.11        71.08833
789.52        71.08445
789.93        71.13521
790.35        71.22307
790.76         71.3888
791.17        71.63501
791.58        71.90086
792.00        72.12507
792.41        72.23711
792.82        72.05998
793.23        71.71438
793.65        71.48068
794.06        71.49566
794.47        71.91209
794.88        72.52902
795.29        72.63641
795.71        72.62956
796.12        72.28729
796.53        71.89006
796.94        71.88423
797.35        72.23303
797.76         72.2538
798.18        71.95414
798.59        71.90594
799.00        72.12267
799.41        72.25581
799.82        72.27625
800.23        72.32038
800.64        72.38211
801.06        72.39383
801.47        72.38502
801.88        72.33552
802.29        72.24782
802.70        72.13332
803.11        72.02354
803.52        71.96321
803.93        71.98048
804.34        72.07735
804.75        72.22462
805.17         72.4201
805.58        72.68694
805.99        72.79919
806.40        72.80745
806.81        73.27268
807.22        73.94894
807.63        73.76268
808.04        72.87582
808.45        72.52428
808.86        72.82962
809.27        73.09954
809.68        73.21017
810.09        73.25896
810.50        73.20721
810.91        73.05092
811.32        72.84869
811.73        72.70602
812.14         72.6622
812.55        72.64564
812.96         72.6795
813.37        72.90496
813.78        73.25574
814.19        73.47016
814.60        73.51392
815.01        73.55107
815.42        73.58246
815.83        73.48602
816.24        73.30495
816.65        73.20587
817.05        73.23528
817.46        73.31651
817.87        73.44867
818.28        73.57486
818.69        73.67609
819.10        73.77337
819.51        73.86728
819.92        73.95091
820.33        74.01991
820.74        74.06123
821.14        74.07285
821.55        74.09683
821.96        74.11809
822.37        74.12885
822.78        74.11321
823.19        74.04055
823.60        73.91222
824.00        73.77679
824.41        73.60809
824.82        73.44807
825.23        73.31484
825.64        73.20535
826.04        73.18597
826.45        73.32356
826.86        73.62428
827.27        74.05077
827.68          74.483
828.08        74.75385
828.49        74.74657
828.90         74.5476
829.31        74.25536
829.72         74.0471
830.12        74.00705
830.53        74.04133
830.94        74.13389
831.35        74.21939
831.75        74.28824
832.16          74.318
832.57        74.31992
832.97        74.26707
833.38         74.1597
833.79        74.02637
834.20        73.88997
834.60        73.78264
835.01        73.73204
835.42        73.71727
835.82         73.8033
836.23        74.01669
836.64        74.37016
837.04        74.85635
837.45        75.30132
837.86        75.52459
838.26        75.49499
838.67        75.24986
839.08        74.92998
839.48         74.7606
839.89        74.80525
840.29         74.9913
840.70         75.2478
841.11        75.46104
841.51        75.60369
841.92        75.68088
842.33        75.68758
842.73        75.60432
843.14        75.39597
843.54        75.10142
843.95        74.79865
844.35        74.63926
844.76        74.65228
845.17        74.80946
845.57        75.04546
845.98        75.20297
846.38        75.25653
846.79        75.21107
847.19        75.13002
847.60        75.06951
848.00         75.0696
848.41        75.07242
848.81        75.06213
849.22        74.94191
849.62        74.73863
850.03        74.47329
850.43        74.22413
850.84        74.02348
851.24        73.93559
851.65        73.88052
852.05        73.93298
852.46        74.10033
852.86        74.34942
853.27        74.67886
853.67        74.89317
854.07        74.90225
854.48        74.65713
854.88        74.23006
855.29        73.67297
855.69        73.31494
856.10         73.1746
856.50        73.25844
856.90        73.44439
857.31        73.55431
857.71        73.58138
858.12        73.53222
858.52        73.48236
858.92        73.42451
859.33        73.35713
859.73        73.29961
860.13        73.25925
860.54        73.28648
860.94        73.41743
861.34        73.59351
861.75        73.73576
862.15        73.78217
862.55        73.68577
862.96        73.49251
863.36        73.20731
863.76        72.82951
864.17        72.38643
864.57         71.9081
864.97        71.51257
865.38        71.36122
865.78        71.52593
866.18        71.94235
866.58        72.43592
866.99         72.6975
867.39        72.65849
867.79        72.36388
868.19        71.97437
868.60        71.70188
869.00        71.59843
869.40         71.6421
869.80        71.74666
870.21        71.76537
870.61        71.73209
871.01        71.63672
871.41        71.58658
871.81        71.73142
872.22        72.05946
872.62        72.54024
873.02        73.02574
873.42        73.23216
873.82        73.08904
874.22        72.72234
874.63        72.30679
875.03        72.06177
875.43        72.05846
875.83        72.21111
876.23          72.509
876.63        72.93387
877.03        73.42825
877.44        73.97065
877.84        74.41251
878.24        74.47353
878.64         74.1173
879.04        73.45669
879.44        72.70238
879.84        72.15105
880.24        71.87998
880.64        71.82014
881.04         71.9174
881.44        72.06564
881.84        72.21225
882.24        72.38172
882.65        72.53178
883.05        72.68732
883.45        72.80085
883.85        72.86073
884.25        72.85465
884.65        72.78657
885.05         72.6612
885.45        72.46748
885.85        72.27221
886.25        72.18739
886.65        72.24109
887.05        72.42888
887.45          72.609
887.85        72.55526
888.25        72.23292
888.65        71.69846
889.04        71.17554
889.44        71.08069
889.84        71.47198
890.24        72.21272
890.64        72.99052
891.04        73.31233
891.44        73.07278
891.84        72.44585
892.24        71.70625
892.64          71.284
893.04        71.30746
893.44        71.64867
893.83        72.18491
894.23        72.65388
894.63         72.9843
895.03        73.22945
895.43        73.42767
895.83        73.63165
896.23        73.84683
896.63        74.03527
897.02         74.1227
897.42         74.0559
897.82        73.83149
898.22         73.5047
898.62        73.19095
899.01        73.08625
899.41         73.2166
899.81        73.52349
900.21        73.91718
900.61        74.24387
901.00        74.42779
901.40        74.52328
901.80        74.50218
902.20        74.33723
902.59        74.06227
902.99        73.68201
903.39        73.31042
903.79        73.12969
904.18        73.17489
904.58        73.39384
904.98        73.69894
905.38        73.95933
905.77        74.11929
906.17        74.21898
906.57        74.23353
906.96        74.14915
907.36        73.95082
907.76        73.65902
908.15        73.35175
908.55        73.09191
908.95        72.94521
909.34        72.88857
909.74        72.93284
910.14        73.02423
910.53        73.13826
910.93        73.25024
911.33        73.35545
911.72        73.44154
912.12        73.48718
912.52        73.52766
912.91        73.49958
913.31        73.34728
913.70        73.07833
914.10        72.69315
914.49         72.3997
914.89        72.50137
915.29        73.06663
915.68        73.97549
916.08        74.90377
916.47        75.34185
916.87        75.19024
917.26        74.57856
917.66        73.79998
918.05        73.28795
918.45         73.1616
918.84        73.32536
919.24        73.58639
919.64        73.70995
920.03        73.64123
920.42        73.46813
920.82        73.30323
921.21        73.29394
921.61        73.45957
922.00        73.74019
922.40        74.05711
922.79         74.3672
923.19        74.58932
923.58        74.77277
923.98        74.83755
924.37          74.721
924.77        74.41593
925.16         73.9305
925.55        73.41097
925.95        73.11102
926.34        73.09971
926.74        73.30829
927.13        73.61068
927.52        73.68835
927.92        73.50131
928.31        73.14613
928.70        72.79962
929.10        72.72064
929.49         72.9696
929.89        73.41843
930.28        74.00338
930.67        74.49416
931.07        74.77679
931.46        74.92068
931.85        74.90891
932.24        74.75982
932.64        74.50378
933.03        74.14813
933.42        73.75835
933.82        73.43982
934.21        73.24068
934.60        73.16726
934.99        73.21256
935.39        73.32249
935.78        73.50323
936.17        73.73952
936.56        74.02144
936.96        74.31938
937.35        74.64375
937.74        74.93678
938.13        75.13338
938.53        75.15862
938.92        75.01308
939.31        74.71569
939.70        74.35175
940.09        74.07893
940.49        73.92358
940.88        73.88107
941.27        73.88651
941.66        73.82755
942.05        73.69091
942.44        73.56087
942.84        73.45801
943.23        73.35165
943.62        73.27776
944.01        73.19508
944.40        73.24673
944.79        73.68439
945.18        74.49245
945.57        75.53904
945.97        76.42652
946.36        76.64441
946.75         76.0798
947.14        74.90805
947.53        73.49332
947.92        72.49577
948.31         72.1473
948.70        72.27425
949.09        72.67431
949.48        73.00485
949.87        73.14329
950.26        73.20937
950.65        73.21316
951.04        73.15457
951.43        73.04881
951.82        72.85014
952.21        72.62174
952.60        72.51585
952.99        72.55654
953.38        72.69785
953.77        72.84103
954.16        72.81727
954.55         72.5919
954.94        72.23502
955.33        71.79424
955.72         71.3527
956.11        70.95104
956.50        70.55322
956.89        70.23579
957.28        70.12332
957.66        70.26009
958.05        70.62336
958.44        71.02287
958.83        71.13577
959.22        70.89946
959.61         70.3729
960.00        69.85069
960.39         69.8161
960.78        70.34785
961.16        71.31705
961.55        72.27231
961.94        72.53606
962.33        71.94823
962.72        70.79316
963.11        69.49866
963.49        68.67664
963.88        68.50459
964.27         68.8138
964.66        69.46544
965.04        70.22192
965.43        70.85336
965.82        71.43128
966.21        71.93565
966.60        72.36048
966.98        72.70588
967.37        72.89033
967.76        72.85429
968.15        72.50924
968.53        71.90808
968.92        71.17427
969.31        70.48191
969.69        70.03777
970.08        69.90718
970.47        70.05098
970.86         70.5568
971.24        71.54945
971.63        72.85436
972.02        74.32294
972.40        75.64085
972.79        76.27333
973.17        76.23011
973.56        75.58582
973.95        74.58979
974.33        73.68249
974.72        73.04271
975.11        72.56912
975.49        72.22022
975.88         71.9313
976.26        71.67696
976.65        71.52501
977.04        71.39095
977.42        71.07378
977.81        70.49638
978.19        69.66885
978.58        68.92735
978.96        68.81681
979.35         69.4194
979.74        70.58299
980.12        71.89351
980.51        72.45448
980.89        72.17702
981.28        71.24087
981.66        70.09132
982.05        69.58894
982.43        69.98335
982.82        70.93222
983.20        72.17754
983.59        73.16082
983.97        73.79395
984.35        74.21183
984.74        74.33541
985.12        74.01745
985.51        73.29764
985.89        72.25129
986.28        71.26096
986.66        70.97017
987.04        71.42865
987.43        72.43311
987.81        73.57924
988.20         74.0401
988.58        73.63162
988.96        72.60613
989.35        71.22438
989.73        69.98049
990.12        68.98618
990.50        68.02126
990.88        67.23151
991.27        66.96905
991.65        67.28797
992.03        68.18552
992.42        68.95961
992.80        68.93613
993.18        67.87724
993.56         65.8142
993.95        63.47882
994.33        62.59816
994.71        63.89269
995.10        66.46222
995.48        69.06374
995.86         70.3468
996.24        70.21973
996.63        68.99931
997.01        67.35287
997.39        66.67469
997.77        67.52534
998.15        69.42986
998.54        71.40937
998.92        72.17964
999.30        71.48419
999.68        69.71016
1000.06        67.67376
1000.45         66.8247
1000.83        67.65049
1001.21         69.5836
1001.59        71.73582
1001.97        72.82307
1002.35        72.55402
1002.73        71.36823
1003.12        69.72503
1003.50        68.49174
1003.88        68.15614
1004.26        68.29523
1004.64        68.90118
1005.02        70.02685
1005.40        71.57558
1005.78         73.6536
1006.16        75.52493
1006.54        75.80706
1006.92        74.19836
1007.30        71.02389
1007.69        67.63916
1008.07        66.26979
1008.45        67.50981
1008.83        70.65796
1009.21        74.19886
1009.59        75.92061
1009.97        75.22525
1010.35        72.49091
1010.73        68.65668
1011.11          66.257
1011.49        66.53469
1011.86        68.80994
1012.24        71.48151
1012.62        72.57051
1013.00        71.68958
1013.38        69.62572
1013.76        67.23508
1014.14        65.84547
1014.52        65.96521
1014.90        67.19054
1015.28        69.24834
1015.66        71.57362
1016.04        73.71594
1016.41        75.76904
1016.79        77.40909
1017.17        78.60262
1017.55        79.34989
1017.93        79.63578
1018.31        79.46278
1018.69         78.8655
1019.06        77.96791
1019.44        76.83029
1019.82        75.76138
1020.20        75.39725
1020.58         75.8587
1020.95        76.72092
1021.33        77.68248
1021.71        78.29874
1022.09         78.3973
1022.46        78.11753
1022.84        77.05834
1023.22        74.33153
1023.60        69.73047
1023.97        63.05396
1024.35        55.78215
1024.73        51.22968
