SpectraSmart Spectrum 2.9.0.0
--------- Device Information -----------
Spectrum Name :  反射率_0
Saving Time :  2024/04/27 23:00:24
Spectro-Module Model Name : SE2030-DUVN
Spectro-Module Serial Number : OS361AC55029948
Wavelength Start : 200
Wavelength End : 1025
Wavelength Unit : Wavelength(nm)
Spectrum Unit : Reflectance(%)
-----------Spectrum Setting ------------
Integration Time : 20ms
Average : 10
Boxcar : 0
Background removal :  enabled
linearity correction :  enabled
SC :  disabled
Intensity correction :  disabled
DWT denoise :  enabled
savitzky-golay :  disabled
FFT :  disabled
Running average :  disabled
Kalman :  disabled
High pass :  disabled
---------------BEGIN--------------------
Wavelength(nm)             Reflectance(%)
200.29               0
200.75       -86.27756
201.21       -47.39652
201.67       -12.69091
202.13        4.402548
202.58        9.811613
203.04        10.15894
203.50        9.961434
203.96        13.52318
204.42        20.55797
204.88        28.68689
205.34         34.9397
205.80        37.05444
206.26        34.66748
206.72        26.25022
207.18        12.90203
207.64        7.910221
208.10        18.14197
208.55         34.2742
209.01        43.26933
209.47         40.9458
209.93        25.18566
210.39       -20.85024
210.85       -164.4169
211.31       -344.8163
211.77       -140.5902
212.23       -2.951041
212.69        45.69119
213.14        59.40305
213.60        56.58324
214.06        40.89827
214.52        9.840255
214.98       -14.47406
215.44       -6.514756
215.90        13.53989
216.36        30.06348
216.81        38.22662
217.27        40.18381
217.73        39.85456
218.19        37.79555
218.65        34.06499
219.11        29.08315
219.57        22.09471
220.02        14.97127
220.48        14.11408
220.94        20.35773
221.40        30.68069
221.86        40.57007
222.32        45.69294
222.77        46.39161
223.23        44.60922
223.69        42.06853
224.15        40.34063
224.61        39.79747
225.06        39.81933
225.52        40.73424
225.98        42.42061
226.44        44.27073
226.90        45.84617
227.36        47.01978
227.81        47.81175
228.27         48.2649
228.73        48.35965
229.19        47.67984
229.65        45.55437
230.10        42.03293
230.56        37.97008
231.02        34.14334
231.48        31.58192
231.93        30.41083
232.39        30.30639
232.85        31.12704
233.31        32.67746
233.77        34.66933
234.22        37.11203
234.68        39.16861
235.14        39.88214
235.60        39.10033
236.05        36.75344
236.51        33.91311
236.97        33.00347
237.43        34.92467
237.88          39.258
238.34        43.56921
238.80        45.11181
239.26        42.95458
239.71        36.03241
240.17         24.5542
240.63        17.79107
241.08         24.1924
241.54        37.28101
242.00        47.64193
242.46        50.93009
242.91        47.53468
243.37        35.61377
243.83         8.49361
244.28       -28.68402
244.74       -35.78012
245.20       -8.875253
245.66        17.54678
246.11        27.49493
246.57        24.14011
247.03        10.36127
247.48       -13.69674
247.94       -30.59068
248.40       -22.31376
248.85      0.07931082
249.31        22.90804
249.77        36.40538
250.22        41.17076
250.68        41.46933
251.14        40.47091
251.59        40.56212
252.05        42.29374
252.51        45.05316
252.96        47.38331
253.42        46.21438
253.88        40.78769
254.33         35.0785
254.79         31.4926
255.25         30.2345
255.70        30.64534
256.16        32.16349
256.62        34.75734
257.07        38.38411
257.53        42.36356
257.99        45.86678
258.44        48.04722
258.90        48.43987
259.35          47.221
259.81         45.3112
260.27        43.17884
260.72        41.40129
261.18        40.33594
261.63         39.5673
262.09        39.06851
262.55         38.5453
263.00        37.89201
263.46        37.28545
263.91        36.71115
264.37        36.38699
264.83        36.24515
265.28        36.17541
265.74        36.06366
266.19        35.64173
266.65        34.94338
267.11        34.03251
267.56        33.05336
268.02        32.31642
268.47        31.85472
268.93        31.58967
269.38        31.39789
269.84        31.10054
270.30        30.64081
270.75        30.08038
271.21        29.46006
271.66        28.80164
272.12        28.15294
272.57        27.48285
273.03        26.85772
273.48        26.31597
273.94        25.90194
274.39        25.56269
274.85        25.29659
275.31        25.03899
275.76        24.74903
276.22        24.45656
276.67        24.11035
277.13        23.70971
277.58        23.23171
278.04        22.73409
278.49         22.2212
278.95        21.78675
279.40        21.41191
279.86        21.12459
280.31        20.89317
280.77        20.76309
281.22        20.69275
281.68        20.69282
282.13        20.69754
282.59        20.64594
283.04        20.51464
283.50        20.31993
283.95        20.10139
284.41        19.94853
284.86        19.86645
285.32        19.84619
285.77        19.81288
286.22        19.67956
286.68        19.45338
287.13        19.14589
287.59        18.86789
288.04        18.72017
288.50        18.74484
288.95        18.87911
289.41        19.04975
289.86        19.11194
290.32        19.05186
290.77        18.91161
291.22        18.76966
291.68        18.74044
292.13        18.84255
292.59        19.04312
293.04        19.29206
293.50        19.53251
293.95        19.74024
294.40        19.95353
294.86        20.18413
295.31        20.44018
295.77        20.73772
296.22        21.05484
296.68        21.42832
297.13        21.89695
297.58        22.45726
298.04        23.07957
298.49        23.68833
298.95        24.17758
299.40        24.52913
299.85        24.77653
300.31        25.00359
300.76        25.30886
301.21        25.72598
301.67        26.22023
302.12        26.71788
302.58        27.13866
303.03         27.4493
303.48        27.68224
303.94        27.90053
304.39        28.15746
304.84        28.47725
305.30        28.84133
305.75        29.17515
306.20        29.39975
306.66        29.51237
307.11        29.51532
307.57        29.50116
308.02        29.55501
308.47        29.70413
308.93        29.90976
309.38        30.07757
309.83        30.08334
310.29        29.91857
310.74        29.62794
311.19        29.29756
311.65        29.05956
312.10        28.93885
312.55        28.90022
313.00        28.92182
313.46        28.97017
313.91        29.01752
314.36        29.07308
314.82        29.08923
315.27        28.98379
315.72        28.74933
316.18        28.41705
316.63        28.05231
317.08        27.78439
317.53        27.64582
317.99        27.59782
318.44        27.59688
318.89        27.55339
319.35        27.43765
319.80        27.27664
320.25        27.08613
320.70         26.8954
321.16        26.70901
321.61        26.51988
322.06        26.32087
322.51        26.10798
322.97         25.8802
323.42        25.65772
323.87        25.44055
324.32        25.23165
324.78        25.03157
325.23        24.83966
325.68        24.66828
326.13        24.54248
326.59        24.45003
327.04        24.39886
327.49        24.33356
327.94        24.17241
328.39        23.89772
328.85        23.52809
329.30        23.13243
329.75        22.82976
330.20        22.66139
330.66        22.59258
331.11        22.57985
331.56        22.50216
332.01        22.32804
332.46        22.09343
332.92        21.85243
333.37        21.71785
333.82        21.71218
334.27         21.7896
334.72        21.89766
335.17        21.95663
335.63        21.92924
336.08        21.85163
336.53        21.71787
336.98        21.52914
337.43         21.3031
337.88         21.0489
338.34        20.81079
338.79        20.66272
339.24        20.62408
339.69        20.67466
340.14        20.78191
340.59        20.88695
341.05        20.96081
341.50        21.01583
341.95        21.02793
342.40        20.97225
342.85        20.84867
343.30        20.65936
343.75        20.44654
344.20        20.28219
344.66        20.19168
345.11        20.16388
345.56        20.15977
346.01        20.10909
346.46        19.99618
346.91         19.8379
347.36        19.69328
347.81        19.64997
348.26        19.72105
348.72        19.87942
349.17        20.03486
349.62        20.04439
350.07        19.88001
350.52        19.58027
350.97        19.26994
351.42        19.14921
351.87        19.25467
352.32        19.51883
352.77        19.79177
353.22        19.84458
353.67        19.63194
354.13        19.24659
354.58        18.80378
355.03        18.53647
355.48        18.50924
355.93        18.65496
356.38        18.86754
356.83        18.98344
357.28        18.95549
357.73        18.83156
358.18         18.6855
358.63        18.62864
359.08        18.68164
359.53        18.79823
359.98        18.89847
360.43        18.86561
360.88        18.67791
361.33        18.37679
361.78        18.03919
362.23        17.82315
362.68        17.77346
363.13        17.77885
363.58        17.75533
364.03        17.94719
364.48        17.71318
364.93        17.57179
365.38        17.39992
365.83        17.30516
366.28         17.2984
366.73        17.34875
367.18        17.38647
367.63         17.2882
368.08        17.03414
368.53        16.67209
368.98        16.28531
369.43        16.00388
369.88         15.8672
370.33        15.83997
370.78        15.86922
371.23        15.86849
371.68        15.80309
372.13        15.68844
372.58        15.55308
373.03          15.441
373.48        15.36684
373.93         15.3265
374.38        15.27023
374.83        15.12383
375.28        14.88409
375.72        14.56776
376.17        14.30731
376.62        14.26793
377.07         14.4667
377.52        14.83383
377.97        15.20963
378.42        15.34562
378.87        15.19113
379.32        14.83463
379.77         14.4085
380.22         14.1145
380.67        14.00707
381.11        14.02099
381.56        14.09983
382.01        14.15022
382.46        14.13693
382.91        14.09614
383.36        14.02789
383.81        13.92544
384.26        13.79501
384.71        13.63243
385.15        13.46029
385.60        13.34893
386.05        13.30375
386.50        13.31785
386.95         13.3612
387.40        13.38135
387.85        13.36829
388.29        13.32868
388.74        13.30749
389.19        13.34081
389.64        13.42728
390.09        13.53527
390.54        13.63167
390.98        13.66477
391.43        13.62547
391.88        13.53888
392.33         13.4029
392.78        13.23552
393.23        13.05926
393.67        12.82078
394.12        12.58656
394.57        12.59103
395.02        12.61708
395.47        12.62507
395.91        12.55434
396.36          12.552
396.81        12.61588
397.26        12.65183
397.71           12.65
398.15        12.64706
398.60        12.65529
399.05        12.61185
399.50        12.54264
399.95        12.56655
400.39        12.64704
400.84        12.59467
401.29        12.41803
401.74        12.25513
402.18        12.15017
402.63        12.12516
403.08        12.16503
403.53        12.17467
403.97        12.14671
404.42        12.15304
404.87        12.18642
405.32        12.21058
405.76        12.21827
406.21         12.1841
406.66        12.12802
407.11        12.14081
407.55         12.1949
408.00         12.1583
408.45        12.02637
408.90        11.83555
409.34        11.65008
409.79         11.6241
410.24        11.73468
410.68        11.79174
411.13        11.77996
411.58         11.8212
412.03        11.90758
412.47        11.96144
412.92        11.96568
413.37        11.94427
413.81        11.90698
414.26        11.87883
414.71        11.86359
415.15        11.85501
415.60        11.84657
416.05        11.83043
416.49         11.8065
416.94        11.77752
417.39        11.75011
417.83        11.73417
418.28        11.72679
418.73        11.71971
419.17          11.712
419.62          11.705
420.07        11.70311
420.51        11.71531
420.96        11.72475
421.41         11.7192
421.85        11.69487
422.30        11.60047
422.74        11.49662
423.19        11.62157
423.64        11.92599
424.08        12.08535
424.53        12.02358
424.98        11.96943
425.42        11.92752
425.87        11.68486
426.31        11.33354
426.76        11.26332
427.21        11.42494
427.65        11.39638
428.10         11.2042
428.54        11.17123
428.99        11.29541
429.44        11.51007
429.88          11.698
430.33        11.53775
430.77         11.1483
431.22        11.03741
431.66        11.22523
432.11        11.39682
432.56        11.50691
433.00        11.64683
433.45        11.67807
433.89        11.46534
434.34        11.22094
434.78        10.59445
435.23        10.97516
435.67        11.34579
436.12        11.56762
436.57         11.7423
437.01        11.73762
437.46        11.70731
437.90        11.70363
438.35        11.68226
438.79        11.32099
439.24        11.16048
439.68        11.12581
440.13        11.16141
440.57        11.22495
441.02        11.34839
441.46        11.48105
441.91        11.37725
442.35        11.13699
442.80        11.25723
443.24        11.63994
443.69        11.62215
444.13        11.23455
444.58        11.06256
445.02        11.11339
445.47        11.09267
445.91        10.99145
446.36        10.95145
446.80        10.97039
447.24        11.00578
447.69        11.05113
448.13         11.1286
448.58        11.21486
449.02        11.24955
449.47        11.24014
449.91        11.25298
450.36        11.29277
450.80        11.31789
451.25        11.32291
451.69        11.32012
452.13        11.30488
452.58        11.26385
453.02        11.20675
453.47        11.15499
453.91        11.11234
454.36        11.09565
454.80         11.0752
455.24        10.99125
455.69        10.86864
456.13        10.73821
456.58        10.65023
457.02        10.71731
457.46        10.88272
457.91        10.93405
458.35         10.9022
458.79        10.90532
459.24        10.95507
459.68        10.95871
460.13        10.93075
460.57        10.87503
461.01        10.84898
461.46        10.85801
461.90        10.84883
462.34        10.85683
462.79        11.04553
463.23        11.11475
463.68        11.11376
464.12        11.10045
464.56        11.08632
465.01         11.1049
465.45        11.10593
465.89        11.01427
466.34        10.87076
466.78        10.73282
467.22        10.61981
467.67         10.7855
468.11        10.75378
468.55        10.79095
468.99        10.75184
469.44        10.74152
469.88        10.75526
470.32        10.71844
470.77        10.66467
471.21        10.68222
471.65        10.78301
472.10        10.93857
472.54        11.09511
472.98        11.18621
473.42        11.19998
473.87        11.12824
474.31        11.02457
474.75        11.07614
475.20        11.25859
475.64        11.33742
476.08        11.29318
476.52        11.31663
476.97        11.41511
477.41        11.37051
477.85        11.30287
478.29        11.38156
478.74        11.32577
479.18        11.26351
479.62        11.47219
480.06        11.51942
480.50        11.52193
480.95        11.48142
481.39        11.41189
481.83        11.58255
482.27        11.65443
482.72        11.71036
483.16        11.97359
483.60        12.06439
484.04         12.0603
484.48        12.02031
484.93        12.10462
485.37        12.07014
485.81         12.3714
486.25        12.81896
486.69        12.39413
487.14        11.96337
487.58        12.95911
488.02        12.67118
488.46        12.88564
488.90        13.10639
489.34        12.49659
489.79        12.36514
490.23         12.8386
490.67        13.19631
491.11         13.4603
491.55        13.50846
491.99        13.40633
492.43        13.46261
492.88        13.69291
493.32        13.85289
493.76        13.92894
494.20        14.06758
494.64        14.28141
495.08        14.48246
495.52        14.65296
495.96         14.8902
496.41        15.18326
496.85        15.13168
497.29        14.86782
497.73        14.99252
498.17        15.45025
498.61         15.7144
499.05        15.70387
499.49        15.68501
499.93        15.70485
500.37        15.71983
500.82         15.7458
501.26        15.84187
501.70        16.02368
502.14        15.94662
502.58        16.17321
503.02        16.27093
503.46        16.33568
503.90        16.39178
504.34        16.43278
504.78        16.50006
505.22        16.58885
505.66        16.65802
506.10        16.71086
506.54        16.79926
506.98         16.9275
507.42        16.99997
507.86        17.13395
508.30        17.19789
508.74        17.22723
509.18        17.22489
509.62        17.21543
510.06        17.23614
510.50        17.29502
510.94        17.38308
511.38        17.47731
511.82         17.5407
512.26        17.56415
512.70        17.56002
513.14        17.54975
513.58        17.56052
514.02        17.59929
514.46        17.66811
514.90        17.75151
515.34        17.76263
515.78        17.79602
516.22        17.77752
516.66        17.75417
517.10         17.7489
517.54        17.76773
517.98        17.80074
518.42        17.82931
518.86        17.82693
519.30        17.78836
519.74        17.72503
520.18        17.65563
520.62        17.60767
521.06        17.58941
521.50        17.59365
521.93        17.61058
522.37          17.616
522.81        17.60539
523.25        17.58166
523.69        17.55278
524.13        17.53157
524.57        17.51875
525.01        17.50807
525.45        17.48491
525.89        17.42702
526.32        17.32994
526.76        17.21226
527.20         17.0921
527.64        17.00028
528.08        16.94523
528.52        16.91475
528.96        16.90227
529.40        16.89756
529.83         16.8911
530.27        16.88356
530.71        16.85914
531.15        16.79222
531.59        16.68376
532.03        16.54881
532.46        16.40866
532.90        16.31016
533.34        16.26349
533.78        16.25467
534.22        16.28345
534.66         16.3475
535.09        16.43582
535.53        16.54911
535.97        16.65079
536.41        16.68554
536.85        16.64498
537.28        16.54464
537.72        16.43347
538.16        16.39063
538.60        16.43638
539.04        16.55194
539.47        16.68943
539.91        16.78415
540.35        16.81694
540.79        16.81423
541.22        16.80765
541.66        16.84722
542.10        16.94451
542.54        17.07963
542.97        17.22666
543.41        17.35847
543.85        17.46295
544.29        17.55122
544.72        17.63061
545.16        17.72562
545.60        17.83706
546.04        17.95914
546.47        18.08746
546.91        18.21087
547.35         18.3259
547.79        18.44466
548.22        18.56781
548.66        18.69289
549.10        18.83182
549.53        19.04962
549.97        19.32128
550.41        19.53988
550.84         19.6905
551.28        19.82821
551.72        19.96445
552.15        20.09425
552.59        20.22827
553.03        20.35914
553.46        20.48735
553.90        20.63116
554.34        20.78699
554.77        20.95689
555.21        21.12014
555.65        21.24315
556.08        21.29824
556.52        21.34542
556.96        21.39022
557.39        21.47287
557.83        21.58426
558.27        21.62641
558.70        21.61601
559.14        21.65907
559.57        21.75621
560.01          21.879
560.45        21.99872
560.88        22.05981
561.32        22.10019
561.75        22.18259
562.19        22.31213
562.63        22.48623
563.06        22.64813
563.50         22.6292
563.93        22.47331
564.37        22.45142
564.80        22.57531
565.24         22.7144
565.68        22.84448
566.11        22.97645
566.55        23.10586
566.98        23.24595
567.42        23.39452
567.85        23.48048
568.29        23.54616
568.72        23.66318
569.16        23.83742
569.60        24.02985
570.03        24.24191
570.47        24.29921
570.90         24.5038
571.34        24.77428
571.77        24.91601
572.21        25.04334
572.64        25.18831
573.08        25.33304
573.51        25.42093
573.95        25.57391
574.38        25.67557
574.82        25.89069
575.25        25.87648
575.69         25.7642
576.12        25.68863
576.56        26.04137
576.99        26.17657
577.42        26.14182
577.86        26.25838
578.29        26.38736
578.73        26.06481
579.16        25.99491
579.60        25.95786
580.03        25.82837
580.47        25.58508
580.90         25.5808
581.33        25.66509
581.77        25.42856
582.20        25.25779
582.64        25.13331
583.07        25.01806
583.51        24.89714
583.94        24.80858
584.37        24.71517
584.81        24.60946
585.24         24.5032
585.68        24.48117
586.11        24.20453
586.54        24.17712
586.98        24.24971
587.41        24.45451
587.85        23.92458
588.28        23.87522
588.71        23.82603
589.15        23.93779
589.58        23.81087
590.01        24.09358
590.45        24.11911
590.88        23.52619
591.31        23.42636
591.75        23.65981
592.18        23.76567
592.61        23.69696
593.05         24.0347
593.48        24.02937
593.91        23.86072
594.35        24.05201
594.78        24.35386
595.21        24.51888
595.65        24.56948
596.08        24.41189
596.51        24.77206
596.94        24.80398
597.38        25.11221
597.81         25.4844
598.24        25.39092
598.68         25.8917
599.11        26.24936
599.54        26.54937
599.97        26.59816
600.41        27.11902
600.84        27.42592
601.27        27.72801
601.70        28.10459
602.14        28.35713
602.57        28.98566
603.00        29.53982
603.43         29.9909
603.87        30.41896
604.30        30.57469
604.73        30.94582
605.16        31.69279
605.60        32.00105
606.03        32.64905
606.46        33.30238
606.89        33.46946
607.32        33.93429
607.76        34.59747
608.19        34.71975
608.62        35.05212
609.05        35.35903
609.48        35.75913
609.92        36.19181
610.35        36.59035
610.78        36.78252
611.21        36.95916
611.64        37.42363
612.07        37.70985
612.50        37.92785
612.94        38.18598
613.37        38.50717
613.80        38.88229
614.23        39.18023
614.66        39.52052
615.09         39.8292
615.52        40.17241
615.96        40.56837
616.39        40.54255
616.82        40.81434
617.25        41.21338
617.68        41.26389
618.11        41.52593
618.54        41.80295
618.97        42.08718
619.40         42.3228
619.84        42.69924
620.27        42.87031
620.70        42.99525
621.13         42.9089
621.56        43.30935
621.99         43.1865
622.42        43.02447
622.85        42.92474
623.28        43.30521
623.71        43.31945
624.14        42.95049
624.57        43.39455
625.00        43.80271
625.43        43.53152
625.86        43.51729
626.29        43.51218
626.72        43.06597
627.15        43.08948
627.58        42.82365
628.01        42.59816
628.44        42.39135
628.87        41.98971
629.30        42.22385
629.73        41.87534
630.16          41.261
630.59        41.14786
631.02        40.74032
631.45        40.36335
631.88        39.99137
632.31        39.65803
632.74        39.16449
633.17        38.87703
633.60        38.44913
634.03        37.98703
634.46        37.49977
634.89        37.00152
635.32         36.4991
635.75        35.99907
636.18        35.52502
636.61        35.07799
637.04        34.61601
637.47        34.15913
637.89        33.80552
638.32        33.51992
638.75        33.19387
639.18        32.81987
639.61        32.45431
640.04        32.11428
640.47        31.81012
640.90        31.54891
641.33        31.31719
641.76        31.09194
642.18        30.91259
642.61        30.65377
643.04        30.42457
643.47        30.22633
643.90         30.1188
644.33        30.11257
644.76        30.19054
645.18         30.3132
645.61        30.41062
646.04        30.46589
646.47        30.49876
646.90        30.54616
647.33        30.66456
647.75        30.87488
648.18        31.17299
648.61        31.52542
649.04        31.87865
649.47        32.22751
649.89        32.56907
650.32        32.94223
650.75        33.48016
651.18        34.14168
651.61        34.71392
652.03        35.15375
652.46        35.56432
652.89        36.05237
653.32        36.50657
653.74        37.14071
654.17        37.98287
654.60        38.50801
655.03        38.64355
655.46        39.35293
655.88        39.83501
656.31        41.19099
656.74        42.41381
657.16        42.27739
657.59        42.64211
658.02        42.42172
658.45        42.98585
658.87        43.65808
659.30        43.77438
659.73          43.624
660.15        44.33268
660.58        44.64193
661.01        45.20343
661.44        45.58883
661.86        45.81205
662.29          46.113
662.72        46.29586
663.14        46.50249
663.57         46.8223
664.00        47.22488
664.42        47.51874
664.85        47.69857
665.27        47.89028
665.70        48.10677
666.13         48.3115
666.55        48.51198
666.98        48.71641
667.41        48.93225
667.83         49.1635
668.26        49.40156
668.69        49.65235
669.11        49.88993
669.54        50.08187
669.96        50.23217
670.39        50.29702
670.82        50.33084
671.24        50.53799
671.67        50.87666
672.09        51.04035
672.52         51.0547
672.94        51.16352
673.37         51.3796
673.80        51.55689
674.22        51.68574
674.65        51.78311
675.07        51.86038
675.50        51.90145
675.92         51.9418
676.35        52.02864
676.77        52.17719
677.20        52.37927
677.62        52.60614
678.05        52.78493
678.47        52.88776
678.90        52.98125
679.32        53.11021
679.75        53.22494
680.17        53.30588
680.60        53.86644
681.02        53.93324
681.45        54.14009
681.87        54.20834
682.30        54.17583
682.72        54.11355
683.15        54.19372
683.57        54.43479
684.00        54.64031
684.42        54.80834
684.85        55.03115
685.27        55.28376
685.70        55.58026
686.12        55.83894
686.54         55.8148
686.97          55.601
687.39        55.54142
687.82         55.9481
688.24        56.00368
688.66        56.06016
689.09         56.1588
689.51        56.38081
689.94        56.55881
690.36        56.68563
690.78        56.74457
691.21        56.76281
691.63        56.89937
692.06        57.11534
692.48        57.14611
692.90        57.03043
693.33         57.0298
693.75        57.16278
694.17        57.31261
694.60        57.44653
695.02        57.54297
695.44         57.6104
695.87        57.75746
696.29         57.9757
696.71        58.15829
697.14        58.27806
697.56         58.3819
697.98         58.4638
698.41        58.56535
698.83        58.67691
699.25         58.7864
699.68         58.8891
700.10        59.04198
700.52         59.2397
700.94         59.4559
701.37          59.634
701.79        59.75818
702.21        59.81028
702.64        59.64714
703.06        59.62193
703.48        59.59358
703.90        59.68068
704.33        59.84248
704.75        60.04175
705.17        60.18842
705.59        60.25241
706.01         60.2437
706.44         60.2037
706.86        60.28904
707.28        60.34459
707.70        60.53746
708.12        60.77466
708.55        60.83949
708.97        60.77758
709.39        60.95054
709.81        61.30865
710.23        61.50524
710.66        61.50363
711.08        61.51548
711.50        61.55312
711.92        61.56906
712.34        61.57705
712.76        61.59491
713.19        61.61459
713.61        61.66285
714.03        61.72489
714.45        61.79625
714.87        61.88173
715.29         61.9888
715.71        62.11497
716.13         62.2565
716.56        62.37431
716.98        62.47119
717.40        62.52081
717.82        62.53003
718.24        62.53325
718.66        62.58929
719.08        62.71175
719.50        62.87985
719.92        63.05727
720.34        63.20018
720.76        63.29612
721.19        63.30785
721.61         63.2734
722.03        63.34129
722.45        63.47185
722.87        63.39377
723.29        63.17245
723.71        63.15129
724.13         63.3598
724.55        63.62302
724.97        63.87134
725.39        64.06152
725.81        64.16167
726.23        64.17757
726.65         64.1572
727.07        64.18161
727.49        64.27061
727.91        64.40063
728.33        64.52654
728.75        64.57401
729.17        64.53143
729.59        64.42612
730.01         64.2898
730.43        64.25459
730.85        64.35311
731.27        64.39124
731.69        64.31235
732.10        64.83366
732.52         64.6475
732.94        64.84116
733.36        64.99537
733.78        65.03024
734.20        64.93897
734.62        65.08545
735.04        64.49561
735.46        65.06453
735.88        65.59541
736.30        65.38664
736.72        65.18964
737.13        65.08399
737.55        65.34473
737.97        65.67867
738.39        65.98325
738.81        65.72229
739.23        65.27392
739.65        65.47205
740.06        66.20238
740.48        66.41874
740.90        66.04638
741.32        65.72204
741.74        65.49961
742.16         65.4394
742.57        65.57409
742.99        65.95214
743.41        66.39736
743.83        66.55271
744.25        66.41952
744.67        66.16325
745.08        65.97159
745.50        66.21184
745.92        66.80369
746.34        67.10606
746.75        67.04008
747.17        67.02728
747.59        67.05946
748.01        66.79429
748.42        66.35262
748.84        66.19572
749.26        66.33556
749.68        66.46683
750.09        66.54128
750.51        66.62687
750.93        66.69173
751.35        66.85547
751.76        67.12715
752.18        67.14309
752.60        66.81441
753.01          67.425
753.43         67.0691
753.85         67.0854
754.27        66.84791
754.68        67.55418
755.10        67.21002
755.52        67.41106
755.93        67.58691
756.35        67.75584
756.77        67.85984
757.18        67.99399
757.60        68.22461
758.02         68.1546
758.43        67.73905
758.85        68.39499
759.26        68.36068
759.68         67.6577
760.10        67.92432
760.51        67.17435
760.93        67.57465
761.34        67.60612
761.76         68.6084
762.18        68.80639
762.59        68.52638
763.01         68.3379
763.42        68.37388
763.84        68.41015
764.26        68.49852
764.67        68.49673
765.09        68.43753
765.50        68.77225
765.92        69.43621
766.33        68.86779
766.75        68.83606
767.16        68.46442
767.58        68.34282
768.00        68.51822
768.41        68.92413
768.83        68.99577
769.24        68.86346
769.66        68.84257
770.07        68.95776
770.49        68.89379
770.90        68.71855
771.32        68.79073
771.73        69.07873
772.15        69.22335
772.56        69.21468
772.97        69.25932
773.39        69.33239
773.80         69.3909
774.22        69.23422
774.63         69.4444
775.05        69.85292
775.46        70.03071
775.88         69.8969
776.29        69.78923
776.70        69.80473
777.12        69.59032
777.53        69.85938
777.95        70.02463
778.36        70.22654
778.77        70.33409
779.19        70.33438
779.60        70.27888
780.02        70.16177
780.43        70.10685
780.84        70.17233
781.26        70.00074
781.67        69.70128
782.09        70.24093
782.50        71.35357
782.91        70.88325
783.33        70.20607
783.74        69.98739
784.15        70.17236
784.57        70.38896
784.98        70.45506
785.39        70.46478
785.81        70.36732
786.22        70.86601
786.63        70.81311
787.04        70.98544
787.46        71.05233
787.87        71.09058
788.28        71.11043
788.70        71.11382
789.11         71.1031
789.52        71.08275
789.93        71.06441
790.35        71.06674
790.76        71.10048
791.17          71.096
791.58        71.08156
792.00         71.1123
792.41        71.20677
792.82        71.40884
793.23        71.67169
793.65        71.68509
794.06        71.54055
794.47        71.80428
794.88        72.37379
795.29         72.4055
795.71         72.3154
796.12        72.10208
796.53        71.95994
796.94        71.79985
797.35        71.69823
797.76        71.77371
798.18        71.96212
798.59        72.14206
799.00        72.31628
799.41        71.99258
799.82        72.21866
800.23        72.13746
800.64        72.07138
801.06        71.98338
801.47          71.921
801.88        71.86909
802.29        71.81595
802.70        71.76192
803.11        71.74284
803.52        71.78501
803.93        71.89427
804.34        72.16425
804.75        72.48061
805.17        72.45966
805.58        72.21915
805.99        72.13988
806.40        72.28382
806.81        72.69072
807.22        73.14096
807.63        72.97167
808.04        72.31171
808.45        72.08744
808.86        72.38472
809.27         72.6279
809.68        72.74157
810.09        72.87499
810.50        73.00026
810.91         73.0756
811.32        73.08601
811.73        73.02847
812.14        72.91265
812.55         72.7004
812.96         72.4726
813.37         72.4737
813.78         72.6846
814.19        72.83002
814.60        72.86318
815.01        72.92021
815.42        72.98949
815.83        72.95705
816.24        72.86497
816.65        72.87267
817.05        73.00692
817.46        73.16594
817.87        73.32716
818.28        73.41378
818.69        73.41301
819.10        73.36404
819.51        73.27052
819.92        73.18613
820.33        73.14562
820.74        72.98859
821.14        72.79266
821.55        73.07415
821.96        73.66806
822.37        73.71856
822.78        73.26422
823.19        73.16078
823.60        73.47008
824.00        73.69734
824.41        73.74006
824.82         73.7801
825.23        73.80917
825.64        73.78042
826.04         73.7561
826.45        73.80222
826.86        73.93758
827.27        74.14182
827.68        74.34377
828.08        74.44794
828.49        74.36142
828.90        74.16418
829.31        73.91906
829.72        73.73146
830.12        73.66361
830.53        73.64269
830.94        73.67255
831.35        73.72169
831.75        73.79289
832.16        73.84905
832.57        73.89181
832.97        73.88557
833.38         73.8161
833.79        73.69901
834.20        73.56067
834.60        73.43716
835.01        73.35687
835.42        73.31324
835.82        73.32938
836.23        73.36162
836.64        73.43041
837.04        73.56218
837.45        73.71393
837.86        73.91341
838.26        74.16127
838.67        74.41638
839.08         74.6591
839.48        74.84753
839.89        74.96349
840.29        75.01394
840.70        75.00582
841.11        74.95606
841.51        74.89964
841.92        74.80992
842.33         74.7181
842.73        74.66747
843.14        74.62202
843.54        74.59998
843.95        74.60667
844.35        74.66634
844.76        74.76144
845.17        74.88341
845.57        74.97995
845.98        74.92659
846.38        74.73009
846.79        74.40858
847.19        74.06349
847.60        73.81261
848.00        73.71959
848.41         73.7156
848.81        73.79965
849.22        73.88757
849.62        73.98138
850.03        74.07948
850.43        74.16148
850.84        74.11002
851.24        73.95969
851.65         73.6705
852.05        73.41242
852.46        73.38796
852.86         73.6347
853.27        74.08772
853.67        74.50286
854.07        74.72808
854.48        74.68929
854.88        74.48027
855.29        74.10895
855.69        73.80978
856.10        73.57632
856.50         73.4378
856.90        73.33595
857.31        73.20939
857.71        73.08427
858.12         72.9317
858.52        72.82006
858.92        72.71952
859.33        72.61559
859.73         72.5577
860.13        72.48994
860.54        72.34729
860.94        72.16232
861.34         71.9156
861.75        71.69612
862.15        71.70736
862.55        71.94389
862.96        72.36058
863.36         72.7618
863.76        72.81181
864.17        72.43433
864.57        71.74599
864.97        71.00452
865.38        70.60132
865.78        70.68659
866.18        71.14139
866.58        71.72284
866.99         72.0022
867.39        71.88182
867.79        71.46338
868.19        70.99294
868.60         70.7999
869.00        70.94964
869.40        71.36288
869.80        71.84647
870.21        72.06071
870.61        71.97494
871.01         71.6485
871.41        71.27024
871.81        71.09819
872.22        71.16447
872.62        71.41824
873.02        71.74459
873.42        71.92277
873.82        71.88654
874.22        71.73062
874.63        71.57103
875.03        71.54181
875.43        71.68105
875.83        71.91505
876.23        72.20542
876.63        72.49724
877.03        72.74452
877.44        72.94964
877.84        73.05119
878.24         72.9176
878.64        72.55293
879.04        72.02681
879.44        71.48435
879.84        71.12434
880.24        70.98806
880.64        71.02374
881.04        71.17046
881.44        71.31179
881.84        71.39743
882.24        71.45399
882.65        71.45437
883.05        71.45692
883.45         71.4393
883.85        71.39912
884.25        71.35133
884.65        71.33009
885.05        71.34024
885.45        71.35975
885.85        71.41286
886.25        71.53452
886.65         71.7187
887.05        71.96315
887.45        72.14905
887.85         72.0974
888.25        71.78203
888.65        71.24158
889.04        70.67299
889.44        70.44979
889.84        70.63454
890.24        71.13177
890.64        71.67033
891.04         71.8147
891.44        71.47989
891.84        70.81665
892.24        70.11188
892.64        69.81301
893.04         70.0298
893.44        70.61853
893.83        71.36986
894.23        71.88346
894.63        72.06746
895.03        72.02349
895.43        71.89306
895.83        71.90517
896.23        72.11275
896.63        72.41639
897.02        72.68987
897.42        72.79836
897.82        72.70532
898.22        72.49471
898.62        72.24778
899.01        72.10033
899.41        72.07784
899.81        72.13482
900.21        72.26786
900.61        72.47338
901.00        72.71075
901.40        72.99374
901.80        73.20829
902.20        73.18415
902.59        72.91531
902.99         72.4508
903.39        71.95489
903.79        71.69115
904.18        71.72722
904.58          71.987
904.98        72.36211
905.38        72.69798
905.77        72.92507
906.17        73.07793
906.57        73.15233
906.96        73.16391
907.36        73.09494
907.76        72.95919
908.15        72.74777
908.55        72.38548
908.95        71.92621
909.34         71.4023
909.74        70.99274
910.14        70.89908
910.53        71.15664
910.93        71.67674
911.33        72.29177
911.72        72.70682
912.12        72.81033
912.52        72.70366
912.91        72.47034
913.31        72.26743
913.70        72.14581
914.10        72.04953
914.49        72.03191
914.89        72.12893
915.29        72.35518
915.68        72.69463
916.08        73.06178
916.47        73.31003
916.87        73.41051
917.26        73.36285
917.66        73.23146
918.05        73.09388
918.45        72.96799
918.84        72.86395
919.24        72.72107
919.64        72.52356
920.03         72.3014
920.42         72.0885
920.82        71.94292
921.21        71.93053
921.61        72.04935
922.00        72.27173
922.40        72.58575
922.79        73.04272
923.19        73.56266
923.58        74.13536
923.98        74.55452
924.37        74.58064
924.77        74.17314
925.16        73.39651
925.55        72.50521
925.95        71.94682
926.34        71.86014
926.74        72.12523
927.13        72.55988
927.52        72.75403
927.92        72.62299
928.31        72.27679
928.70        71.89225
929.10         71.7262
929.49        71.83479
929.89        72.08775
930.28        72.39951
930.67        72.51386
931.07        72.35786
931.46        72.06905
931.85        71.72141
932.24        71.45731
932.64        71.32289
933.03        71.24748
933.42        71.28333
933.82        71.51324
934.21        71.92809
934.60        72.52747
934.99        73.09302
935.39         73.2319
935.78        72.90193
936.17          72.185
936.56        71.43349
936.96        71.25156
937.35        71.81594
937.74        72.88248
938.13          74.038
938.53        74.68806
938.92        74.70065
939.31         74.2416
939.70        73.57222
940.09        73.15306
940.49        73.11094
940.88        73.32998
941.27        73.60735
941.66         73.6497
942.05        73.38636
942.44        72.93974
942.84        72.47028
943.23        72.15704
943.62        72.08945
944.01        72.20612
944.40        72.40353
944.79        72.50937
945.18        72.46316
945.57        72.30379
945.97        72.10442
946.36        72.05025
946.75        72.13374
947.14        72.29329
947.53        72.40336
947.92        72.25729
948.31        71.82692
948.70        71.22327
949.09        70.59027
949.48         70.1396
949.87        69.93532
950.26        69.90601
950.65        70.03796
951.04        70.30374
951.43        70.66362
951.82          71.128
952.21         71.5538
952.60        71.69508
952.99         71.4994
953.38        71.01842
953.77        70.46919
954.16        70.20187
954.55        70.28378
954.94        70.61076
955.33        70.97482
955.72        71.02386
956.11        70.66059
956.50        69.99917
956.89        69.21618
957.28         68.6132
957.66        68.34304
958.05        68.33073
958.44        68.48141
958.83        68.63723
959.22        68.72298
959.61        68.72599
960.00        68.75858
960.39        68.99361
960.78        69.43764
961.16        70.08151
961.55        70.52882
961.94        70.22321
962.33          69.117
962.72        67.47439
963.11        65.92701
963.49        65.39406
963.88          66.051
964.27         67.6146
964.66        69.57631
965.04        71.00111
965.43        71.44245
965.82        71.18903
966.21        70.52168
966.60        69.89369
966.98        69.47782
967.37        69.09647
967.76        68.74993
968.15        68.45305
968.53        68.24671
968.92        68.22633
969.31        68.39123
969.69        68.66508
970.08        69.02174
970.47         69.4605
970.86        70.04164
971.24        70.88892
971.63         71.8859
972.02        72.91773
972.40        73.85153
972.79        74.40012
973.17        74.61208
973.56         74.5076
973.95        74.18809
974.33        73.80064
974.72        73.41008
975.11        72.97054
975.49        72.52013
975.88        72.14942
976.26        71.88107
976.65        71.71822
977.04        71.52678
977.42        71.03477
977.81        70.15276
978.19        68.95061
978.58        67.82212
978.96        67.38642
979.35        67.78226
979.74        68.86657
980.12        70.22779
980.51        70.97224
980.89        70.98599
981.28        70.40095
981.66        69.65553
982.05        69.59498
982.43        70.41096
982.82        71.73964
983.20        73.15009
983.59        73.83779
983.97        73.70781
984.35        72.98984
984.74        71.94603
985.12        71.02644
985.51        70.45307
985.89        70.14601
986.28         70.1345
986.66        70.55046
987.04        71.29605
987.43        72.25446
987.81        73.23782
988.20        73.79262
988.58        73.81661
988.96        73.45137
989.35         72.6034
989.73        71.22485
990.12        69.31514
990.50        66.76559
990.88        64.26945
991.27         63.4231
991.65        64.66965
992.03        67.50629
992.42        70.36933
992.80        71.61264
993.18        70.84805
993.56        68.37152
993.95        65.06257
994.33        63.19877
994.71        63.88223
995.10        66.04475
995.48        68.46735
995.86        69.79771
996.24        69.90702
996.63        69.23732
997.01        68.21416
997.39        67.63923
997.77        67.87073
998.15        68.51663
998.54        69.26418
998.92        69.77944
999.30         69.9638
999.68        70.07178
1000.06        70.02205
1000.45         69.5724
1000.83        68.82276
1001.21        67.74181
1001.59        66.91904
1001.97        67.23267
1002.35        68.86959
1002.73        71.81054
1003.12        75.03616
1003.50        76.20867
1003.88        74.70091
1004.26         71.2317
1004.64         67.7089
1005.02          66.557
1005.40         68.0694
1005.78        71.59969
1006.16        75.46384
1006.54        76.61292
1006.92        74.22518
1007.30         69.2643
1007.69        63.84151
1008.07        61.40696
1008.45        62.90326
1008.83        67.07835
1009.21        71.99232
1009.59        74.90779
1009.97        75.08172
1010.35        73.22361
1010.73        70.04715
1011.11        67.50877
1011.49        66.73471
1011.86        67.08665
1012.24        68.04867
1012.62        69.20699
1013.00        70.30054
1013.38        71.67696
1013.76         72.7652
1014.14        72.44668
1014.52        70.54473
1014.90        67.21413
1015.28        63.63187
1015.66        62.25945
1016.04        63.81782
1016.41        67.58908
1016.79        71.86272
1017.17        74.45718
1017.55        74.81103
1017.93        73.64417
1018.31        71.64279
1018.69        69.84522
1019.06        68.69657
1019.44        67.87537
1019.82        67.42616
1020.20        67.55131
1020.58        68.15189
1020.95        69.02357
1021.33        69.95486
1021.71        70.58755
1022.09        70.78507
1022.46        70.60349
1022.84        69.65849
1023.22        67.12386
1023.60         62.7943
1023.97         56.4627
1024.35        49.56086
1024.73        45.14986
