SpectraSmart Spectrum 2.9.0.0
--------- Device Information -----------
Spectrum Name :  反射率_0
Saving Time :  2024/04/27 22:28:23
Spectro-Module Model Name : SE2030-DUVN
Spectro-Module Serial Number : OS361AC55029948
Wavelength Start : 200
Wavelength End : 1025
Wavelength Unit : Wavelength(nm)
Spectrum Unit : Reflectance(%)
-----------Spectrum Setting ------------
Integration Time : 20ms
Average : 10
Boxcar : 0
Background removal :  enabled
linearity correction :  enabled
SC :  disabled
Intensity correction :  disabled
DWT denoise :  enabled
savitzky-golay :  disabled
FFT :  disabled
Running average :  disabled
Kalman :  disabled
High pass :  disabled
---------------BEGIN--------------------
Wavelength(nm)             Reflectance(%)
200.29               0
200.75       -8.735084
201.21         26.0912
201.67        55.36899
202.13         65.2047
202.58        61.94275
203.04        52.98575
203.50        43.85785
203.96        42.08786
204.42        47.92439
204.88        56.77867
205.34        65.76507
205.80        73.64472
206.26        81.12467
206.72        90.25937
207.18        101.7699
207.64        108.6715
208.10        105.2807
208.55        97.33279
209.01        89.73417
209.47        83.12566
209.93        74.80807
210.39        57.37789
210.85        9.306894
211.31       -40.79339
211.77        33.86845
212.23        78.98403
212.69        94.19281
213.14          98.588
213.60        97.55639
214.06        91.96513
214.52        79.91462
214.98        67.50681
215.44        65.43652
215.90        69.05087
216.36        73.14353
216.81        75.23321
217.27        75.70608
217.73        76.15157
218.19        76.16387
218.65        74.71651
219.11         71.7752
219.57        67.00154
220.02        62.71302
220.48        65.22921
220.94        74.78769
221.40        87.71057
221.86        98.39908
222.32        101.8238
222.77        98.92036
223.23        92.71562
223.69        86.42366
224.15         83.2803
224.61        83.53505
225.06        85.87867
225.52         89.2747
225.98        91.06236
226.44        90.59786
226.90        89.17441
227.36        87.72958
227.81        86.80503
228.27        86.50807
228.73        86.40838
229.19        86.22095
229.65        85.56511
230.10         84.2832
230.56        82.83543
231.02        81.48834
231.48        80.64151
231.93        80.26385
232.39        80.38446
232.85        80.67468
233.31        80.79888
233.77        80.70619
234.22        80.53611
234.68        80.40944
235.14        80.51598
235.60        80.89268
236.05        81.45243
236.51        82.16226
236.97        82.93802
237.43        83.62473
237.88          84.355
238.34        84.67857
238.80        84.53367
239.26        83.82997
239.71        82.39182
240.17          79.887
240.63        78.04942
241.08        78.79356
241.54        80.98737
242.00        82.97817
242.46        83.84888
242.91        83.78954
243.37        82.52872
243.83        79.35138
244.28        75.08894
244.74        74.04341
245.20        76.60224
245.66        78.74609
246.11         78.1584
246.57        74.60703
247.03        67.81638
247.48        56.69682
247.94        45.55796
248.40        42.26178
248.85        45.44775
249.31        52.45967
249.77        60.74823
250.22         68.3994
250.68        74.88136
251.14        79.95417
251.59        83.83224
252.05         87.2616
252.51        90.69084
252.96        92.88701
253.42         90.9278
253.88          84.481
254.33        76.87946
254.79         71.7331
255.25        69.56451
255.70        69.29181
256.16        70.57337
256.62        72.42596
257.07        73.90361
257.53        75.17134
257.99        75.97583
258.44         76.2173
258.90        76.32074
259.35        75.93598
259.81        75.52035
260.27        74.80941
260.72        73.58372
261.18        72.37063
261.63        71.00805
262.09        69.95361
262.55        69.20464
263.00        68.63754
263.46        68.34798
263.91        68.12403
264.37        68.11301
264.83        68.17545
265.28        68.23407
265.74        68.26665
266.19        67.95325
266.65        67.38525
267.11        66.56632
267.56        65.66151
268.02        65.06194
268.47        64.76979
268.93        64.69326
269.38        64.58807
269.84        64.11887
270.30         63.2081
270.75        61.98692
271.21        60.64793
271.66        59.41179
272.12        58.39386
272.57        57.48491
273.03        56.70072
273.48        55.95729
273.94          55.285
274.39        54.63865
274.85         54.0451
275.31        53.40239
275.76         52.6652
276.22        51.91477
276.67         51.1007
277.13        50.31833
277.58        49.51616
278.04        48.75217
278.49        47.98626
278.95        47.32455
279.40        46.69837
279.86        46.16206
280.31        45.61276
280.77        45.06652
281.22        44.45977
281.68        43.87538
282.13        43.27806
282.59         42.7185
283.04        42.16103
283.50        41.62104
283.95        41.09508
284.41        40.65584
284.86        40.28079
285.32        39.98833
285.77        39.68932
286.22        39.31313
286.68        38.87058
287.13         38.3534
287.59        37.86637
288.04        37.47203
288.50        37.22583
288.95        37.05949
289.41        36.95171
289.86        36.80502
290.32        36.62243
290.77        36.41085
291.22         36.2022
291.68        36.03297
292.13        35.90011
292.59        35.81242
293.04        35.75887
293.50        35.75988
293.95        35.80735
294.40        35.91514
294.86        36.08323
295.31        36.29602
295.77        36.55569
296.22        36.84148
296.68        37.16647
297.13         37.5266
297.58        37.91547
298.04         38.3244
298.49        38.70287
298.95        39.00425
299.40        39.21463
299.85        39.35366
300.31        39.49576
300.76        39.71892
301.21        40.04839
301.67        40.46289
302.12        40.86358
302.58        41.15458
303.03        41.29424
303.48        41.33256
303.94        41.36622
304.39        41.48478
304.84         41.7221
305.30         42.0393
305.75        42.33434
306.20        42.50544
306.66        42.54105
307.11        42.45008
307.57        42.31387
308.02        42.18281
308.47        42.09858
308.93        42.04846
309.38         41.9861
309.83         41.8748
310.29        41.71726
310.74        41.51629
311.19        41.31662
311.65           41.18
312.10        41.09851
312.55        41.05564
313.00        41.01406
313.46         40.9179
313.91        40.74883
314.36        40.53307
314.82        40.28371
315.27        40.02061
315.72        39.75783
316.18        39.49254
316.63        39.24414
317.08          39.066
317.53        38.96119
317.99        38.91409
318.44        38.86726
318.89        38.70846
319.35        38.41898
319.80        38.03708
320.25        37.64278
320.70        37.37292
321.16        37.25155
321.61        37.23855
322.06        37.26289
322.51        37.21254
322.97        37.04601
323.42        36.81237
323.87        36.52508
324.32        36.21687
324.78        35.90493
325.23        35.58516
325.68        35.28733
326.13        35.07148
326.59        34.93458
327.04        34.88942
327.49        34.86649
327.94        34.75481
328.39        34.52676
328.85        34.20333
329.30        33.86193
329.75        33.61926
330.20          33.514
330.66        33.49755
331.11        33.53455
331.56        33.51302
332.01         33.4006
332.46        33.22908
332.92        33.02524
333.37        32.87229
333.82        32.78307
334.27        32.73018
334.72        32.69815
335.17         32.6651
335.63        32.61255
336.08        32.57191
336.53        32.51811
336.98        32.42109
337.43        32.28156
337.88        32.10713
338.34        31.94225
338.79        31.86985
339.24        31.90291
339.69        32.01404
340.14        32.14347
340.59        32.19292
341.05        32.13637
341.50         32.0116
341.95        31.84879
342.40        31.70613
342.85        31.60425
343.30        31.51991
343.75        31.45995
344.20        31.43614
344.66        31.44797
345.11        31.49575
345.56        31.53696
346.01        31.49747
346.46        31.36762
346.91        31.16764
347.36        30.97303
347.81         30.9002
348.26        30.97154
348.72        31.15411
349.17        31.35962
349.62         31.4474
350.07        31.38173
350.52        31.19633
350.97        30.98837
351.42         30.9139
351.87        31.00282
352.32        31.20356
352.77        31.39441
353.22        31.39253
353.67        31.16525
354.13        30.78862
354.58        30.37002
355.03         30.1319
355.48        30.12559
355.93        30.28166
356.38        30.47573
356.83        30.51345
357.28        30.34979
357.73        30.05571
358.18        29.72323
358.63        29.49241
359.08        29.39922
359.53        29.38807
359.98        29.41131
360.43        29.40012
360.88        29.32878
361.33        29.22024
361.78        29.06756
362.23         28.8898
362.68          28.702
363.13        28.43841
363.58        28.11119
364.03         28.0764
364.48        27.80602
364.93        27.71264
365.38        27.61695
365.83         27.4963
366.28        27.33728
366.73        27.16492
367.18        26.97208
367.63        26.73377
368.08        26.45735
368.53        26.14662
368.98        25.86697
369.43         25.7227
369.88        25.73076
370.33        25.86508
370.78        26.02093
371.23        26.02695
371.68        25.83957
372.13        25.49645
372.58        25.11766
373.03        24.90351
373.48        24.90218
373.93        25.05873
374.38        25.23352
374.83        25.20621
375.28        24.93435
375.72        24.48316
376.17        24.03167
376.62         23.8153
377.07        23.87754
377.52        24.12029
377.97        24.39271
378.42        24.46301
378.87        24.27804
379.32        23.93218
379.77        23.51527
380.22        23.15716
380.67        22.90431
381.11        22.71301
381.56        22.59381
382.01        22.56682
382.46        22.62166
382.91        22.75713
383.36        22.89763
383.81        22.92034
384.26        22.79918
384.71        22.55778
385.15        22.27219
385.60        22.10288
386.05        22.07336
386.50        22.14572
386.95        22.23537
387.40        22.20852
387.85        22.04771
388.29         21.7976
388.74        21.57248
389.19        21.48074
389.64        21.53331
390.09        21.66666
390.54        21.81727
390.98        21.88203
391.43        21.84214
391.88        21.74257
392.33        21.57605
392.78          21.366
393.23        21.14445
393.67        20.81708
394.12        20.49196
394.57        20.56459
395.02        20.67964
395.47         20.7653
395.91        20.69772
396.36        20.68299
396.81        20.71533
397.26        20.66264
397.71        20.54172
398.15        20.45649
398.60        20.44147
399.05        20.38429
399.50        20.32065
399.95        20.43558
400.39        20.66306
400.84        20.69021
401.29        20.51551
401.74        20.34153
402.18        20.22956
402.63        20.21459
403.08        20.26466
403.53        20.21437
403.97        20.06012
404.42        19.93503
404.87        19.85602
405.32        19.80687
405.76        19.78808
406.21        19.75002
406.66        19.71011
407.11        19.79048
407.55        19.93549
408.00        19.93257
408.45        19.76805
408.90         19.4922
409.34        19.20916
409.79        19.17309
410.24        19.34937
410.68        19.43225
411.13         19.4002
411.58        19.45025
412.03        19.58118
412.47        19.68337
412.92        19.72987
413.37        19.75183
413.81        19.73547
414.26        19.67666
414.71         19.5759
415.15        19.44127
415.60        19.29269
416.05         19.1788
416.49        19.12043
416.94        19.10592
417.39        19.12749
417.83           19.17
418.28        19.21655
418.73         19.2595
419.17        19.29263
419.62        19.30924
420.07        19.31478
420.51        19.32071
420.96        19.30751
421.41        19.27009
421.85        19.20848
422.30        19.03938
422.74        18.85816
423.19        19.04428
423.64        19.51854
424.08        19.75531
424.53        19.65112
424.98        19.60007
425.42        19.61412
425.87        19.32542
426.31        18.87285
426.76        18.87713
427.21        19.25212
427.65        19.28651
428.10        19.00357
428.54        18.92328
428.99        19.04748
429.44        19.27418
429.88        19.44937
430.33        19.09898
430.77        18.44061
431.22        18.30139
431.66        18.68171
432.11        19.01923
432.56        19.21849
433.00        19.40838
433.45        19.39209
433.89         19.0798
434.34        18.79806
434.78        17.80058
435.23        18.38722
435.67        18.90702
436.12        19.13416
436.57         19.1932
437.01        18.95569
437.46        18.84587
437.90        18.96865
438.35         19.2018
438.79         18.9211
439.24         18.8633
439.68        18.86736
440.13         18.8796
440.57        18.88071
441.02        19.01393
441.46        19.22193
441.91        19.06759
442.35        18.69314
442.80        18.90602
443.24        19.53646
443.69        19.48768
444.13        18.82963
444.58        18.56131
445.02        18.70049
445.47          18.737
445.91        18.63985
446.36        18.62001
446.80        18.66666
447.24        18.71077
447.69         18.7527
448.13        18.83879
448.58        18.93992
449.02         18.9546
449.47        18.89662
449.91        18.87428
450.36        18.89924
450.80        18.90225
451.25        18.89315
451.69        18.91679
452.13        18.96635
452.58        19.00927
453.02        19.02595
453.47        18.99543
453.91        18.91424
454.36        18.82714
454.80        18.72301
455.24        18.56429
455.69        18.40506
456.13        18.27233
456.58        18.22095
457.02        18.39966
457.46        18.69872
457.91        18.77471
458.35        18.68414
458.79        18.63911
459.24        18.66573
459.68        18.60183
460.13        18.49478
460.57         18.3919
461.01        18.39103
461.46        18.49115
461.90        18.55991
462.34        18.58944
462.79        18.84885
463.23        18.84678
463.68        18.71617
464.12        18.62347
464.56        18.60974
465.01        18.70396
465.45        18.80476
465.89        18.75474
466.34        18.60961
466.78        18.47739
467.22        18.37939
467.67        18.73606
468.11        18.71354
468.55        18.76907
468.99        18.66897
469.44        18.63046
469.88        18.65358
470.32        18.60311
470.77        18.50783
471.21        18.47393
471.65         18.5163
472.10        18.60724
472.54        18.70196
472.98        18.75897
473.42        18.77139
473.87        18.70238
474.31        18.59734
474.75        18.69793
475.20        18.94867
475.64        18.97967
476.08        18.80101
476.52        18.79054
476.97        18.97229
477.41        18.96388
477.85        18.94078
478.29        19.14909
478.74        19.10049
479.18        19.01702
479.62        19.37366
480.06        19.45091
480.50        19.44929
480.95        19.36593
481.39        19.21772
481.83        19.44649
482.27        19.47889
482.72        19.45795
483.16        19.78023
483.60        19.84903
484.04        19.79371
484.48        19.75024
484.93        19.94533
485.37        19.82218
485.81        20.13013
486.25        20.97087
486.69        20.17668
487.14        19.61852
487.58        21.17105
488.02        20.95499
488.46         20.8899
488.90        21.25974
489.34        20.63598
489.79        20.45031
490.23        20.97388
490.67        21.31061
491.11        21.57412
491.55        21.57994
491.99        21.42196
492.43        21.46903
492.88        21.73887
493.32        21.95584
493.76         22.0824
494.20        22.25677
494.64        22.48879
495.08        22.66494
495.52        22.78216
495.96        23.04415
496.41        23.40988
496.85        23.28887
497.29        22.85471
497.73        22.97831
498.17        23.57154
498.61        23.88216
499.05        23.80949
499.49        23.74822
499.93        23.77261
500.37        23.82753
500.82        23.91515
501.26        24.08537
501.70        24.35033
502.14        24.19944
502.58        24.49919
503.02        24.61311
503.46        24.69325
503.90        24.76783
504.34        24.82505
504.78        24.92564
505.22        25.05924
505.66        25.16465
506.10        25.23927
506.54        25.34817
506.98          25.496
507.42        25.54361
507.86        25.67815
508.30         25.7194
508.74        25.72745
509.18        25.70444
509.62        25.68227
510.06        25.70879
510.50        25.79121
510.94        25.91383
511.38        26.04708
511.82        26.14284
512.26        26.18706
512.70        26.19756
513.14        26.18622
513.58        26.16219
514.02          26.135
514.46        26.12064
514.90        26.13807
515.34        26.12539
515.78        26.23518
516.22        26.33802
516.66        26.45718
517.10        26.55265
517.54        26.61251
517.98        26.64067
518.42        26.64201
518.86        26.63163
519.30        26.61534
519.74        26.59039
520.18        26.55746
520.62        26.51719
521.06        26.47313
521.50        26.43114
521.93        26.39931
522.37        26.37906
522.81        26.37279
523.25        26.37281
523.69        26.37502
524.13        26.37375
524.57        26.36345
525.01        26.34438
525.45        26.30282
525.89        26.21765
526.32        26.08703
526.76        25.93047
527.20        25.77456
527.64        25.66536
528.08        25.61345
528.52        25.60215
528.96        25.61495
529.40        25.62392
529.83         25.6156
530.27          25.601
530.71        25.56662
531.15        25.49359
531.59        25.38382
532.03        25.24302
532.46        25.10319
532.90        25.03013
533.34         25.0333
533.78        25.09719
534.22        25.18188
534.66        25.22462
535.09         25.2081
535.53        25.15438
535.97        25.09366
536.41        25.07894
536.85        25.12199
537.28        25.20605
537.72        25.29818
538.16        25.34258
538.60        25.33072
539.04        25.29138
539.47        25.25247
539.91        25.27047
540.35        25.35013
540.79        25.47478
541.22        25.62079
541.66        25.75268
542.10        25.85626
542.54        25.94481
542.97         26.0162
543.41        26.08143
543.85        26.14416
544.29        26.20598
544.72        26.27806
545.16        26.39756
545.60        26.56123
546.04        26.75601
546.47        26.96768
546.91        27.16729
547.35        27.34007
547.79        27.50517
548.22        27.64671
548.66         27.7334
549.10         27.7868
549.53        27.91386
549.97        28.11844
550.41        28.31019
550.84        28.48373
551.28         28.6999
551.72        28.93763
552.15        29.12766
552.59        29.26636
553.03        29.36159
553.46         29.4355
553.90        29.54598
554.34        29.69915
554.77        29.89169
555.21         30.0845
555.65         30.2161
556.08        30.24634
556.52        30.26476
556.96         30.2999
557.39        30.43903
557.83         30.6673
558.27        30.82866
558.70        30.90456
559.14        30.98178
559.57        31.04894
560.01        31.08988
560.45        31.10263
560.88        31.06672
561.32        31.05643
561.75        31.14748
562.19        31.33753
562.63        31.60475
563.06        31.86074
563.50        31.86785
563.93        31.69077
564.37        31.71272
564.80        31.94474
565.24         32.1932
565.68        32.39818
566.11        32.54254
566.55        32.61916
566.98        32.65501
567.42        32.68102
567.85        32.67069
568.29        32.69308
568.72        32.79319
569.16         32.9615
569.60        33.20314
570.03         33.5297
570.47        33.56058
570.90         33.6855
571.34        34.29218
571.77        34.34503
572.21         34.3383
572.64         34.6545
573.08        34.68333
573.51        34.85053
573.95         34.9903
574.38        35.08501
574.82        35.24976
575.25        35.19039
575.69        35.06824
576.12        35.08534
576.56        35.50241
576.99        35.52321
577.42        35.55313
577.86        35.53527
578.29         35.7949
578.73        35.29353
579.16         35.2582
579.60        35.27407
580.03        35.22863
580.47        35.11008
580.90        34.84998
581.33        34.98906
581.77         35.0132
582.20        34.54822
582.64         34.3316
583.07        34.50326
583.51        34.46579
583.94        34.38797
584.37        34.21296
584.81         33.9874
585.24        33.89528
585.68        34.01051
586.11        33.55748
586.54        33.56877
586.98        33.53406
587.41        33.62288
587.85        33.27098
588.28        33.24094
588.71        33.32955
589.15        33.51705
589.58        32.89758
590.01        33.20086
590.45        33.37166
590.88        33.01654
591.31        33.09591
591.75        33.33362
592.18        33.25036
592.61        32.87651
593.05        33.47826
593.48        33.36666
593.91        33.32174
594.35        33.15409
594.78        33.40182
595.21        33.55474
595.65        33.73261
596.08        33.71828
596.51        34.22853
596.94        34.10492
597.38        34.44836
597.81        34.98152
598.24        34.79277
598.68        35.32093
599.11        35.67828
599.54        35.85523
599.97         35.8629
600.41        36.70487
600.84        37.06522
601.27          37.246
601.70        37.55334
602.14        37.66959
602.57        38.31524
603.00        38.88419
603.43        39.35531
603.87        39.82569
604.30        39.93293
604.73        40.29739
605.16        41.16142
605.60        41.45857
606.03        42.11879
606.46        42.71013
606.89        42.85304
607.32        43.14901
607.76        43.85227
608.19        43.92803
608.62         44.3157
609.05         44.6611
609.48        45.06828
609.92        45.50606
610.35        45.59765
610.78        46.02533
611.21        46.06918
611.64        46.71349
612.07        47.02893
612.50        47.22443
612.94        47.52807
613.37        47.98698
613.80        47.98454
614.23        48.39046
614.66        48.67233
615.09        49.03918
615.52        49.43813
615.96        49.88309
616.39        49.85049
616.82        50.19703
617.25        50.60684
617.68        50.60637
618.11        50.85346
618.54        51.15025
618.97        51.58072
619.40        52.05379
619.84        52.31381
620.27         52.4703
620.70        52.41467
621.13        52.25674
621.56        52.48212
621.99        52.78222
622.42        52.90878
622.85        52.91346
623.28        53.35406
623.71         53.4953
624.14        52.87371
624.57        52.97569
625.00        53.24127
625.43        52.90051
625.86        52.91358
626.29        52.93051
626.72        52.67893
627.15        52.61848
627.58        52.45531
628.01         52.4309
628.44        51.95752
628.87        51.77835
629.30        52.00075
629.73        51.46236
630.16        50.84277
630.59        50.77091
631.02        50.47712
631.45        50.21113
631.88        49.91159
632.31        49.59919
632.74        49.04391
633.17        48.73559
633.60        48.28158
634.03        47.82841
634.46        47.37066
634.89        46.91175
635.32        46.43739
635.75        45.94709
636.18        45.48093
636.61        45.03808
637.04        44.56107
637.47        44.07621
637.89        43.70505
638.32        43.42027
638.75        43.10922
639.18        42.76552
639.61        42.45827
640.04        42.17385
640.47        41.86742
640.90        41.53981
641.33        41.18993
641.76        40.84263
642.18        40.64145
642.61        40.43706
643.04        40.33823
643.47        40.28169
643.90        40.24067
644.33        40.20311
644.76        40.18505
645.18        40.17593
645.61        40.15174
646.04        40.11502
646.47        40.06546
646.90        40.06162
647.33        40.19651
647.75        40.49456
648.18        40.94681
648.61        41.45129
649.04        41.87033
649.47        42.18696
649.89        42.33358
650.32        42.44202
650.75        43.02082
651.18        43.95605
651.61        44.46445
652.03         44.5055
652.46         44.7714
652.89        45.42073
653.32        45.82454
653.74        46.14181
654.17        47.52391
654.60        47.47809
655.03        47.69876
655.46        48.71703
655.88        49.35852
656.31        49.87419
656.74         50.9152
657.16        50.77369
657.59        51.22231
658.02         51.1554
658.45        51.83447
658.87        52.42413
659.30        52.85293
659.73         52.7607
660.15        53.07402
660.58        53.62465
661.01        53.97501
661.44        54.12316
661.86        54.33723
662.29         54.6334
662.72          54.832
663.14        54.98381
663.57        55.27935
664.00        55.68722
664.42        55.98221
664.85        56.15988
665.27        56.34652
665.70        56.55559
666.13        56.75748
666.55        56.96084
666.98        57.16758
667.41        57.38905
667.83        57.63572
668.26        57.89901
668.69        58.18878
669.11        58.46721
669.54        58.67762
669.96        58.81894
670.39        58.86113
670.82        58.88773
671.24        59.10866
671.67        59.50028
672.09         59.8404
672.52         60.0808
672.94        60.22176
673.37        60.29252
673.80        60.37278
674.22         60.4981
674.65        60.59415
675.07        60.68914
675.50          60.839
675.92        61.03426
676.35        61.20388
676.77        61.34415
677.20        61.48006
677.62        61.62919
678.05        61.79715
678.47        61.98759
678.90        62.20407
679.32        62.43116
679.75         62.6608
680.17        62.88195
680.60        63.09558
681.02        63.29313
681.45        63.44444
681.87        63.55694
682.30        63.62503
682.72         63.6721
683.15        63.75082
683.57        63.87014
684.00        63.93676
684.42        63.98039
684.85        64.10746
685.27        64.30923
685.70        64.56207
686.12        64.80909
686.54        64.93372
686.97        64.94187
687.39        65.02857
687.82        65.20028
688.24        65.18688
688.66        65.30643
689.09        65.35925
689.51        65.46357
689.94         65.6174
690.36        65.80767
690.78        65.92718
691.21        65.97535
691.63        66.06361
692.06        66.18401
692.48        66.21545
692.90         66.1836
693.33        66.20904
693.75         66.3075
694.17        66.42923
694.60        66.56979
695.02        66.75405
695.44        66.96896
695.87        67.23769
696.29        67.52118
696.71        67.72089
697.14        67.81867
697.56        67.90194
697.98         67.9865
698.41        68.10844
698.83        68.26357
699.25        68.46931
699.68        68.68357
700.10        68.88412
700.52        69.04468
700.94        69.17468
701.37        69.26308
701.79        69.32986
702.21        69.36382
702.64        69.37834
703.06        69.38113
703.48        69.40632
703.90         69.4729
704.33        69.57423
704.75        69.71358
705.17        69.86993
705.59        70.03072
706.01        70.16631
706.44        70.29247
706.86        70.54256
707.28        70.70946
707.70        70.99575
708.12        71.27762
708.55        71.29214
708.97        71.09366
709.39         71.0796
709.81        71.26551
710.23        71.34784
710.66        71.32481
711.08        71.41856
711.50        71.59538
711.92        71.72799
712.34        71.81802
712.76         71.8699
713.19        71.90547
713.61        72.10934
714.03        72.48817
714.45        72.59813
714.87        73.06175
715.29        73.23559
715.71        73.30132
716.13        73.27351
716.56        73.18071
716.98        73.12835
717.40        73.11954
717.82        73.16922
718.24        73.28152
718.66        73.35637
719.08        73.55122
719.50        73.72791
719.92        73.92369
720.34        74.11153
720.76        74.27766
721.19        74.40882
721.61        74.49643
722.03        74.50342
722.45        74.43226
722.87        74.30228
723.29        74.16465
723.71        74.10079
724.13        74.13742
724.55        74.25844
724.97        74.43728
725.39        74.62342
725.81        74.79288
726.23        74.95154
726.65        75.09729
727.07        75.23071
727.49        75.35095
727.91        75.45056
728.33        75.52345
728.75        75.56486
729.17        75.57854
729.59        75.57401
730.01        75.56724
730.43        75.58139
730.85        75.62249
731.27        75.68082
731.69        75.75625
732.10        75.85542
732.52        75.96748
732.94        76.09922
733.36        76.21101
733.78        76.25993
734.20        76.24821
734.62        76.20045
735.04        75.95731
735.46         76.2048
735.88        76.28819
736.30        76.38998
736.72        76.36601
737.13        76.43322
737.55        76.58076
737.97        76.90261
738.39        77.28188
738.81        77.20023
739.23        76.75241
739.65        76.73714
740.06         77.0864
740.48        77.15643
740.90        76.90412
741.32        76.79411
741.74        76.77668
742.16        76.87133
742.57        77.06025
742.99        77.34805
743.41        77.65858
743.83        77.85674
744.25        77.91275
744.67        77.84245
745.08         77.7498
745.50        77.77248
745.92        77.95923
746.34        78.25986
746.75        78.55669
747.17        78.67685
747.59        78.58879
748.01        78.29679
748.42        77.94315
748.84        77.88261
749.26         78.1015
749.68         78.2303
750.09        78.22417
750.51        78.26726
750.93        78.35932
751.35        78.47166
751.76        78.58112
752.18        78.59886
752.60        78.52522
753.01        78.42895
753.43         78.3379
753.85        78.30894
754.27        78.36538
754.68        78.50829
755.10        78.69437
755.52          78.844
755.93        78.93719
756.35        78.98633
756.77         79.0023
757.18        79.11633
757.60        79.39833
758.02        79.53376
758.43         79.3255
758.85        79.95474
759.26        79.74021
759.68        78.84047
760.10        79.16385
760.51        79.21777
760.93        79.45988
761.34        78.94496
761.76        79.99117
762.18        79.97389
762.59        79.67538
763.01        79.57471
763.42        79.80967
763.84        79.89795
764.26         79.8555
764.67        80.07603
765.09        80.48467
765.50         80.4982
765.92        80.20365
766.33        80.16711
766.75         80.3298
767.16        80.25243
767.58         79.9558
768.00        79.98644
768.41        80.35252
768.83        80.69577
769.24         80.9021
769.66        80.87258
770.07        80.64732
770.49          80.616
770.90         80.7887
771.32        80.78206
771.73        80.58904
772.15        80.52508
772.56        80.64042
772.97        80.62795
773.39        80.35289
773.80        81.03412
774.22        80.34392
774.63        80.66574
775.05        81.20253
775.46        81.55397
775.88        81.61646
776.29        81.71566
776.70         81.8729
777.12        81.94113
777.53        81.94965
777.95        81.91076
778.36        81.85876
778.77        81.82855
779.19        81.84126
779.60        81.90462
780.02        81.99089
780.43        82.11275
780.84        82.24104
781.26        82.27312
781.67        82.31745
782.09        82.57706
782.50        82.79292
782.91        83.34621
783.33        82.16652
783.74        81.99494
784.15        82.25436
784.57        82.38302
784.98        82.35703
785.39        82.55903
785.81        82.91614
786.22        83.01457
786.63         82.8643
787.04         82.8103
787.46        82.88046
787.87        82.86327
788.28        82.78809
788.70        82.80189
789.11        82.90836
789.52        83.02486
789.93        83.13121
790.35        83.38546
790.76        83.71863
791.17        83.58611
791.58        83.14381
792.00         83.2338
792.41        83.79954
792.82        84.04956
793.23        83.92037
793.65        83.70278
794.06        83.57773
794.47         83.8637
794.88        84.37636
795.29        84.70985
795.71        84.31078
796.12        84.03738
796.53        83.85223
796.94        83.76187
797.35        83.84868
797.76        84.10668
798.18        84.41486
798.59         84.7489
799.00        85.12917
799.41        84.47624
799.82        84.84322
800.23         84.6946
800.64        84.66347
801.06         84.6506
801.47         84.6952
801.88        84.72943
802.29        84.71844
802.70        84.70497
803.11        84.70722
803.52        84.70576
803.93        84.69856
804.34        84.81411
804.75        85.02132
805.17        84.93758
805.58        84.73131
805.99        85.09913
806.40        85.90279
806.81         86.2662
807.22        86.09428
807.63        85.81967
808.04        85.56542
808.45        85.38675
808.86        85.34439
809.27         85.4042
809.68        85.51527
810.09        85.60412
810.50        85.64146
810.91        85.64918
811.32        85.64079
811.73        85.65076
812.14        85.68811
812.55        85.69566
812.96        85.67525
813.37        85.72804
813.78        85.81737
814.19        85.75282
814.60        85.57439
815.01        85.51186
815.42        85.58752
815.83         85.6759
816.24        85.77914
816.65        85.96029
817.05        86.20332
817.46        86.42529
817.87        86.60805
818.28        86.67315
818.69        86.61242
819.10        86.46317
819.51        86.24899
819.92        86.04301
820.33        85.89506
820.74        85.72333
821.14        85.59995
821.55        85.84227
821.96        86.35895
822.37        86.71218
822.78        86.83722
823.19        86.99882
823.60        87.17593
824.00        87.17184
824.41        86.97725
824.82        86.82446
825.23        86.75336
825.64         86.7065
826.04        86.71033
826.45        86.75373
826.86        86.84177
827.27        86.99185
827.68        87.14734
828.08        87.23465
828.49        87.16373
828.90        86.99515
829.31        86.81787
829.72        86.78831
830.12        86.96842
830.53        87.25636
830.94        87.57285
831.35        87.74255
831.75        87.74179
832.16        87.56361
832.57        87.31135
832.97        87.12605
833.38        87.04533
833.79         87.0339
834.20        87.05872
834.60        87.06216
835.01         87.0437
835.42        87.02749
835.82        87.03597
836.23        87.00506
836.64        86.96461
837.04        86.93923
837.45        86.92302
837.86         87.0201
838.26        87.25452
838.67        87.57604
839.08         87.9174
839.48        88.14884
839.89        88.22758
840.29        88.18011
840.70        88.08128
841.11        88.06056
841.51        88.16934
841.92         88.3341
842.33        88.48579
842.73        88.50298
843.14        88.30995
843.54        87.99547
843.95        87.66719
844.35        87.51888
844.76        87.58675
845.17        87.82042
845.57        88.13121
845.98        88.32379
846.38        88.36859
846.79        88.27853
847.19        88.14464
847.60        88.05118
848.00        88.05727
848.41        88.09743
848.81        88.14764
849.22        88.08677
849.62        87.93707
850.03        87.71642
850.43        87.52821
850.84        87.43421
851.24        87.51519
851.65        87.67655
852.05        87.94604
852.46         88.2045
852.86        88.39771
853.27        88.56497
853.67         88.6096
854.07          88.616
854.48        88.54559
854.88        88.43324
855.29        88.19619
855.69        87.94858
856.10         87.6227
856.50        87.32089
856.90        87.04488
857.31        86.82851
857.71        86.72914
858.12        86.67165
858.52        86.69308
858.92        86.71298
859.33        86.68073
859.73        86.66032
860.13         86.5802
860.54        86.35346
860.94        86.02924
861.34        85.60374
861.75        85.17393
862.15        84.95189
862.55        84.95102
862.96        85.12827
863.36        85.37151
863.76        85.46391
864.17        85.34122
864.57        85.08237
864.97        84.79631
865.38        84.63876
865.78        84.70291
866.18        84.90716
866.58        85.14977
866.99        85.26779
867.39        85.24789
867.79        85.11158
868.19        84.93365
868.60        84.77898
869.00        84.66118
869.40        84.58164
869.80        84.52829
870.21        84.49715
870.61        84.55785
871.01        84.63662
871.41        84.71017
871.81        84.73813
872.22         84.6767
872.62        84.57558
873.02        84.43315
873.42        84.25232
873.82        84.05737
874.22        83.86604
874.63        83.75482
875.03        83.78089
875.43        83.96236
875.83         84.2752
876.23        84.64193
876.63        84.92625
877.03        85.08382
877.44        85.13197
877.84        85.13229
878.24        85.15554
878.64        85.21354
879.04        85.25861
879.44        85.28212
879.84        85.27767
880.24        85.23715
880.64         85.1804
881.04        85.06594
881.44        84.81638
881.84        84.43528
882.24        83.95478
882.65        83.47011
883.05        83.25108
883.45        83.31131
883.85        83.59235
884.25        83.96184
884.65        84.21792
885.05        84.30666
885.45        84.27325
885.85        84.19653
886.25        84.21609
886.65        84.36884
887.05        84.60629
887.45        84.83622
887.85        84.92731
888.25        84.85172
888.65        84.64832
889.04        84.42118
889.44        84.37389
889.84        84.52984
890.24        84.82207
890.64        85.10649
891.04        85.15867
891.44        84.93587
891.84        84.52735
892.24        84.06159
892.64        83.73747
893.04        83.61584
893.44        83.63584
893.83        83.77464
894.23        83.92255
894.63        84.06619
895.03        84.23607
895.43         84.4015
895.83        84.50478
896.23        84.54206
896.63           84.52
897.02        84.49169
897.42        84.60158
897.82        84.85164
898.22        85.20679
898.62        85.58967
899.01        85.88097
899.41        86.01318
899.81        86.02821
900.21        85.97422
900.61        85.93855
901.00        85.93587
901.40        85.94703
901.80         85.9372
902.20        85.86172
902.59        85.72774
902.99        85.56135
903.39        85.38782
903.79         85.2262
904.18        85.09178
904.58        84.99445
904.98        84.97188
905.38        85.09667
905.77        85.34689
906.17        85.68203
906.57        86.00332
906.96        86.16472
907.36        86.09759
907.76        85.89957
908.15        85.61081
908.55        85.22147
908.95        84.81888
909.34        84.38103
909.74        84.13963
910.14        84.39444
910.53        85.16515
910.93        86.31853
911.33        87.48222
911.72        88.01048
912.12        87.74448
912.52        86.93015
912.91        85.90162
913.31        85.18653
913.70        84.90882
914.10        84.90688
914.49        85.13425
914.89        85.41477
915.29        85.68526
915.68        85.99565
916.08        86.27149
916.47        86.38229
916.87        86.31862
917.26        86.06276
917.66        85.72101
918.05        85.44344
918.45        85.27379
918.84        85.22821
919.24        85.21087
919.64        85.14377
920.03        85.03357
920.42        84.90691
920.82        84.87685
921.21        85.10068
921.61        85.57669
922.00        86.25465
922.40        86.96616
922.79        87.52197
923.19        87.79273
923.58        87.85643
923.98         87.7285
924.37        87.50182
924.77        87.20547
925.16        86.80364
925.55        86.37811
925.95         86.0619
926.34        85.91143
926.74        85.92998
927.13        86.02825
927.52        85.93584
927.92        85.63622
928.31        85.17778
928.70        84.81438
929.10        84.92587
929.49        85.57089
929.89        86.58797
930.28        87.69002
930.67        88.23011
931.07        88.01602
931.46        87.26535
931.85        86.31228
932.24        85.72647
932.64        85.66804
933.03        85.98157
933.42        86.46496
933.82        86.78032
934.21          86.837
934.60        86.75529
934.99        86.66941
935.39        86.76034
935.78        87.10915
936.17        87.59431
936.56        88.08394
936.96        88.37077
937.35        88.43273
937.74        88.30876
938.13        88.05402
938.53        87.74178
938.92        87.40475
939.31        87.01385
939.70        86.62743
940.09        86.35198
940.49        86.20216
940.88        86.22246
941.27        86.30097
941.66        86.25066
942.05        86.05362
942.44        85.78117
942.84        85.59896
943.23        85.73868
943.62        86.26195
944.01        87.04534
944.40        87.92759
944.79        88.62256
945.18        88.99074
945.57        89.08648
945.97        88.87142
946.36        88.36819
946.75          87.594
947.14        86.55251
947.53        85.44537
947.92        84.63184
948.31        84.24937
948.70        84.29102
949.09         84.5356
949.48        84.59095
949.87        84.37508
950.26         83.9788
950.65        83.69588
951.04        84.00753
951.43        84.97442
951.82        86.39468
952.21        87.81499
952.60        88.46849
952.99        88.15059
953.38        87.12479
953.77        85.80431
954.16        84.82624
954.55        84.37829
954.94        84.26526
955.33        84.37501
955.72        84.51354
956.11        84.59171
956.50        84.72683
956.89        84.82457
957.28        84.67428
957.66        84.30888
958.05        83.77344
958.44        83.33735
958.83         83.4503
959.22        84.16787
959.61        85.25082
960.00        86.50176
960.39        87.61919
960.78        88.45014
961.16        89.12067
961.55        89.30226
961.94        88.60178
962.33         87.0568
962.72        84.89027
963.11        82.77551
963.49        81.68022
963.88        81.80864
964.27        82.93879
964.66        84.56419
965.04         85.7288
965.43        85.99679
965.82         85.6589
966.21        85.08316
966.60        84.86979
966.98        85.18703
967.37         85.7634
967.76        86.36591
968.15        86.56251
968.53        86.25241
968.92        85.65446
969.31        84.98196
969.69        84.49818
970.08        84.27966
970.47        84.20483
970.86        84.39699
971.24        85.08029
971.63         86.1208
972.02        87.41823
972.40        88.53139
972.79        88.73076
973.17        88.01762
973.56        86.53774
973.95        84.82992
974.33        83.84933
974.72        83.88706
975.11         84.6811
975.49        85.80962
975.88         86.5545
976.26        86.67658
976.65         86.3411
977.04        85.71638
977.42         85.0659
977.81        84.46575
978.19        83.85126
978.58         83.3403
978.96        83.14241
979.35        83.26495
979.74        83.70943
980.12        84.42741
980.51        85.06314
980.89        85.63496
981.28        86.13106
981.66        86.54546
982.05        86.86575
982.43        87.09126
982.82         87.1379
983.20        87.17924
983.59        87.32504
983.97        87.68882
984.35        88.19882
984.74        88.65772
985.12        88.72884
985.51        88.32378
985.89        87.58189
986.28        86.79519
986.66        86.41923
987.04        86.52055
987.43        86.95305
987.81        87.46697
988.20        87.51691
988.58        87.04112
988.96        86.21814
989.35        85.30224
989.73        84.78302
990.12        84.74165
990.50        85.03828
990.88        85.59834
991.27        86.21661
991.65        86.71249
992.03        87.10144
992.42        87.13283
992.80         86.6653
993.18        85.58327
993.56        83.82935
993.95        81.72856
994.33        80.27879
994.71         80.0827
995.10        80.83752
995.48        81.92671
995.86        82.58886
996.24        82.73305
996.63        82.49063
997.01        82.27364
997.39        82.73186
997.77        84.00816
998.15        85.76083
998.54        87.33778
998.92        87.94089
999.30        87.44892
999.68         86.0997
1000.06         84.4461
1000.45        83.49038
1000.83        83.65434
1001.21        84.57428
1001.59        85.74158
1001.97        86.39159
1002.35        86.31239
1002.73        85.74078
1003.12         84.8235
1003.50        83.84591
1003.88         83.0491
1004.26        82.30825
1004.64        81.73533
1005.02        81.45165
1005.40        81.42506
1005.78        81.72141
1006.16        82.00993
1006.54        81.67305
1006.92        80.63153
1007.30        79.06786
1007.69        77.72269
1008.07        77.72372
1008.45        79.31885
1008.83        82.01669
1009.21         84.9333
1009.59        86.86774
1009.97        87.50676
1010.35        87.09444
1010.73        85.90291
1011.11        84.74392
1011.49        84.10899
1011.86        83.86478
1012.24        83.75293
1012.62        83.61118
1013.00        83.40607
1013.38        83.39981
1013.76        83.54497
1014.14        83.68115
1014.52        83.78713
1014.90        83.74414
1015.28        83.92914
1015.66        85.07746
1016.04        87.18335
1016.41        89.96715
1016.79        92.17227
1017.17        92.37442
1017.55        90.42651
1017.93        86.92993
1018.31        83.05252
1018.69        80.59019
1019.06        80.15703
1019.44        81.37785
1019.82        83.74508
1020.20        85.99907
1020.58        87.38287
1020.95        87.99347
1021.33        88.15713
1021.71        88.27839
1022.09        88.46483
1022.46        88.57336
1022.84        88.18955
1023.22        86.51091
1023.60        83.33302
1023.97        78.58319
1024.35        73.62698
1024.73        71.31946
