SpectraSmart Spectrum 2.9.0.0
--------- Device Information -----------
Spectrum Name :  反射率_0
Saving Time :  2024/04/27 22:42:30
Spectro-Module Model Name : SE2030-DUVN
Spectro-Module Serial Number : OS361AC55029948
Wavelength Start : 200
Wavelength End : 1025
Wavelength Unit : Wavelength(nm)
Spectrum Unit : Reflectance(%)
-----------Spectrum Setting ------------
Integration Time : 20ms
Average : 10
Boxcar : 0
Background removal :  enabled
linearity correction :  enabled
SC :  disabled
Intensity correction :  disabled
DWT denoise :  enabled
savitzky-golay :  disabled
FFT :  disabled
Running average :  disabled
Kalman :  disabled
High pass :  disabled
---------------BEGIN--------------------
Wavelength(nm)             Reflectance(%)
200.29               0
200.75        -27.2144
201.21        18.89795
201.67        53.88597
202.13        63.41878
202.58        56.28272
203.04        41.14959
203.50        27.34714
203.96        27.52753
204.42         40.7078
204.88        58.79827
205.34        74.86652
205.80        83.86153
206.26         85.7614
206.72        81.52953
207.18         70.3743
207.64        58.72327
208.10        55.70529
208.55        59.35562
209.01        61.84388
209.47        59.22879
209.93         49.2383
210.39        21.68856
210.85       -59.83353
211.31       -144.9525
211.77       -16.43849
212.23        59.95378
212.69        84.02433
213.14        87.32699
213.60        78.63912
214.06        57.10028
214.52        19.55928
214.98       -6.512124
215.44        7.727419
215.90        36.45899
216.36        59.61323
216.81        71.45034
217.27         75.4405
217.73        75.84843
218.19        74.01989
218.65        71.28646
219.11        68.40437
219.57         64.6463
220.02        60.47363
220.48        58.80982
220.94        60.29942
221.40        64.11905
221.86        69.09486
222.32        73.97174
222.77        78.20959
223.23        81.70949
223.69        84.17139
224.15        85.32198
224.61        85.33975
225.06        84.41808
225.52        82.89544
225.98        81.15971
226.44        79.81518
226.90        78.90252
227.36        78.62234
227.81        79.08624
228.27        80.28407
228.73        82.02743
229.19         83.8783
229.65        84.81924
230.10        84.37611
230.56        83.14212
231.02        81.43578
231.48        79.84544
231.93        78.52725
232.39         77.4903
232.85         76.8808
233.31        77.02567
233.77        77.82769
234.22        79.13739
234.68        80.41631
235.14        80.91722
235.60         80.5211
236.05        79.39096
236.51        77.91129
236.97        77.15408
237.43        77.56297
237.88        78.93535
238.34        80.47283
238.80        81.70479
239.26        82.55225
239.71        83.46748
240.17        84.09455
240.63        83.79599
241.08        82.47523
241.54        80.43671
242.00        78.92538
242.46        78.26954
242.91        78.27732
243.37        78.99086
243.83        80.35511
244.28        79.47071
244.74         72.9222
245.20        65.46387
245.66        61.49878
246.11        60.17628
246.57         60.1087
247.03        61.68186
247.48        65.27862
247.94        69.90252
248.40        72.77872
248.85        73.56319
249.31        73.00426
249.77         72.2258
250.22        71.71923
250.68        71.15281
251.14        70.90639
251.59        71.43668
252.05        72.89316
252.51        75.23055
252.96        77.86587
253.42         79.0423
253.88        77.43703
254.33        74.68427
254.79        72.29034
255.25        70.13795
255.70        68.18532
256.16        66.96475
256.62        66.93524
257.07        68.66649
257.53        71.70875
257.99         74.6808
258.44        76.62962
258.90        77.26989
259.35        76.44729
259.81        75.17373
260.27        73.45169
260.72        71.35065
261.18        69.48838
261.63        67.59629
262.09        66.22287
262.55        65.50538
263.00        65.25617
263.46        65.47775
263.91        65.70989
264.37        65.74021
264.83         65.4204
265.28         64.8259
265.74        64.18567
266.19        63.51563
266.65        62.93801
267.11        62.35408
267.56        61.73088
268.02        61.15033
268.47          60.567
268.93        60.00425
269.38        59.43587
269.84        58.85462
270.30        58.23913
270.75        57.58083
271.21        56.85861
271.66         55.9809
272.12        54.97847
272.57         53.8497
273.03        52.72356
273.48        51.69332
273.94         50.8569
274.39        50.13117
274.85        49.51802
275.31        48.89564
275.76        48.20383
276.22        47.51604
276.67        46.79628
277.13        46.13972
277.58         45.4836
278.04        44.86689
278.49        44.18756
278.95        43.45399
279.40        42.61105
279.86        41.76579
280.31        40.92553
280.77        40.25328
281.22        39.71665
281.68        39.32917
282.13        38.99792
282.59        38.67955
283.04          38.313
283.50        37.93377
283.95        37.52927
284.41        37.14833
284.86        36.77691
285.32        36.43664
285.77        36.08157
286.22        35.70196
286.68        35.31779
287.13        34.90318
287.59        34.53172
288.04        34.22229
288.50        34.01262
288.95        33.84953
289.41        33.71642
289.86         33.5273
290.32         33.2921
290.77        33.02418
291.22        32.75902
291.68        32.53986
292.13        32.37126
292.59        32.26078
293.04        32.21429
293.50        32.27281
293.95        32.42666
294.40        32.67747
294.86        32.98996
295.31        33.29496
295.77        33.58369
296.22        33.85346
296.68        34.14663
297.13        34.50964
297.58        34.94971
298.04        35.43841
298.49        35.91785
298.95        36.32624
299.40        36.64552
299.85        36.90521
300.31        37.16254
300.76        37.46639
301.21        37.83947
301.67        38.26422
302.12        38.68306
302.58        39.06163
303.03        39.36383
303.48        39.61286
303.94        39.85186
304.39        40.09014
304.84        40.35139
305.30        40.63578
305.75        40.88551
306.20        41.06248
306.66        41.17378
307.11        41.20246
307.57        41.22744
308.02        41.29808
308.47        41.43744
308.93        41.62333
309.38        41.76484
309.83        41.75747
310.29        41.59745
310.74        41.31477
311.19         40.9978
311.65        40.78186
312.10        40.68436
312.55         40.6673
313.00        40.68946
313.46        40.68745
313.91        40.62878
314.36        40.53816
314.82        40.39495
315.27        40.16122
315.72        39.84485
316.18        39.46883
316.63        39.08796
317.08        38.81395
317.53        38.67268
317.99        38.63231
318.44        38.64663
318.89        38.61942
319.35        38.51867
319.80         38.3676
320.25        38.18997
320.70         38.0318
321.16        37.89757
321.61        37.77555
322.06        37.63806
322.51        37.44954
322.97        37.19977
323.42        36.92069
323.87        36.63423
324.32        36.38268
324.78        36.17606
325.23        36.00979
325.68         35.8721
326.13        35.74965
326.59        35.62047
327.04        35.51181
327.49        35.39241
327.94        35.22286
328.39        34.99623
328.85         34.7116
329.30        34.42573
329.75        34.21616
330.20        34.10853
330.66        34.07461
331.11        34.08053
331.56        34.01234
332.01        33.84339
332.46        33.60161
332.92        33.34236
333.37        33.20194
333.82        33.19919
334.27        33.28731
334.72        33.39906
335.17        33.42567
335.63        33.32633
336.08        33.16079
336.53        32.94157
336.98        32.70478
337.43        32.47888
337.88        32.25558
338.34        32.08418
338.79        32.05194
339.24        32.16674
339.69        32.40471
340.14        32.67252
340.59        32.81465
341.05        32.78835
341.50        32.63401
341.95        32.42142
342.40        32.27839
342.85        32.23814
343.30        32.25835
343.75        32.28933
344.20        32.25093
344.66        32.13054
345.11        31.96842
345.56        31.79828
346.01        31.66373
346.46        31.58276
346.91        31.53411
347.36        31.53414
347.81        31.60919
348.26        31.75023
348.72        31.94476
349.17        32.12202
349.62        32.17102
350.07        32.06635
350.52        31.83053
350.97         31.5519
351.42        31.37674
351.87        31.33986
352.32        31.40533
352.77        31.47587
353.22        31.39944
353.67         31.1505
354.13        30.79641
354.58        30.42633
355.03        30.23179
355.48        30.25341
355.93        30.42753
356.38        30.63516
356.83        30.69339
357.28        30.55702
357.73        30.28526
358.18        29.96703
358.63        29.73997
359.08        29.63874
359.53        29.61362
359.98        29.60632
360.43        29.53027
360.88        29.36162
361.33        29.13017
361.78        28.86354
362.23        28.63546
362.68        28.47048
363.13        28.28732
363.58        28.05401
364.03        28.05346
364.48        27.74447
364.93        27.56773
365.38        27.38332
365.83        27.23328
366.28        27.11661
366.73        27.02401
367.18        26.93288
367.63        26.79476
368.08        26.60117
368.53        26.36874
368.98        26.12124
369.43        25.89569
369.88        25.70773
370.33        25.55169
370.78        25.41923
371.23          25.298
371.68        25.17719
372.13        25.04838
372.58         24.9224
373.03        24.81497
373.48        24.72705
373.93        24.66452
374.38        24.57335
374.83        24.36852
375.28        24.04931
375.72        23.63772
376.17          23.277
376.62        23.14867
377.07         23.2753
377.52        23.57841
377.97        23.90894
378.42        24.03384
378.87        23.89725
379.32        23.58051
379.77         23.1751
380.22        22.82045
380.67        22.56301
381.11        22.35871
381.56        22.20472
382.01        22.09905
382.46        22.03314
382.91        22.02043
383.36        22.01696
383.81        21.94391
384.26        21.78888
384.71        21.57046
385.15        21.34008
385.60        21.21649
386.05        21.21158
386.50        21.29211
386.95        21.40031
387.40        21.44645
387.85        21.40821
388.29        21.30053
388.74        21.18854
389.19        21.11517
389.64        21.08663
390.09        21.07403
390.54        21.05052
390.98         20.9748
391.43         20.8515
391.88        20.70341
392.33        20.53635
392.78        20.38812
393.23        20.27901
393.67        20.11378
394.12        19.93483
394.57        20.03629
395.02         20.0602
395.47        19.95929
395.91        19.70123
396.36        19.63025
396.81        19.76872
397.26        19.93657
397.71        20.05257
398.15        20.07609
398.60        20.01422
399.05        19.81096
399.50        19.56357
399.95         19.5337
400.39        19.68036
400.84        19.68095
401.29        19.51705
401.74        19.35202
402.18        19.23591
402.63        19.21934
403.08        19.28096
403.53        19.27324
403.97        19.19014
404.42        19.14145
404.87        19.13625
405.32        19.15257
405.76        19.18482
406.21         19.1881
406.66        19.16179
407.11        19.19738
407.55         19.2399
408.00        19.09276
408.45        18.78993
408.90        18.45874
409.34        18.21484
409.79        18.27518
410.24        18.55874
410.68        18.69353
411.13        18.63741
411.58        18.60415
412.03        18.62461
412.47        18.65119
412.92        18.68026
413.37        18.72498
413.81         18.7555
414.26        18.74512
414.71        18.68633
415.15         18.5923
415.60        18.49102
416.05        18.44054
416.49        18.45802
416.94        18.52202
417.39        18.60068
417.83        18.64545
418.28        18.63635
418.73         18.5801
419.17        18.50122
419.62        18.44333
420.07        18.42532
420.51         18.4421
420.96        18.45829
421.41        18.44162
421.85        18.38193
422.30        18.20984
422.74        18.01318
423.19        18.14678
423.64        18.53569
424.08        18.68236
424.53        18.50887
424.98        18.42075
425.42        18.43561
425.87        18.19699
426.31         17.8212
426.76        17.87123
427.21        18.25896
427.65        18.32038
428.10        18.06613
428.54         17.9764
428.99        18.05615
429.44        18.21002
429.88        18.32648
430.33        18.01414
430.77        17.47629
431.22        17.47345
431.66         17.9694
432.11        18.34514
432.56        18.48447
433.00        18.55878
433.45         18.4186
433.89        17.99613
434.34        17.65873
434.78         16.8022
435.23        17.54498
435.67        18.15762
436.12        18.39133
436.57        18.45746
437.01        18.23367
437.46        18.09384
437.90        18.14367
438.35        18.27009
438.79        17.90733
439.24        17.80206
439.68        17.80882
440.13        17.86791
440.57        17.92955
441.02        18.07017
441.46        18.22444
441.91        18.01419
442.35        17.60713
442.80         17.7743
443.24        18.37592
443.69        18.43242
444.13        17.96404
444.58         17.7964
445.02        17.93361
445.47        17.94384
445.91        17.81316
446.36        17.75058
446.80        17.75594
447.24        17.76067
447.69        17.77204
448.13        17.84566
448.58        17.95447
449.02        18.00156
449.47        17.98461
449.91        17.98108
450.36        17.99626
450.80        17.96955
451.25        17.92661
451.69        17.93682
452.13        17.99936
452.58        18.07515
453.02        18.12677
453.47        18.10597
453.91         18.0021
454.36        17.86457
454.80        17.70503
455.24        17.52242
455.69        17.37719
456.13        17.28889
456.58        17.27926
457.02        17.44411
457.46        17.67183
457.91         17.6492
458.35         17.4805
458.79         17.4362
459.24        17.54721
459.68        17.63583
460.13        17.67889
460.57        17.61716
461.01        17.52654
461.46        17.44078
461.90        17.30622
462.34        17.23096
462.79        17.49377
463.23        17.60501
463.68        17.62781
464.12        17.62261
464.56        17.60143
465.01        17.62291
465.45        17.62913
465.89        17.52556
466.34          17.378
466.78        17.27025
467.22        17.19775
467.67        17.51644
468.11        17.43876
468.55        17.40816
468.99         17.2418
469.44        17.19142
469.88        17.26491
470.32        17.31778
470.77        17.33781
471.21        17.36083
471.65        17.38478
472.10        17.40662
472.54         17.4105
472.98        17.39774
473.42        17.37621
473.87        17.29842
474.31        17.20729
474.75        17.32965
475.20        17.60824
475.64        17.69594
476.08        17.58025
476.52        17.58205
476.97        17.71865
477.41        17.64269
477.85        17.53348
478.29        17.64553
478.74        17.54139
479.18        17.42262
479.62        17.72844
480.06        17.80427
480.50        17.83115
480.95        17.80592
481.39         17.7281
481.83        17.97837
482.27        18.02172
482.72        17.99825
483.16        18.28169
483.60        18.33147
484.04         18.2765
484.48         18.2179
484.93          18.343
485.37        18.20939
485.81        18.58143
486.25        19.18352
486.69        18.69176
487.14        18.36878
487.58        19.11571
488.02        18.97205
488.46        18.97184
488.90        19.27555
489.34        18.98327
489.79        18.83812
490.23         19.2845
490.67         19.5385
491.11        19.73882
491.55        19.69671
491.99        19.49672
492.43        19.47187
492.88        19.64887
493.32        19.81693
493.76        19.94422
494.20        20.12774
494.64        20.36816
495.08        20.56927
495.52        20.73049
495.96        21.01299
496.41        21.37679
496.85        21.34268
497.29        21.03267
497.73        21.05248
498.17        21.38062
498.61        21.67487
499.05         21.8279
499.49         21.8638
499.93         21.8355
500.37        21.88532
500.82        22.01067
501.26        22.15733
501.70        22.33362
502.14        22.10103
502.58        22.27348
503.02        22.30247
503.46        22.33661
503.90        22.39117
504.34        22.44247
504.78        22.52402
505.22        22.62148
505.66        22.68974
506.10        22.73437
506.54        22.82654
506.98        22.97258
507.42        23.03588
507.86        23.18721
508.30        23.26972
508.74        23.33266
509.18        23.37513
509.62        23.39991
510.06        23.40784
510.50        23.40269
510.94        23.38936
511.38        23.38103
511.82         23.3983
512.26        23.44421
512.70        23.51257
513.14        23.59196
513.58        23.65272
514.02        23.68595
514.46        23.71685
514.90        23.74908
515.34         23.7056
515.78        23.72687
516.22        23.70076
516.66         23.6853
517.10        23.70539
517.54         23.7637
517.98        23.84895
518.42        23.92966
518.86         23.9576
519.30        23.92255
519.74        23.84241
520.18        23.74534
520.62        23.67495
521.06        23.64621
521.50        23.64853
521.93         23.6741
522.37        23.70094
522.81         23.7222
523.25        23.73763
523.69        23.74762
524.13        23.75247
524.57        23.74922
525.01        23.73507
525.45        23.69441
525.89        23.60543
526.32        23.46558
526.76        23.29344
527.20        23.12081
527.64        23.00014
528.08        22.94433
528.52        22.93969
528.96        22.95728
529.40        22.94931
529.83        22.90171
530.27        22.83003
530.71        22.75102
531.15        22.69242
531.59        22.66177
532.03        22.64853
532.46        22.63854
532.90        22.62359
533.34        22.59678
533.78        22.56449
534.22        22.53395
534.66        22.51507
535.09        22.50693
535.53        22.50817
535.97        22.51066
536.41        22.50592
536.85         22.4924
537.28        22.47675
537.72        22.46062
538.16        22.44265
538.60        22.42764
539.04         22.4227
539.47         22.4328
539.91        22.47858
540.35        22.55602
540.79        22.66334
541.22        22.78316
541.66        22.88842
542.10        22.97095
542.54        23.03832
542.97        23.10059
543.41        23.18824
543.85        23.30371
544.29        23.43873
544.72        23.57841
545.16        23.71771
545.60        23.84493
546.04        23.96129
546.47        24.07325
546.91        24.18601
547.35         24.2993
547.79        24.42433
548.22         24.5432
548.66        24.62229
549.10        24.67698
549.53        24.80411
549.97        25.00737
550.41         25.2054
550.84        25.39111
551.28        25.61744
551.72        25.85672
552.15        26.03446
552.59        26.14733
553.03        26.20702
553.46        26.24925
553.90        26.35076
554.34         26.5196
554.77        26.74115
555.21        26.96477
555.65        27.10972
556.08         27.1321
556.52        27.12313
556.96        27.11085
557.39        27.17562
557.83          27.311
558.27        27.38117
558.70        27.38853
559.14        27.43918
559.57        27.52655
560.01        27.62441
560.45        27.71141
560.88        27.73657
561.32        27.75375
561.75        27.84334
562.19          28.003
562.63        28.19809
563.06        28.36223
563.50        28.32493
563.93        28.14314
564.37        28.12417
564.80        28.28181
565.24        28.46927
565.68        28.64562
566.11        28.80609
566.55        28.94455
566.98        29.06515
567.42        29.17806
567.85        29.26123
568.29         29.3483
568.72        29.42553
569.16        29.53197
569.60         29.7088
570.03        29.96002
570.47        30.07552
570.90        30.42473
571.34        30.55021
571.77        30.88215
572.21        30.80321
572.64        31.06926
573.08        30.99384
573.51        31.34472
573.95         31.3866
574.38        31.21623
574.82        31.68602
575.25        31.55424
575.69        31.47179
576.12        31.35232
576.56        31.64894
576.99        31.81642
577.42        31.80927
577.86        31.66601
578.29        32.11097
578.73        31.63393
579.16         31.6055
579.60        31.51974
580.03        31.41796
580.47        31.29122
580.90        31.41651
581.33         31.2524
581.77        31.63155
582.20         31.0094
582.64        30.86084
583.07        30.71332
583.51        30.64237
583.94        30.69479
584.37        30.57644
584.81        30.32123
585.24         30.1996
585.68         30.2365
586.11        30.10622
586.54        29.81918
586.98        29.83655
587.41        29.96938
587.85        29.79012
588.28        29.77339
588.71        29.42704
589.15        29.81763
589.58        29.54239
590.01        29.68797
590.45        29.79374
590.88        29.33848
591.31        29.30519
591.75        29.46918
592.18        29.50204
592.61        29.38688
593.05        29.68752
593.48         29.8294
593.91        29.38953
594.35        29.60542
594.78        29.89342
595.21         30.1007
595.65          30.176
596.08        29.98981
596.51        30.45724
596.94        30.53195
597.38         30.8775
597.81         31.2037
598.24        31.03151
598.68        31.70406
599.11         31.6694
599.54        32.06704
599.97        32.18978
600.41        32.76211
600.84        33.09584
601.27        33.32592
601.70        33.56661
602.14         33.7058
602.57        34.31626
603.00        34.90284
603.43         35.3557
603.87        35.77894
604.30        35.92618
604.73        36.34478
605.16          37.208
605.60        37.52475
606.03        38.04589
606.46        38.43432
606.89        38.44217
607.32        39.01079
607.76        39.42163
608.19         39.6018
608.62        39.95901
609.05        40.40586
609.48         40.7786
609.92        41.03225
610.35        41.57228
610.78         41.6666
611.21        42.08474
611.64        42.41694
612.07        42.67143
612.50         42.8302
612.94        43.04376
613.37        43.33938
613.80        43.75203
614.23        44.18245
614.66        44.25983
615.09        44.75375
615.52         44.9619
615.96        45.16689
616.39        45.11789
616.82        45.67236
617.25        45.63041
617.68        46.06513
618.11        46.24705
618.54        46.46233
618.97        46.76652
619.40        47.09293
619.84        47.48183
620.27        47.55208
620.70         47.5679
621.13        47.45569
621.56        47.78601
621.99        47.98844
622.42        47.99223
622.85        47.68737
623.28        47.84495
623.71        48.17559
624.14        47.88491
624.57        48.18262
625.00        48.40862
625.43        48.07261
625.86        48.04691
626.29        48.10081
626.72        47.70145
627.15        47.75265
627.58         47.4691
628.01        47.19006
628.44        47.23585
628.87        46.50388
629.30        46.71305
629.73        46.29875
630.16        45.65749
630.59        45.64559
631.02        45.39824
631.45        45.22713
631.88        44.98447
632.31        44.68195
632.74        44.12551
633.17        43.77463
633.60        43.31793
634.03         42.8982
634.46        42.50061
634.89        42.10534
635.32        41.66486
635.75        41.17141
636.18        40.66746
636.61        40.18447
637.04         39.7309
637.47        39.33445
637.89        39.06557
638.32        38.86347
638.75        38.58955
639.18        38.22557
639.61          37.839
640.04         37.4599
640.47        37.12204
640.90        36.84273
641.33        36.59942
641.76        36.37635
642.18        36.23824
642.61        36.03717
643.04        35.89468
643.47         35.7858
643.90        35.73401
644.33        35.73609
644.76        35.79724
645.18        35.89868
645.61        35.95729
646.04        35.95369
646.47         36.0947
646.90        36.07106
647.33        36.20123
647.75        36.40422
648.18        36.69478
648.61        37.03319
649.04        37.37077
649.47        37.70863
649.89         38.0039
650.32        38.31836
650.75        38.90149
651.18        39.67502
651.61        40.22855
652.03        40.50864
652.46        40.80481
652.89         41.2431
653.32        41.58939
653.74        42.05673
654.17        43.08548
654.60        43.16719
655.03        43.71837
655.46        44.15852
655.88        45.09851
656.31        45.80129
656.74         47.1021
657.16        47.06631
657.59        47.46166
658.02        46.81626
658.45        48.06858
658.87        47.88669
659.30        48.21562
659.73        48.35292
660.15        48.81974
660.58        49.22319
661.01        49.79838
661.44        50.37778
661.86        50.69638
662.29        50.79058
662.72        50.99147
663.14        51.32656
663.57        51.54112
664.00        51.65361
664.42        51.81041
664.85        52.03197
665.27         52.2968
665.70        52.57804
666.13        52.75689
666.55        52.94735
666.98        53.07228
667.41        53.20702
667.83        53.40194
668.26        53.65894
668.69        53.96395
669.11        54.27348
669.54        54.51212
669.96         54.6668
670.39        54.75887
670.82        54.83035
671.24        54.92656
671.67        55.06768
672.09        55.27252
672.52        55.51717
672.94        55.65429
673.37        55.71218
673.80        55.86539
674.22        56.11089
674.65        56.25871
675.07        56.31125
675.50        56.36402
675.92        56.44738
676.35         56.5251
676.77        56.60262
677.20        56.82304
677.62        56.93292
678.05        57.09729
678.47        57.23207
678.90        57.36378
679.32        57.50553
679.75        57.63303
680.17        57.73851
680.60        57.94218
681.02        58.25078
681.45         58.0704
681.87        58.34328
682.30        58.33587
682.72        58.36119
683.15        58.54141
683.57        58.83215
684.00        58.87754
684.42        58.72781
684.85        58.78413
685.27        59.05211
685.70        59.33319
686.12        59.55817
686.54        59.68547
686.97        59.70822
687.39        59.75493
687.82        59.84602
688.24        59.79404
688.66        59.90229
689.09        59.95583
689.51         60.0575
689.94        60.22826
690.36        60.44815
690.78        60.55537
691.21        60.56512
691.63        60.70035
692.06        60.92346
692.48        60.94745
692.90        60.81565
693.33        60.79885
693.75        60.92284
694.17        61.07272
694.60        61.20426
695.02        61.31241
695.44        61.39649
695.87        61.46271
696.29         61.5473
696.71        61.79326
697.14        62.11987
697.56        62.21327
697.98         62.0945
698.41        62.12769
698.83        62.31079
699.25        62.46144
699.68        62.54175
700.10        62.63793
700.52        62.73632
700.94        62.81572
701.37         62.8764
701.79        62.95335
702.21        63.03421
702.64        63.12794
703.06        63.21445
703.48        63.27945
703.90        63.32822
704.33        63.36697
704.75        63.42522
705.17        63.51024
705.59        63.61106
706.01        63.75893
706.44        63.84882
706.86        63.97515
707.28        64.08911
707.70        64.27148
708.12        64.46866
708.55         64.3867
708.97        64.11227
709.39        64.14065
709.81         64.4627
710.23        64.63725
710.66        64.63613
711.08        64.74065
711.50        64.93423
711.92        65.05866
712.34        65.10314
712.76        65.15246
713.19         65.2159
713.61        65.13096
714.03        65.24591
714.45        65.26726
714.87        65.31927
715.29         65.4265
715.71         65.5909
716.13        65.79685
716.56        65.98598
716.98        66.13712
717.40        66.21201
717.82        66.22928
718.24        66.21656
718.66        66.22301
719.08        66.26429
719.50        66.31938
719.92        66.39336
720.34        66.49375
720.76        66.61355
721.19        66.74694
721.61        66.86394
722.03         66.8807
722.45        66.78906
722.87        66.61836
723.29        66.44199
723.71        66.37988
724.13        66.46135
724.55        66.65093
724.97        66.89559
725.39        67.08688
725.81        67.18757
726.23        67.27576
726.65        67.35766
727.07        67.32503
727.49        67.24102
727.91        67.36352
728.33        67.64491
728.75        67.75166
729.17        67.65547
729.59        67.56869
730.01         67.5034
730.43        67.38361
730.85        67.26241
731.27        67.19875
731.69        67.17702
732.10        67.48293
732.52        67.42226
732.94         67.6282
733.36        67.86759
733.78        67.99211
734.20        67.96529
734.62        68.29276
735.04        67.84347
735.46        68.31802
735.88        68.05655
736.30        68.09691
736.72         68.0749
737.13        68.17921
737.55        68.35585
737.97        68.52504
738.39        68.63611
738.81        68.48764
739.23        68.17309
739.65         68.1957
740.06        68.48418
740.48        68.57337
740.90        68.41985
741.32        68.38787
741.74        68.40869
742.16        68.47962
742.57        68.57946
742.99        68.71957
743.41        68.87081
743.83        68.97195
744.25        69.00868
744.67         68.9793
745.08        68.94352
745.50        68.96679
745.92        69.07826
746.34        69.25589
746.75        69.41907
747.17        69.45211
747.59        69.34325
748.01        69.08491
748.42        68.80235
748.84        68.82434
749.26        69.13743
749.68        69.36581
750.09        69.45638
750.51         69.6531
750.93        69.88795
751.35        69.90448
751.76        69.77276
752.18        69.66688
752.60        69.79945
753.01        69.90866
753.43        70.01771
753.85        69.99264
754.27        69.79465
754.68         69.9164
755.10        69.96354
755.52        69.50572
755.93        69.48593
756.35         69.6318
756.77        70.13052
757.18        70.45972
757.60        70.60458
758.02        70.66553
758.43        70.57597
758.85        70.99892
759.26        70.49464
759.68        70.24759
760.10         70.3573
760.51        69.51119
760.93        70.00477
761.34        70.32321
761.76        70.57316
762.18           70.62
762.59        70.44836
763.01        70.64756
763.42        71.20683
763.84        71.44741
764.26        71.36882
764.67        71.34848
765.09        71.43138
765.50        71.44263
765.92        71.37627
766.33        71.16039
766.75        70.81665
767.16        70.60474
767.58        70.56261
768.00        70.81815
768.41        71.31333
768.83        71.48348
769.24        71.27021
769.66         71.3788
770.07        71.82829
770.49        71.05488
770.90        71.10402
771.32        71.20383
771.73        71.79739
772.15        72.02866
772.56        71.88326
772.97        71.53787
773.39        71.54626
773.80        71.38366
774.22        71.25602
774.63         71.4173
775.05        71.77705
775.46        72.03671
775.88        72.11186
776.29        72.19839
776.70        72.28922
777.12        72.32348
777.53        72.32086
777.95        72.25844
778.36        72.19108
778.77        72.18156
779.19        72.24909
779.60        72.44093
780.02        72.65289
780.43        72.68181
780.84        72.53951
781.26        72.35529
781.67        72.30063
782.09        72.59334
782.50        72.95913
782.91          73.562
783.33        72.56013
783.74        72.45972
784.15        72.72049
784.57        72.87476
784.98        72.92189
785.39        72.90133
785.81        72.85296
786.22        73.39966
786.63        73.94367
787.04        73.82637
787.46        73.91116
787.87        73.67704
788.28        73.52267
788.70        73.41463
789.11        73.38028
789.52        73.47562
789.93         73.6354
790.35        73.67585
790.76        73.61293
791.17        73.60242
791.58        73.66774
792.00        73.67699
792.41        73.65066
792.82         73.7507
793.23        73.92072
793.65        73.84991
794.06        73.67784
794.47        73.87218
794.88        74.27468
795.29        74.86598
795.71        74.43692
796.12        74.36288
796.53        74.34997
796.94        74.23664
797.35        74.09241
797.76        74.24841
798.18        74.65194
798.59        74.87754
799.00        74.88956
799.41        74.88115
799.82        74.87808
800.23        74.85001
800.64        74.81075
801.06        74.74746
801.47         74.6897
801.88        74.60722
802.29        74.50452
802.70        74.39652
803.11        74.31628
803.52        74.30401
803.93        74.36827
804.34        74.51762
804.75        74.71967
805.17        74.84539
805.58        74.92978
805.99        75.09875
806.40        75.31927
806.81        75.42016
807.22        75.37325
807.63        75.24003
808.04        75.08463
808.45        75.00629
808.86        75.03336
809.27        75.13051
809.68         75.2497
810.09        75.31286
810.50        75.29794
810.91        75.23051
811.32        75.14845
811.73        75.12988
812.14        75.19568
812.55        75.27076
812.96        75.33709
813.37         75.4799
813.78         75.6319
814.19        75.55247
814.60        75.29566
815.01        75.16078
815.42        75.17757
815.83        75.18867
816.24        75.18994
816.65        75.24986
817.05        75.36985
817.46        75.49604
817.87        75.63211
818.28         75.7318
818.69        75.78487
819.10        75.79828
819.51        75.79887
819.92         75.8362
820.33        75.92094
820.74        76.03143
821.14        76.12474
821.55        76.17768
821.96         76.1589
822.37        76.06886
822.78        75.93911
823.19        75.83777
823.60        75.78934
824.00        75.80043
824.41        75.79783
824.82        75.75533
825.23        75.66455
825.64        75.54286
826.04        75.46508
826.45        75.50985
826.86        75.70104
827.27        76.00545
827.68        76.32951
828.08        76.55212
828.49        76.56499
828.90        76.43842
829.31        76.25817
829.72        76.17463
830.12        76.25377
830.53        76.40569
830.94        76.57403
831.35        76.62802
831.75        76.55505
832.16        76.35168
832.57        76.11168
832.97        75.95634
833.38        75.91703
833.79         75.9641
834.20        76.04807
834.60        76.08865
835.01        76.08114
835.42        76.05051
835.82        76.04585
836.23        76.06693
836.64        76.14592
837.04        76.27982
837.45        76.41601
837.86        76.57504
838.26        76.75811
838.67         76.9472
839.08        77.10813
839.48        77.16684
839.89        77.11417
840.29        76.97186
840.70        76.82257
841.11        76.80463
841.51        76.96259
841.92         77.2149
842.33        77.48377
842.73        77.62982
843.14        77.56327
843.54        77.36436
843.95        77.09514
844.35        76.87785
844.76        76.74621
845.17        76.67256
845.57        76.65577
845.98        76.65018
846.38        76.66939
846.79        76.71304
847.19        76.78484
847.60        76.82946
848.00        76.85635
848.41        76.82257
848.81        76.79975
849.22        76.83432
849.62        76.96895
850.03         77.1676
850.43        77.35081
850.84        77.30556
851.24        77.04776
851.65        76.56619
852.05        76.11446
852.46        76.03404
852.86        76.39119
853.27         77.0596
853.67         77.6842
854.07        77.97807
854.48        77.84415
854.88        77.42577
855.29        76.78728
855.69        76.28793
856.10        75.97167
856.50        75.83134
856.90        75.79539
857.31        75.78009
857.71        75.79037
858.12        75.80653
858.52        75.84307
858.92        75.77711
859.33        75.57337
859.73        75.29609
860.13        74.96705
860.54        74.67197
860.94        74.49112
861.34         74.3698
861.75        74.31039
862.15        74.37215
862.55        74.51645
862.96        74.74436
863.36         74.9414
863.76        74.90279
864.17        74.58503
864.57        74.05647
864.97        73.50283
865.38        73.20469
865.78        73.28114
866.18        73.64762
866.58        74.10142
866.99        74.28644
867.39        74.13376
867.79        73.71648
868.19        73.26444
868.60        73.08453
869.00        73.23123
869.40        73.63686
869.80         74.0996
870.21        74.26035
870.61        74.09512
871.01        73.67626
871.41        73.21423
871.81          72.997
872.22          73.062
872.62         73.3474
873.02        73.74174
873.42        74.02549
873.82        74.11549
874.22        74.09457
874.63        74.03955
875.03        74.02669
875.43        74.09341
875.83        74.19067
876.23        74.32157
876.63        74.50435
877.03        74.71856
877.44        74.94212
877.84        75.11381
878.24        75.09544
878.64        74.86851
879.04        74.49616
879.44        74.07314
879.84        73.72305
880.24        73.48869
880.64        73.35616
881.04        73.32008
881.44        73.36658
881.84        73.47736
882.24        73.63235
882.65        73.81195
883.05        74.08105
883.45         74.3824
883.85        74.70309
884.25        74.92439
884.65        74.88455
885.05        74.57322
885.45        74.02912
885.85         73.4737
886.25         73.2914
886.65        73.56735
887.05        74.19313
887.45        74.86454
887.85        75.10616
888.25        74.81902
888.65        74.14657
889.04        73.37058
889.44        73.00914
889.84        73.16929
890.24        73.66852
890.64        74.25824
891.04        74.54688
891.44        74.43749
891.84        74.10274
892.24        73.65622
892.64        73.26227
893.04        73.00444
893.44        72.81684
893.83         72.8187
894.23        73.14544
894.63        73.79958
895.03        74.70648
895.43        75.60073
895.83        76.03864
896.23        75.92416
896.63        75.40586
897.02        74.70182
897.42        74.19019
897.82        73.96825
898.22        73.94286
898.62        74.07108
899.01        74.28677
899.41        74.52216
899.81        74.81567
900.21        75.11213
900.61        75.30656
901.00        75.35875
901.40        75.28805
901.80        75.12938
902.20        74.97181
902.59        74.85797
902.99        74.76069
903.39        74.68249
903.79        74.61079
904.18        74.54068
904.58        74.49361
904.98        74.47762
905.38         74.5051
905.77        74.55956
906.17        74.63229
906.57        74.68633
906.96        74.68487
907.36        74.59719
907.76        74.46909
908.15        74.32436
908.55         74.1292
908.95        73.93178
909.34        73.71629
909.74        73.60851
910.14        73.74357
910.53         74.1306
910.93        74.69672
911.33        75.26158
911.72        75.51571
912.12        75.37566
912.52        74.97374
912.91        74.46797
913.31        74.11507
913.70        73.98029
914.10        73.98115
914.49        74.12382
914.89        74.34879
915.29        74.62626
915.68        74.95073
916.08        75.24627
916.47        75.38725
916.87        75.36095
917.26        75.17541
917.66        74.89298
918.05        74.58622
918.45        74.29203
918.84        74.04012
919.24        73.83791
919.64        73.77445
920.03        73.88218
920.42         74.1336
920.82        74.48685
921.21         74.8595
921.61        75.20021
922.00        75.51829
922.40        75.80273
922.79        76.12748
923.19        76.44233
923.58         76.7375
923.98        76.89359
924.37        76.79753
924.77        76.43442
925.16        75.85723
925.55        75.21947
925.95         74.7777
926.34        74.62284
926.74        74.68404
927.13        74.90398
927.52         75.0726
927.92        75.14627
928.31        75.16564
928.70        75.17731
929.10        75.24052
929.49        75.36568
929.89        75.47485
930.28          75.592
930.67        75.65493
931.07        75.62593
931.46        75.54725
931.85        75.39075
932.24        75.13767
932.64        74.81527
933.03        74.47742
933.42        74.17546
933.82        73.98298
934.21        73.93084
934.60        73.98071
934.99        74.18781
935.39        74.61782
935.78        75.26926
936.17        76.08324
936.56        76.81284
936.96        77.03668
937.35        76.72704
937.74        76.00818
938.13        75.17747
938.53        74.67283
938.92        74.61072
939.31        74.86602
939.70         75.3264
940.09        75.77026
940.49         76.0675
940.88         76.3131
941.27        76.47866
941.66        76.52763
942.05        76.46935
942.44        76.29849
942.84        76.08894
943.23        75.93031
943.62        75.87361
944.01        75.89223
944.40        75.95488
944.79        75.99078
945.18        75.97144
945.57        75.92389
945.97        75.79998
946.36        75.59677
946.75        75.28462
947.14        74.85211
947.53         74.3879
947.92         74.0583
948.31        73.90996
948.70        73.92553
949.09         73.9632
949.48        73.78066
949.87        73.35868
950.26        72.80796
950.65        72.33702
951.04        72.27534
951.43         72.6917
951.82        73.44799
952.21         74.3801
952.60        75.19967
952.99        75.75287
953.38        76.08167
953.77        76.14325
954.16        75.89203
954.55        75.36066
954.94        74.57059
955.33        73.67389
955.72        72.93882
956.11        72.45441
956.50        72.18817
956.89        72.07416
957.28        71.95011
957.66        71.79567
958.05        71.67133
958.44        71.58469
958.83        71.53508
959.22        71.51791
959.61         71.4618
960.00        71.46992
960.39        71.72723
960.78        72.23842
961.16        72.99572
961.55        73.62988
961.94        73.61484
962.33        72.86777
962.72        71.60361
963.11        70.33203
963.49        69.80222
963.88        70.17384
964.27        71.23679
964.66        72.59642
965.04        73.53873
965.43        73.72324
965.82        73.39425
966.21        72.83585
966.60        72.49993
966.98         72.5171
967.37        72.68498
967.76        72.87593
968.15        72.84796
968.53        72.56142
968.92        72.19231
969.31        71.81358
969.69        71.47796
970.08        71.22215
970.47        70.99366
970.86        71.03754
971.24        71.78773
971.63        73.14288
972.02        74.87984
972.40        76.46465
972.79         77.0381
973.17        76.56918
973.56        75.24637
973.95        73.56231
974.33        72.38732
974.72        72.02607
975.11         72.2398
975.49        72.75019
975.88        73.08992
976.26        73.10051
976.65        72.96014
977.04        72.69428
977.42        72.30623
977.81        71.79032
978.19        71.06095
978.58        70.46497
978.96        70.57452
979.35        71.46587
979.74        73.03896
980.12        74.72548
980.51        75.36954
980.89        74.83317
981.28        73.29523
981.66        71.53825
982.05        71.03251
982.43        72.15237
982.82        74.38405
983.20        76.83746
983.59        77.99504
983.97        77.58254
984.35        75.98206
984.74        73.88094
985.12        72.49586
985.51        72.23983
985.89        72.78686
986.28        73.63879
986.66        74.15072
987.04        74.13042
987.43        73.77502
987.81        73.42833
988.20        73.55397
988.58        74.28543
988.96         75.3756
989.35        76.33783
989.73        76.56872
990.12          75.858
990.50        74.32056
990.88        72.37169
991.27        71.05882
991.65        70.85776
992.03        71.53067
992.42          72.397
992.80        72.81854
993.18        72.53658
993.56        71.72468
993.95        70.76038
994.33        70.37514
994.71        70.93836
995.10         71.9827
995.48        73.02751
995.86        73.53222
996.24        73.43236
996.63        72.78897
997.01        71.94996
997.39        71.55338
997.77        71.86366
998.15        72.74439
998.54        73.51717
998.92        73.24452
999.30        71.77778
999.68         69.3576
1000.06        66.95624
1000.45           66.32
1000.83        67.94359
1001.21        71.17157
1001.59        74.64751
1001.97        76.40989
1002.35        76.01649
1002.73        73.97385
1003.12        71.16392
1003.50        69.42723
1003.88        69.53031
1004.26        70.69086
1004.64        72.27374
1005.02        73.52045
1005.40         74.2357
1005.78        74.84653
1006.16        75.03217
1006.54        74.16045
1006.92        72.23148
1007.30         69.3321
1007.69        66.65891
1008.07        66.15826
1008.45        68.21635
1008.83        72.15204
1009.21        76.31329
1009.59        78.28936
1009.97        77.47175
1010.35        74.28925
1010.73        69.71323
1011.11        66.50856
1011.49        66.16413
1011.86        68.00666
1012.24        70.75105
1012.62        72.82121
1013.00        73.76297
1013.38        74.16644
1013.76        74.23049
1014.14        74.15906
1014.52        74.12778
1014.90        73.99661
1015.28        73.91447
1015.66        74.30735
1016.04        75.20802
1016.41        76.45644
1016.79        77.75288
1017.17        79.01262
1017.55        80.12183
1017.93        81.19881
1018.31         81.7494
1018.69        80.94214
1019.06        78.72153
1019.44         75.2143
1019.82        71.60139
1020.20        70.43408
1020.58        72.37047
1020.95        76.27374
1021.33        80.47233
1021.71        82.79574
1022.09          82.814
1022.46        81.18536
1022.84        78.29324
1023.22        74.66341
1023.60        70.61559
1023.97        65.65015
1024.35        60.70858
1024.73         57.6805
