SpectraSmart Spectrum 2.9.0.0
--------- Device Information -----------
Spectrum Name :  反射率_0
Saving Time :  2024/04/27 22:32:53
Spectro-Module Model Name : SE2030-DUVN
Spectro-Module Serial Number : OS361AC55029948
Wavelength Start : 200
Wavelength End : 1025
Wavelength Unit : Wavelength(nm)
Spectrum Unit : Reflectance(%)
-----------Spectrum Setting ------------
Integration Time : 20ms
Average : 10
Boxcar : 0
Background removal :  enabled
linearity correction :  enabled
SC :  disabled
Intensity correction :  disabled
DWT denoise :  enabled
savitzky-golay :  disabled
FFT :  disabled
Running average :  disabled
Kalman :  disabled
High pass :  disabled
---------------BEGIN--------------------
Wavelength(nm)             Reflectance(%)
200.29               0
200.75       -10.42075
201.21        21.33011
201.67        41.90825
202.13        46.38081
202.58        40.72903
203.04        29.38661
203.50        18.89595
203.96        18.32241
204.42        27.02207
204.88        39.67083
205.34        50.61884
205.80        55.17442
206.26        52.72323
206.72        42.48392
207.18        23.98485
207.64        10.31013
208.10        13.28013
208.55        25.44209
209.01        33.03276
209.47        30.49541
209.93         15.1137
210.39       -28.94944
210.85         -166.19
211.31       -341.7676
211.77       -149.1053
212.23       -17.13581
212.69         29.6612
213.14        42.54324
213.60        39.22416
214.06        23.66272
214.52       -5.077448
214.98       -21.95598
215.44       -5.291424
215.90        19.96281
216.36        39.30266
216.81        50.07426
217.27        55.01084
217.73        57.73184
218.19         57.3982
218.65        51.55665
219.11        39.89082
219.57        22.06533
220.02        2.440073
220.48       -5.671741
220.94          1.4979
221.40        18.16837
221.86         36.0043
222.32        46.69934
222.77        50.05895
223.23        49.38112
223.69        46.76251
224.15        44.06673
224.61        41.87223
225.06        39.31595
225.52        37.39784
225.98        37.70928
226.44        39.86498
226.90        42.57624
227.36        44.74931
227.81        45.54179
228.27         44.9879
228.73        43.40601
229.19        40.60535
229.65        36.52368
230.10        31.66051
230.56        26.77538
231.02        22.74848
231.48         20.7108
231.93        20.64038
232.39        22.03638
232.85        24.43391
233.31        27.15215
233.77        29.80184
234.22        32.55504
234.68        34.65427
235.14        35.28854
235.60        34.38779
236.05        31.82012
236.51        28.89013
236.97        28.46237
237.43        31.54848
237.88        37.61595
238.34        43.80105
238.80        46.94697
239.26        46.25404
239.71        41.04976
240.17        32.11416
240.63        28.94236
241.08        38.45588
241.54        52.97472
242.00        63.97013
242.46        68.65866
242.91        68.31615
243.37        62.41619
243.83        47.44078
244.28        26.77728
244.74        22.99397
245.20        38.14686
245.66        52.36251
246.11        55.99734
246.57        50.33094
247.03         36.1375
247.48         13.0979
247.94       -3.737074
248.40        2.206963
248.85        21.78698
249.31        42.51518
249.77        54.92922
250.22        59.32959
250.68        59.69335
251.14        58.61324
251.59        58.03471
252.05        58.29108
252.51        58.30664
252.96        56.90311
253.42        53.38744
253.88        48.50407
254.33         44.9744
254.79        42.93832
255.25        40.99756
255.70        39.16582
256.16        38.08435
256.62        38.73737
257.07        42.14682
257.53        47.23766
257.99        52.17796
258.44        55.65114
258.90        56.92231
259.35        56.11713
259.81        54.42936
260.27        52.16663
260.72        49.71342
261.18        47.63122
261.63        45.65363
262.09        44.17083
262.55         43.2963
263.00        42.87388
263.46        42.89326
263.91        42.97765
264.37        42.88735
264.83        42.50615
265.28         41.9094
265.74        41.27894
266.19        40.69342
266.65        40.22738
267.11        39.79264
267.56        39.30703
268.02        38.75061
268.47        38.07884
268.93        37.33214
269.38        36.57582
269.84        35.92413
270.30        35.39059
270.75        34.94172
271.21        34.46821
271.66        33.75967
272.12        32.81992
272.57        31.71058
273.03        30.63943
273.48         29.8446
273.94        29.42236
274.39        29.24311
274.85        29.20071
275.31        29.08071
275.76        28.80268
276.22        28.44013
276.67        28.00853
277.13        27.61448
277.58        27.23542
278.04        26.88431
278.49        26.47023
278.95        25.96719
279.40        25.34382
279.86        24.69584
280.31        24.08679
280.77        23.70703
281.22        23.54157
281.68        23.55687
282.13        23.62386
282.59        23.60166
283.04        23.44311
283.50        23.19868
283.95        22.92846
284.41        22.75502
284.86        22.69296
285.32        22.72395
285.77        22.76124
286.22         22.7129
286.68        22.58038
287.13        22.36526
287.59         22.1897
288.04        22.16485
288.50        22.33017
288.95        22.61556
289.41        22.90749
289.86        22.99604
290.32         22.8697
290.77        22.59632
291.22         22.3325
291.68        22.30543
292.13        22.55748
292.59        23.03159
293.04         23.6023
293.50        24.09705
293.95         24.4587
294.40        24.74766
294.86        25.05536
295.31        25.51477
295.77         26.1616
296.22        26.93238
296.68        27.74002
297.13        28.42661
297.58        28.95975
298.04        29.38735
298.49        29.79247
298.95        30.31639
299.40        30.98259
299.85        31.73627
300.31        32.52409
300.76         33.2202
301.21        33.79612
301.67         34.3009
302.12        34.72438
302.58        35.09385
303.03        35.41123
303.48        35.67805
303.94        35.97392
304.39        36.37268
304.84        36.89191
305.30        37.50442
305.75        38.08233
306.20        38.47289
306.66        38.65737
307.11        38.65444
307.57        38.58787
308.02         38.5827
308.47        38.69073
308.93        38.87443
309.38        39.03719
309.83        39.06228
310.29        38.94061
310.74        38.70724
311.19        38.45843
311.65        38.33669
312.10        38.35417
312.55        38.46471
313.00        38.59216
313.46        38.62346
313.91        38.52089
314.36        38.32387
314.82        38.06102
315.27        37.77586
315.72        37.49269
316.18        37.20699
316.63         36.9257
317.08        36.68242
317.53        36.48402
317.99        36.32868
318.44        36.19921
318.89        36.04523
319.35        35.85503
319.80        35.63905
320.25        35.42422
320.70        35.26315
321.16         35.1538
321.61        35.07747
322.06        34.98821
322.51        34.81751
322.97        34.54583
323.42        34.21504
323.87        33.84444
324.32        33.47581
324.78        33.12842
325.23        32.79715
325.68        32.51268
326.13        32.32969
326.59        32.23741
327.04        32.24345
327.49        32.25056
327.94        32.10622
328.39        31.77255
328.85        31.27609
329.30        30.73247
329.75        30.33426
330.20        30.14464
330.66        30.10593
331.11        30.13291
331.56        30.02849
332.01        29.74133
332.46        29.32891
332.92         28.8864
333.37        28.60929
333.82        28.54016
334.27        28.61003
334.72        28.72561
335.17        28.73835
335.63        28.59217
336.08        28.35468
336.53        28.05027
336.98        27.73105
337.43        27.43326
337.88        27.14709
338.34        26.91131
338.79         26.7957
339.24        26.80729
339.69        26.92484
340.14         27.0891
340.59        27.19689
341.05        27.21218
341.50        27.16145
341.95        27.05051
342.40        26.90515
342.85         26.7413
343.30         26.5475
343.75        26.35614
344.20        26.22232
344.66        26.15932
345.11        26.15576
345.56        26.16377
346.01        26.09756
346.46        25.94092
346.91        25.72099
347.36        25.49759
347.81        25.36112
348.26        25.33238
348.72        25.38437
349.17        25.46046
349.62        25.47126
350.07        25.39127
350.52        25.23875
350.97        25.07604
351.42        25.00261
351.87         25.0348
352.32        25.13921
352.77        25.22321
353.22        25.14897
353.67        24.89524
354.13        24.52333
354.58        24.12276
355.03        23.88631
355.48        23.86018
355.93        23.99127
356.38        24.16744
356.83        24.21137
357.28        24.08258
357.73        23.84031
358.18        23.57863
358.63        23.44322
359.08        23.46292
359.53        23.57512
359.98         23.7043
360.43        23.73923
360.88        23.64665
361.33        23.46239
361.78        23.21089
362.23        22.96529
362.68        22.75969
363.13        22.51641
363.58        22.22932
364.03        22.24737
364.48         21.9946
364.93        21.93287
365.38         21.8889
365.83        21.87191
366.28        21.86465
366.73        21.86148
367.18        21.83501
367.63        21.73004
368.08        21.54074
368.53        21.28853
368.98        21.00703
369.43        20.75099
369.88        20.54559
370.33        20.38458
370.78        20.27178
371.23        20.21044
371.68        20.18915
372.13        20.19444
372.58        20.20825
373.03         20.1984
373.48        20.15332
373.93        20.08844
374.38        19.97692
374.83        19.78127
375.28        19.50984
375.72        19.16578
376.17        18.86875
376.62        18.76564
377.07        18.87093
377.52         19.1246
377.97        19.38779
378.42         19.4401
378.87        19.23871
379.32         18.8687
379.77        18.43704
380.22        18.10598
380.67        17.92374
381.11        17.83517
381.56        17.82367
382.01        17.86174
382.46        17.92438
382.91        18.02365
383.36        18.10147
383.81        18.06217
384.26        17.89408
384.71        17.62182
385.15        17.32158
385.60        17.15079
386.05        17.13412
386.50        17.23256
386.95         17.3757
387.40        17.44941
387.85         17.4263
388.29        17.33388
388.74         17.2398
389.19        17.20022
389.64        17.22159
390.09        17.26442
390.54        17.29892
390.98         17.2799
391.43        17.20497
391.88         17.1024
392.33        16.96283
392.78        16.79722
393.23        16.62582
393.67        16.37614
394.12        16.12654
394.57        16.17495
395.02         16.2388
395.47        16.26286
395.91        16.15864
396.36        16.10305
396.81        16.09629
397.26         16.0318
397.71        15.91752
398.15        15.82544
398.60        15.78008
399.05        15.69852
399.50        15.61089
399.95        15.66134
400.39        15.79874
400.84        15.78235
401.29        15.61213
401.74        15.44396
402.18        15.32658
402.63         15.2903
403.08        15.31194
403.53        15.26785
403.97        15.15535
404.42        15.07125
404.87        15.03143
405.32        15.02847
405.76        15.06016
406.21        15.08477
406.66        15.09929
407.11        15.17308
407.55        15.25884
408.00        15.19909
408.45        15.00529
408.90        14.75504
409.34        14.53644
409.79        14.52985
410.24         14.6887
410.68         14.7478
411.13        14.68308
411.58        14.65766
412.03        14.68347
412.47        14.70084
412.92        14.70078
413.37        14.70209
413.81        14.69425
414.26        14.67413
414.71        14.63857
415.15           14.59
415.60        14.53746
416.05        14.50341
416.49         14.4948
416.94        14.50133
417.39         14.5115
417.83         14.5083
418.28        14.48082
418.73        14.42888
419.17        14.36181
419.62        14.29792
420.07        14.24983
420.51        14.22272
420.96        14.19851
421.41        14.16571
421.85        14.11913
422.30        13.99826
422.74        13.86717
423.19        13.99669
423.64        14.32558
424.08        14.46902
424.53        14.35402
424.98        14.27928
425.42        14.25654
425.87        14.01971
426.31        13.66861
426.76        13.65458
427.21        13.91329
427.65        13.93282
428.10        13.73209
428.54         13.6903
428.99        13.80687
429.44        14.00492
429.88        14.16354
430.33        13.92721
430.77        13.44878
431.22        13.33228
431.66        13.58505
432.11        13.79993
432.56        13.91167
433.00        14.03617
433.45        14.02176
433.89        13.73732
434.34        13.44535
434.78        12.71785
435.23        13.20042
435.67        13.64053
436.12        13.86666
436.57        14.01293
437.01        13.95238
437.46        13.91754
437.90        13.97598
438.35        14.05571
438.79        13.73407
439.24        13.60707
439.68        13.57175
440.13        13.57875
440.57        13.59034
441.02         13.6696
441.46         13.7686
441.91        13.58931
442.35        13.26617
442.80        13.40877
443.24        13.89949
443.69        13.94362
444.13        13.54871
444.58        13.37584
445.02        13.42733
445.47        13.35739
445.91        13.17835
446.36        13.09586
446.80        13.11718
447.24        13.17959
447.69        13.26485
448.13         13.3806
448.58        13.49529
449.02        13.54436
449.47        13.53957
449.91        13.56344
450.36        13.62219
450.80        13.65828
451.25        13.67197
451.69        13.68914
452.13        13.70446
452.58        13.70137
453.02        13.66767
453.47        13.59114
453.91        13.47289
454.36        13.34471
454.80        13.21444
455.24        13.08038
455.69        12.98351
456.13        12.93615
456.58        12.94688
457.02        13.07418
457.46        13.23255
457.91        13.19284
458.35        13.03708
458.79        12.97164
459.24         13.0239
459.68        13.06003
460.13        13.07609
460.57        13.04677
461.01        13.02867
461.46        13.03876
461.90        13.01387
462.34        12.99599
462.79        13.18536
463.23        13.22516
463.68        13.18246
464.12        13.13779
464.56        13.10988
465.01        13.13341
465.45        13.15643
465.89        13.09799
466.34        13.00292
466.78        12.93682
467.22        12.89636
467.67        13.14638
468.11        13.09516
468.55        13.07484
468.99        12.94755
469.44        12.90242
469.88        12.94753
470.32        12.97783
470.77        12.98956
471.21        13.01729
471.65         13.0602
472.10        13.10907
472.54         13.1511
472.98        13.18521
473.42         13.2131
473.87        13.19917
474.31         13.1598
474.75        13.24533
475.20        13.41195
475.64        13.40725
476.08        13.25299
476.52        13.23488
476.97        13.37516
477.41         13.3987
477.85        13.41889
478.29        13.59397
478.74        13.57236
479.18        13.51611
479.62        13.77279
480.06        13.84518
480.50        13.87865
480.95        13.86741
481.39        13.81046
481.83        14.00753
482.27        14.04383
482.72        14.02942
483.16        14.26317
483.60        14.33385
484.04        14.34524
484.48        14.36904
484.93        14.54207
485.37        14.50859
485.81        14.85114
486.25         15.3175
486.69        14.84789
487.14        14.55877
487.58        15.48882
488.02        15.37195
488.46        15.01895
488.90        15.43643
489.34        15.15222
489.79        15.20843
490.23        15.56004
490.67        15.82031
491.11        16.05097
491.55        16.07323
491.99        15.96932
492.43        16.02193
492.88        16.25343
493.32        16.47974
493.76        16.66745
494.20        16.88714
494.64        17.14141
495.08        17.36017
495.52        17.53209
495.96        17.79129
496.41        18.11956
496.85        18.04222
497.29        17.71838
497.73        17.87254
498.17        18.44028
498.61        18.79573
499.05        18.82986
499.49        18.84148
499.93        18.88283
500.37        18.90277
500.82        18.93683
501.26        19.08671
501.70        19.37355
502.14        19.36817
502.58         19.7225
503.02        19.86534
503.46        19.90567
503.90        19.89086
504.34        19.84482
504.78        19.87031
505.22        19.97724
505.66        20.09931
506.10        20.22328
506.54        20.38351
506.98        20.57355
507.42        20.68626
507.86        20.86028
508.30        20.92824
508.74        20.93549
509.18        20.88716
509.62        20.82824
510.06          20.831
510.50        20.91111
510.94         21.0493
511.38        21.20562
511.82        21.31441
512.26        21.35634
512.70        21.35113
513.14        21.32399
513.58        21.30724
514.02        21.31222
514.46         21.3432
514.90        21.39009
515.34        21.36215
515.78        21.37913
516.22        21.35242
516.66        21.33563
517.10        21.34983
517.54        21.39841
517.98        21.46695
518.42        21.53473
518.86        21.57345
519.30         21.5732
519.74        21.54282
520.18        21.48965
520.62        21.42432
521.06        21.35489
521.50        21.28512
521.93        21.22918
522.37        21.17905
522.81        21.13546
523.25        21.13452
523.69        21.18512
524.13        21.08779
524.57        21.17334
525.01        21.16647
525.45        21.14573
525.89        21.06884
526.32        20.93398
526.76        20.76304
527.20        20.58127
527.64        20.44193
528.08        20.35927
528.52        20.31462
528.96        20.30555
529.40        20.32624
529.83          20.363
530.27        20.41522
530.71        20.44269
531.15        20.38299
531.59        20.22994
532.03        20.00583
532.46        19.76507
532.90        19.60978
533.34        19.56302
533.78        19.59789
534.22        19.67468
534.66           19.73
535.09        19.74178
535.53        19.73106
535.97        19.70896
536.41        19.69529
536.85        19.69684
537.28        19.70572
537.72        19.71535
538.16        19.71574
538.60         19.7086
539.04        19.70643
539.47        19.71749
539.91        19.76398
540.35        19.84377
540.79        19.95269
541.22        20.07595
541.66        20.19067
542.10        20.28888
542.54        20.37777
542.97        20.46122
543.41        20.55798
543.85        20.67084
544.29        20.79717
544.72        20.93357
545.16         21.0913
545.60        21.26359
546.04        21.44671
546.47        21.63918
546.91        21.83273
547.35        22.02049
547.79         22.2123
548.22        22.39263
548.66        22.53419
549.10        22.65166
549.53        22.83349
549.97        23.07774
550.41        23.30143
550.84         23.4972
551.28         23.7164
551.72        23.94778
552.15        24.14432
552.59        24.30625
553.03        24.43798
553.46        24.55215
553.90        24.68873
554.34        24.85094
554.77        25.03688
555.21        25.22275
555.65        25.37024
556.08        25.44705
556.52        25.52595
556.96        25.61245
557.39        25.75278
557.83        25.93214
558.27        26.02689
558.70        26.05243
559.14        26.13121
559.57         26.2606
560.01        26.40785
560.45        26.53183
560.88        26.55577
561.32        26.53069
561.75        26.54189
562.19        26.61784
562.63        26.78689
563.06         26.9894
563.50        27.01456
563.93        26.89906
564.37        26.94051
564.80        27.14221
565.24        27.34939
565.68        27.53257
566.11        27.70642
566.55        27.86712
566.98        28.02931
567.42        28.18624
567.85        28.25149
568.29        28.28026
568.72        28.35477
569.16        28.48775
569.60        28.70537
570.03        29.03244
570.47         29.1203
570.90        29.27798
571.34        29.93884
571.77        29.93666
572.21        29.93735
572.64         30.2161
573.08        30.24097
573.51        30.64256
573.95        30.83378
574.38         30.9214
574.82        30.68773
575.25        30.86016
575.69        30.73267
576.12        30.69933
576.56        31.26675
576.99        31.34733
577.42        31.02274
577.86        31.03357
578.29        31.35807
578.73        30.95642
579.16        30.97646
579.60        30.97874
580.03        30.88105
580.47        30.63487
580.90        30.64601
581.33        30.52108
581.77        30.41014
582.20        30.19515
582.64        29.93004
583.07        29.91629
583.51         29.6958
583.94        29.46613
584.37        29.36615
584.81        29.41573
585.24        29.31864
585.68        29.11623
586.11        29.03605
586.54        28.83101
586.98        28.79062
587.41        28.73294
587.85        28.42505
588.28        28.37064
588.71        28.57557
589.15        28.54611
589.58        28.24856
590.01         28.5635
590.45         28.5629
590.88        27.89658
591.31         27.8683
591.75        28.24005
592.18        28.33893
592.61        28.17014
593.05        28.33174
593.48        28.66756
593.91          28.334
594.35        28.44004
594.78        28.64799
595.21         28.7797
595.65        28.94582
596.08        28.96044
596.51        29.34466
596.94        29.30354
597.38         29.6255
597.81        30.10756
598.24         30.1271
598.68        30.72483
599.11        31.10043
599.54        31.24385
599.97        31.63202
600.41        32.21328
600.84        32.61399
601.27        32.82658
601.70        33.10314
602.14        33.18785
602.57        33.87399
603.00         34.6297
603.43        35.20417
603.87        35.63764
604.30         35.9938
604.73        36.26325
605.16        37.07308
605.60        37.33535
606.03        37.91662
606.46        38.42414
606.89        38.83163
607.32        39.09213
607.76        39.82219
608.19        39.89117
608.62        40.20844
609.05        40.50434
609.48        40.88942
609.92        41.31803
610.35        41.73261
610.78         42.1455
611.21        42.14734
611.64        42.87677
612.07        43.12507
612.50        43.23408
612.94         43.4677
613.37        43.88986
613.80         43.9351
614.23        44.36826
614.66        44.59481
615.09        44.83297
615.52        45.19951
615.96        45.68783
616.39        45.68386
616.82        45.97792
617.25        46.20306
617.68        46.20853
618.11        46.42168
618.54        46.71655
618.97        47.01262
619.40         47.2676
619.84        47.48979
620.27        47.79581
620.70        47.93724
621.13        47.88615
621.56        48.29951
621.99        48.04113
622.42        47.94726
622.85        48.18209
623.28         48.1554
623.71        48.49809
624.14        48.10952
624.57        48.14213
625.00        48.29867
625.43        48.06847
625.86        48.15091
626.29        48.27448
626.72         48.0395
627.15        47.87029
627.58        47.58164
628.01        47.40398
628.44        46.86916
628.87        46.72888
629.30        46.58606
629.73        46.52549
630.16        45.91964
630.59        45.78648
631.02        45.43071
631.45        45.13832
631.88        44.76297
632.31        44.30885
632.74        43.80873
633.17        43.32563
633.60        42.89685
634.03        42.54412
634.46         42.1844
634.89        41.93071
635.32        41.46814
635.75        40.86057
636.18        40.30259
636.61        39.83286
637.04        39.33739
637.47        38.85036
637.89        38.53876
638.32         38.3403
638.75        38.05511
639.18        37.66116
639.61        37.25364
640.04        36.85923
640.47        36.49762
640.90        36.18626
641.33        35.90478
641.76        35.64903
642.18        35.50322
642.61        35.32561
643.04         35.2267
643.47        35.16764
643.90        35.15084
644.33         35.1712
644.76        35.22786
645.18        35.30486
645.61        35.37135
646.04        35.42529
646.47        35.47607
646.90        35.55788
647.33        35.72114
647.75        35.98179
648.18        36.34108
648.61        36.75782
649.04        37.15562
649.47        37.52468
649.89        37.88548
650.32        38.28402
650.75         38.8133
651.18        39.43988
651.61        40.08474
652.03        40.66884
652.46        41.06319
652.89          41.346
653.32         41.9913
653.74        42.13695
654.17        43.34515
654.60        43.44721
655.03        43.83641
655.46        44.45918
655.88        45.32421
656.31        46.72786
656.74        48.96878
657.16           48.96
657.59        49.11179
658.02        48.04341
658.45        48.20524
658.87        48.96767
659.30        49.23275
659.73        49.28386
660.15        49.17743
660.58        49.85812
661.01        50.33579
661.44        50.78083
661.86        51.09628
662.29        51.26925
662.72        51.36406
663.14        51.44515
663.57        51.61729
664.00         51.8749
664.42        52.05605
664.85        52.16879
665.27        52.34399
665.70        52.57085
666.13        52.76014
666.55        52.90589
666.98        53.03048
667.41        53.15631
667.83        53.31199
668.26        53.49911
668.69         53.7184
669.11         53.9341
669.54        54.10411
669.96        54.22703
670.39        54.24424
670.82        54.23082
671.24        54.44332
671.67        54.82579
672.09        55.02517
672.52        55.03513
672.94        55.04301
673.37        55.08955
673.80        55.15167
674.22         55.2459
674.65        55.31791
675.07        55.38645
675.50        55.50029
675.92        55.65212
676.35        55.77896
676.77        55.87729
677.20        55.96617
677.62        56.06396
678.05        56.18184
678.47         56.3225
678.90        56.48717
679.32        56.65582
679.75        56.80742
680.17        56.93379
680.60        57.05119
681.02        57.15982
681.45        57.22378
681.87        57.31109
682.30        57.32627
682.72        57.32136
683.15        57.45793
683.57        57.70272
684.00        57.75576
684.42        57.65418
684.85         57.7113
685.27         57.9307
685.70        58.13501
686.12        58.28958
686.54        58.44167
686.97        58.56357
687.39        58.64725
687.82        58.69984
688.24        58.61853
688.66        58.69694
689.09        58.68787
689.51        58.70228
689.94        58.75553
690.36        58.86416
690.78        58.98214
691.21        59.09349
691.63         59.2541
692.06        59.41155
692.48        59.37151
692.90        59.20132
693.33        59.16037
693.75        59.27364
694.17        59.45301
694.60        59.63877
695.02        59.69672
695.44        59.64981
695.87        59.77217
696.29        60.04759
696.71        60.19803
697.14        60.21572
697.56        60.32895
697.98        60.52108
698.41        60.68563
698.83        60.80443
699.25        60.94236
699.68        61.07414
700.10        61.19089
700.52        61.27998
700.94        61.34512
701.37        61.38372
701.79        61.42919
702.21        61.47048
702.64        61.51083
703.06        61.54532
703.48        61.58284
703.90        61.63365
704.33         61.7014
704.75        61.77693
705.17        61.82201
705.59        61.82309
706.01        61.76066
706.44         61.6998
706.86        61.79942
707.28        61.88581
707.70        62.24489
708.12        62.68751
708.55         62.5746
708.97        62.06488
709.39        62.18247
709.81        62.87137
710.23        63.14809
710.66        62.95417
711.08        62.88095
711.50        62.97014
711.92          63.039
712.34        63.10075
712.76          63.204
713.19        63.32404
713.61        63.46011
714.03        63.58366
714.45         63.6862
714.87        63.76791
715.29        63.83693
715.71        63.89465
716.13        63.93923
716.56        63.94821
716.98        63.95562
717.40        63.94848
717.82        63.93386
718.24        63.93854
718.66        64.00376
719.08        64.13261
719.50        64.30359
719.92        64.48724
720.34        64.63465
720.76        64.72964
721.19        64.78255
721.61        64.80119
722.03        64.77116
722.45        64.70188
722.87        64.59628
723.29         64.5131
723.71         64.5463
724.13        64.71267
724.55        64.99143
724.97        65.30228
725.39        65.48503
725.81        65.49744
726.23        65.42158
726.65        65.35502
727.07        65.21425
727.49        65.42028
727.91        65.61894
728.33        65.83982
728.75        65.93084
729.17        65.86074
729.59        65.67844
730.01        65.46853
730.43        65.37289
730.85        65.42796
731.27        65.58775
731.69        65.79276
732.10        65.95703
732.52        66.04144
732.94         66.0936
733.36        66.14024
733.78        66.16888
734.20        66.18186
734.62        66.40928
735.04        66.33368
735.46        66.47023
735.88        66.61552
736.30        66.52129
736.72        66.25558
737.13        66.20181
737.55        66.34256
737.97        66.47234
738.39        66.54222
738.81        66.45309
739.23        66.28179
739.65        66.45251
740.06        66.83899
740.48        66.95248
740.90        66.73995
741.32        66.55349
741.74        66.37523
742.16        66.30729
742.57        66.36423
742.99        66.52766
743.41         66.7559
743.83        66.96581
744.25        67.12579
744.67        67.24084
745.08        67.33428
745.50         67.4086
745.92        67.47997
746.34        67.54115
746.75        67.56103
747.17        67.49725
747.59        67.34086
748.01        67.11884
748.42        66.93797
748.84        66.89388
749.26        66.91496
749.68        67.43027
750.09        67.19896
750.51        67.28123
750.93        67.34795
751.35        67.55458
751.76        67.84075
752.18        67.85759
752.60         67.7836
753.01        67.60854
753.43        67.46976
753.85        67.41306
754.27        67.45859
754.68        67.70039
755.10        68.07623
755.52        67.90417
755.93        68.09327
756.35        67.93335
756.77        67.74875
757.18        67.78297
757.60        68.13007
758.02        68.28551
758.43         68.1153
758.85        69.18598
759.26         69.2025
759.68        68.71999
760.10         68.4687
760.51        67.56776
760.93        68.54871
761.34        68.55235
761.76          69.174
762.18        68.98564
762.59        68.47533
763.01        68.44678
763.42        68.92731
763.84        69.06031
764.26        68.88178
764.67        68.77882
765.09        68.76032
765.50        69.04736
765.92        69.62759
766.33        68.75108
766.75        68.39977
767.16        68.55269
767.58        68.31645
768.00        68.43969
768.41        68.50238
768.83        68.79922
769.24        69.18088
769.66        69.41158
770.07        69.44788
770.49        69.25948
770.90        68.99928
771.32        69.14878
771.73        69.62405
772.15        69.77819
772.56        69.59255
772.97        69.43131
773.39        69.38854
773.80        69.36757
774.22        69.09432
774.63        69.26166
775.05        69.65404
775.46        69.85242
775.88        69.77536
776.29        69.68771
776.70        69.64465
777.12         69.6463
777.53        69.72836
777.95        69.84986
778.36         69.9939
778.77        70.10069
779.19        70.15749
779.60        70.25578
780.02        70.34505
780.43        70.29132
780.84        70.16942
781.26        70.08357
781.67        70.12598
782.09        70.55021
782.50        71.09772
782.91        71.08646
783.33        70.30592
783.74        70.04162
784.15        70.26533
784.57         70.4098
784.98        70.42071
785.39         70.4026
785.81        70.38004
786.22        70.50425
786.63        70.72811
787.04        70.83758
787.46        70.82348
787.87        70.78217
788.28        70.75958
788.70         70.7534
789.11        70.76345
789.52        70.85497
789.93         70.9749
790.35        70.96201
790.76        70.86314
791.17        70.77746
791.58        70.78471
792.00        70.99973
792.41        71.33561
792.82         71.5182
793.23        71.49981
793.65         71.2634
794.06         71.0584
794.47        71.46059
794.88        72.17891
795.29        72.89983
795.71        72.26672
796.12        71.90192
796.53        71.58212
796.94        71.43204
797.35        71.48425
797.76        71.58102
798.18        71.69364
798.59        71.85555
799.00        72.04119
799.41        72.17711
799.82        72.22945
800.23        72.20496
800.64        72.10596
801.06        71.90668
801.47         71.7029
801.88         71.5849
802.29        71.58427
802.70        71.68202
803.11        71.84557
803.52        71.99651
803.93        72.10175
804.34        72.21114
804.75        72.32242
805.17        72.32398
805.58         72.2864
805.99        72.41015
806.40        72.64132
806.81        72.67217
807.22        72.49481
807.63        72.32391
808.04        72.23152
808.45        72.21732
808.86        72.29696
809.27        72.48528
809.68        72.70344
810.09        72.78978
810.50        72.70858
810.91        72.51723
811.32        72.27763
811.73        72.10725
812.14        72.05334
812.55        72.03953
812.96        72.08353
813.37        72.32254
813.78        72.68718
814.19        72.91006
814.60        72.97268
815.01        73.06583
815.42        73.19106
815.83        73.21827
816.24        73.14488
816.65        73.05456
817.05        72.97543
817.46         72.8604
817.87        72.77671
818.28        72.76942
818.69        72.84423
819.10        72.99564
819.51        73.18449
819.92        73.32672
820.33        73.39344
820.74        73.40347
821.14        73.37424
821.55        73.37537
821.96        73.40543
822.37        73.44202
822.78        73.48469
823.19        73.53428
823.60        73.58485
824.00        73.66251
824.41        73.69299
824.82        73.64053
825.23        73.50275
825.64        73.30366
826.04        73.12894
826.45        73.08057
826.86        73.19592
827.27        73.44162
827.68        73.74553
828.08        74.01722
828.49        74.14492
828.90        74.17833
829.31        74.15402
829.72        74.14078
830.12         74.1814
830.53        74.21381
830.94        74.20599
831.35        74.07301
831.75        73.83036
832.16        73.47215
832.57        73.13269
832.97        72.99811
833.38         73.1042
833.79        73.39365
834.20        73.74369
834.60        73.96596
835.01        74.02463
835.42         73.9633
835.82        73.86324
836.23        73.78977
836.64        73.80183
837.04        73.88725
837.45        73.97723
837.86        74.06211
838.26        74.14314
838.67        74.22283
839.08        74.31452
839.48        74.41457
839.89        74.51982
840.29        74.61624
840.70        74.71534
841.11        74.84531
841.51        75.02154
841.92        75.19651
842.33         75.3316
842.73        75.35802
843.14        75.21671
843.54         74.9653
843.95        74.67579
844.35        74.48531
844.76        74.42043
845.17        74.44901
845.57        74.52531
845.98        74.52619
846.38        74.44775
846.79        74.31567
847.19        74.17494
847.60        74.04494
848.00        73.96531
848.41        73.88032
848.81        73.85915
849.22        73.94377
849.62        74.16306
850.03        74.47473
850.43        74.78011
850.84        74.83614
851.24        74.64732
851.65        74.21574
852.05        73.77293
852.46        73.63567
852.86        73.88271
853.27        74.40469
853.67        74.92264
854.07        75.24559
854.48        75.28216
854.88        75.13738
855.29        74.79896
855.69        74.46234
856.10        74.11372
856.50        73.79817
856.90        73.49078
857.31        73.18271
857.71        72.92924
858.12        72.70985
858.52         72.5968
858.92        72.56076
859.33        72.57753
859.73        72.67387
860.13          72.802
860.54        72.90693
860.94        72.99566
861.34        73.03171
861.75        72.99103
862.15        72.91004
862.55        72.77596
862.96        72.61164
863.36        72.41285
863.76        72.16241
864.17        71.86691
864.57        71.54777
864.97        71.30283
865.38        71.26082
865.78        71.48026
866.18        71.90328
866.58        72.33005
866.99        72.41916
867.39        72.11811
867.79        71.50069
868.19         70.8148
868.60        70.39486
869.00        70.30927
869.40        70.49733
869.80        70.80239
870.21        70.93457
870.61        70.88162
871.01        70.69466
871.41        70.50225
871.81        70.48257
872.22        70.64636
872.62        70.93925
873.02        71.30789
873.42        71.64198
873.82        71.88303
874.22         72.0831
874.63        72.21509
875.03        72.21296
875.43        72.09577
875.83        71.85464
876.23        71.64513
876.63        71.73537
877.03        72.16081
877.44        72.83347
877.84        73.48179
878.24        73.61597
878.64        73.14749
879.04        72.26672
879.44        71.30518
879.84        70.72248
880.24        70.62009
880.64        70.86569
881.04        71.27972
881.44        71.55135
881.84        71.56903
882.24        71.41431
882.65        71.17406
883.05        71.09319
883.45        71.18517
883.85        71.37129
884.25         71.5274
884.65        71.48393
885.05        71.21471
885.45        70.78645
885.85        70.34583
886.25        70.13833
886.65        70.23156
887.05        70.55103
887.45        70.94243
887.85        71.16775
888.25        71.16531
888.65        71.00211
889.04        70.78053
889.44        70.71793
889.84        70.84217
890.24         71.0645
890.64        71.28915
891.04        71.37494
891.44        71.28859
891.84        71.10695
892.24        70.85911
892.64        70.57887
893.04        70.30831
893.44        70.04749
893.83        69.91352
894.23        70.02703
894.63         70.4159
895.03        71.01281
895.43        71.65967
895.83        72.09044
896.23        72.23003
896.63        72.15913
897.02        71.95217
897.42        71.76943
897.82        71.65556
898.22        71.57199
898.62        71.55172
899.01        71.66479
899.41        71.88523
899.81         72.2001
900.21        72.52207
900.61        72.69331
901.00        72.66691
901.40        72.51713
901.80        72.27792
902.20        72.02489
902.59        71.81003
902.99        71.59298
903.39        71.46902
903.79        71.57642
904.18        71.90926
904.58        72.42332
904.98         72.9277
905.38        73.14372
905.77        73.01114
906.17         72.6079
906.57        72.10512
906.96        71.83009
907.36        71.85352
907.76        72.10704
908.15        72.43463
908.55        72.49528
908.95        72.24404
909.34        71.78015
909.74        71.32701
910.14        71.16176
910.53        71.35949
910.93        71.80639
911.33        72.35005
911.72        72.73682
912.12        72.85963
912.52        72.80228
912.91        72.64749
913.31        72.54697
913.70        72.53297
914.10        72.54292
914.49        72.55298
914.89        72.46837
915.29        72.29258
915.68        72.07423
916.08        71.86212
916.47        71.71114
916.87          71.658
917.26        71.66787
917.66        71.74776
918.05        71.87017
918.45        72.01134
918.84        72.19799
919.24        72.37035
919.64         72.5192
920.03        72.64371
920.42        72.71436
920.82        72.75764
921.21        72.81144
921.61        72.86917
922.00        72.94386
922.40        72.97986
922.79        72.96306
923.19        72.85392
923.58         72.6964
923.98        72.50775
924.37        72.36607
924.77         72.2768
925.16        72.22498
925.55        72.17931
925.95        72.07402
926.34        71.90514
926.74        71.69402
927.13        71.54778
927.52        71.53204
927.92        71.67548
928.31        71.92023
928.70        72.23174
929.10        72.54769
929.49        72.83834
929.89        73.09135
930.28        73.31308
930.67        73.39886
931.07        73.32282
931.46           73.13
931.85        72.89652
932.24        72.78134
932.64        72.82167
933.03        72.98617
933.42        73.18931
933.82        73.28253
934.21        73.23039
934.60         73.0731
934.99        72.90125
935.39        72.84312
935.78        72.96251
936.17        73.20914
936.56        73.47678
936.96        73.57296
937.35        73.50802
937.74        73.32865
938.13        73.14567
938.53         73.1251
938.92        73.29787
939.31        73.57334
939.70         73.8931
940.09        74.15198
940.49        74.26365
940.88        74.29798
941.27        74.17862
941.66        73.79263
942.05        73.16134
942.44        72.34924
942.84        71.56646
943.23        71.09913
943.62        71.05479
944.01        71.35593
944.40        71.86294
944.79        72.30012
945.18        72.54646
945.57        72.65493
945.97        72.61846
946.36        72.51752
946.75        72.34859
947.14        72.07248
947.53        71.73684
947.92        71.44859
948.31        71.24725
948.70        71.14213
949.09        71.07329
949.48        70.92168
949.87        70.67468
950.26        70.38294
950.65        70.14766
951.04        70.12384
951.43        70.34526
951.82        70.75727
952.21        71.24963
952.60        71.63587
952.99        71.83421
953.38        71.86057
953.77         71.7837
954.16         71.7246
954.55        71.70441
954.94        71.68192
955.33        71.56413
955.72        71.20074
956.11        70.57989
956.50        69.78904
956.89        68.98511
957.28         68.4248
957.66        68.23325
958.05        68.33727
958.44        68.66375
958.83        69.07616
959.22        69.48312
959.61        69.85345
960.00        70.16022
960.39         70.3774
960.78        70.47793
961.16        70.48326
961.55        70.24017
961.94        69.62848
962.33        68.70161
962.72        67.60804
963.11        66.63091
963.49        66.15135
963.88        66.25219
964.27        66.82724
964.66        67.72817
965.04        68.67402
965.43        69.41674
965.82        70.01321
966.21        70.42154
966.60        70.62994
966.98        70.65682
967.37        70.43269
967.76         70.0297
968.15         69.5952
968.53        69.24036
968.92         69.0224
969.31        68.90728
969.69        68.78616
970.08        68.63651
970.47        68.48043
970.86        68.55807
971.24        69.26728
971.63        70.53473
972.02        72.16875
972.40        73.69702
972.79        74.35673
973.17         74.1339
973.56        73.16283
973.95        71.94939
974.33        71.37103
974.72        71.67734
975.11        72.59957
975.49         73.6583
975.88        74.06496
976.26        73.60339
976.65        72.54065
977.04        71.18713
977.42        70.04297
977.81        69.27923
978.19        68.71935
978.58        68.53816
978.96        68.96066
979.35        69.92282
979.74        71.39494
980.12         72.9072
980.51        73.46075
980.89        72.95314
981.28        71.50648
981.66        69.73981
982.05        68.88029
982.43        69.27329
982.82        70.51812
983.20        72.04251
983.59        72.77469
983.97        72.53713
984.35        71.62151
984.74        70.38658
985.12        69.44917
985.51        69.05571
985.89        69.03885
986.28        69.29058
986.66        69.75424
987.04        70.33152
987.43        71.03096
987.81        71.79275
988.20        72.38119
988.58        72.75789
988.96        72.93459
989.35        72.85616
989.73        72.58006
990.12        72.09198
990.50        71.31061
990.88        70.45949
991.27        70.06955
991.65        70.29256
992.03        71.03027
992.42        71.63882
992.80        71.50254
993.18        70.38741
993.56        68.38079
993.95        66.05526
994.33        64.81712
994.71        65.36613
995.10        66.97506
995.48        68.79693
995.86         69.8569
996.24        70.05732
996.63        69.67915
997.01        68.99845
997.39        68.51305
997.77        68.49781
998.15        68.76636
998.54        69.15649
998.92        69.52588
999.30         69.8025
999.68        70.06052
1000.06        70.36443
1000.45        70.70634
1000.83         71.1245
1001.21        71.54697
1001.59        71.84751
1001.97        71.84481
1002.35        71.54793
1002.73        71.05872
1003.12        70.55542
1003.50        70.28622
1003.88        70.37704
1004.26        70.59262
1004.64        70.95679
1005.02        71.52506
1005.40        72.24966
1005.78        73.22216
1006.16         73.8569
1006.54        73.10246
1006.92        70.85287
1007.30        67.47001
1007.69        64.29451
1008.07        63.46716
1008.45        65.46711
1008.83        69.45353
1009.21        73.95719
1009.59        76.91334
1009.97        77.76252
1010.35        76.97675
1010.73        74.86485
1011.11        72.48817
1011.49        70.64629
1011.86        69.18192
1012.24         68.2014
1012.62        68.01468
1013.00        68.56448
1013.38          69.988
1013.76        71.72364
1014.14        72.68703
1014.52        72.58473
1014.90        71.51959
1015.28        70.23209
1015.66        70.24986
1016.04         71.9705
1016.41        74.96223
1016.79         77.8592
1017.17        79.06973
1017.55        78.31718
1017.93        76.17616
1018.31        73.76484
1018.69        72.81083
1019.06        73.84949
1019.44         76.4902
1019.82         79.8128
1020.20        81.81254
1020.58        81.67213
1020.95        79.94441
1021.33        77.74298
1021.71        76.41924
1022.09        76.21268
1022.46        76.68898
1022.84        77.18636
1023.22        76.39954
1023.60        73.91206
1023.97        69.84361
1024.35        65.38959
1024.73        62.92633
