SpectraSmart Spectrum 2.9.0.0
--------- Device Information -----------
Spectrum Name :  反射率_0
Saving Time :  2024/04/27 22:37:52
Spectro-Module Model Name : SE2030-DUVN
Spectro-Module Serial Number : OS361AC55029948
Wavelength Start : 200
Wavelength End : 1025
Wavelength Unit : Wavelength(nm)
Spectrum Unit : Reflectance(%)
-----------Spectrum Setting ------------
Integration Time : 20ms
Average : 10
Boxcar : 0
Background removal :  enabled
linearity correction :  enabled
SC :  disabled
Intensity correction :  disabled
DWT denoise :  enabled
savitzky-golay :  disabled
FFT :  disabled
Running average :  disabled
Kalman :  disabled
High pass :  disabled
---------------BEGIN--------------------
Wavelength(nm)             Reflectance(%)
200.29               0
200.75        49.76837
201.21        53.51529
201.67        54.84313
202.13        54.23826
202.58        52.55944
203.04         50.6524
203.50        50.77174
203.96        55.60287
204.42        63.89122
204.88        73.26157
205.34        81.59366
205.80        87.79832
206.26        92.52247
206.72        96.85439
207.18        100.3933
207.64        99.73203
208.10        94.34734
208.55        88.31287
209.01        83.19719
209.47        78.13161
209.93        70.57214
210.39        54.04083
210.85        5.095466
211.31       -62.12224
211.77        1.625538
212.23        48.75283
212.69        66.18373
213.14        71.74633
213.60        71.33422
214.06        67.08208
214.52        58.13306
214.98         50.4929
215.44        51.87119
215.90         56.6237
216.36        61.13205
216.81        64.58968
217.27         67.1883
217.73         69.6959
218.19        71.29374
218.65        70.10719
219.11        65.69363
219.57        58.41066
220.02        49.37011
220.48        43.46814
220.94         42.7097
221.40        45.48627
221.86        50.56844
222.32        56.60051
222.77        62.61481
223.23        68.35331
223.69        72.55267
224.15          73.793
224.61        72.31226
225.06        68.59219
225.52        64.27284
225.98        62.30706
226.44         63.2249
226.90        65.37488
227.36        67.51645
227.81        68.72324
228.27        69.08295
228.73        68.93888
229.19        68.21698
229.65        66.77281
230.10        64.70779
230.56        62.44679
231.02        60.37543
231.48        59.11494
231.93        58.66967
232.39        58.93235
232.85         59.7112
233.31        60.78433
233.77        61.97956
234.22        63.34988
234.68        64.48113
235.14        64.89574
235.60        64.53526
236.05         63.3614
236.51        61.97127
236.97        61.75925
237.43        63.18505
237.88        66.01781
238.34        68.73306
238.80        69.84634
239.26         68.8831
239.71        65.47469
240.17         59.5018
240.63         55.6933
241.08        58.64104
241.54        65.04327
242.00        70.46413
242.46        73.00744
242.91        73.21657
243.37        70.97673
243.83        64.96051
244.28        56.83318
244.74        55.68089
245.20        61.91537
245.66         67.0882
246.11        66.94335
246.57        61.67106
247.03        51.11239
247.48        35.14088
247.94        24.64302
248.40        30.94425
248.85        46.92881
249.31        63.89267
249.77        75.33005
250.22          81.001
250.68        83.37251
251.14        83.77859
251.59        83.22505
252.05        81.97478
252.51        79.04784
252.96        73.66599
253.42        67.70333
253.88        63.66767
254.33        62.48475
254.79        62.65578
255.25        61.80001
255.70        59.95332
256.16        58.33037
256.62        57.91673
257.07        59.76193
257.53        63.24676
257.99        66.71233
258.44        68.94717
258.90        69.40345
259.35        68.08877
259.81        66.16717
260.27        63.93301
260.72        61.76872
261.18        60.20626
261.63        58.83926
262.09         57.9572
262.55        57.48853
263.00        57.25541
263.46         57.3341
263.91         57.4239
264.37         57.4716
264.83        57.34925
265.28         57.0607
265.74        56.69741
266.19        56.14455
266.65        55.50541
267.11        54.75293
267.56        53.96217
268.02        53.36782
268.47        52.95937
268.93        52.69596
269.38        52.46434
269.84        52.11731
270.30        51.59681
270.75        50.93924
271.21        50.17192
271.66        49.28484
272.12        48.33039
272.57        47.28367
273.03        46.25344
273.48        45.31086
273.94        44.54655
274.39        43.90892
274.85        43.39934
275.31        42.90432
275.76        42.37081
276.22        41.85428
276.67        41.34068
277.13        40.94252
277.58        40.59285
278.04        40.30103
278.49        39.92307
278.95        39.39635
279.40        38.65868
279.86        37.83555
280.31        36.97443
280.77        36.28579
281.22        35.76284
281.68        35.40973
282.13        35.13016
282.59         34.8606
283.04        34.54634
283.50        34.22862
283.95        33.91848
284.41        33.68818
284.86         33.5204
285.32         33.4104
285.77        33.27788
286.22        33.06347
286.68        32.77474
287.13        32.39986
287.59        32.03269
288.04        31.72705
288.50        31.53426
288.95        31.40523
289.41        31.31032
289.86        31.14666
290.32        30.92363
290.77        30.66221
291.22        30.43458
291.68        30.33805
292.13        30.37785
292.59         30.5353
293.04        30.74665
293.50        30.94466
293.95        31.09828
294.40        31.24163
294.86        31.41058
295.31        31.65014
295.77        31.98149
296.22        32.37169
296.68        32.81074
297.13         33.2586
297.58        33.70394
298.04        34.15336
298.49        34.59407
298.95        35.02846
299.40         35.4507
299.85        35.85778
300.31        36.27819
300.76        36.71715
301.21        37.18112
301.67        37.67089
302.12        38.12297
302.58        38.49331
303.03        38.75365
303.48        38.92786
303.94        39.10142
304.39        39.35048
304.84        39.70214
305.30        40.13183
305.75        40.52037
306.20        40.73374
306.66        40.76449
307.11        40.63435
307.57        40.47721
308.02        40.42837
308.47        40.53537
308.93        40.74696
309.38        40.95059
309.83        41.00898
310.29        40.90222
310.74        40.66832
311.19        40.38698
311.65        40.17742
312.10        40.05667
312.55        39.99262
313.00        39.95488
313.46        39.89927
313.91        39.80322
314.36        39.69023
314.82         39.5501
315.27        39.35886
315.72        39.12242
316.18        38.85524
316.63        38.58841
317.08        38.39789
317.53        38.29567
317.99        38.25139
318.44        38.23234
318.89         38.1659
319.35        38.03216
319.80        37.86068
320.25        37.65857
320.70        37.44407
321.16        37.22298
321.61        36.99163
322.06        36.78325
322.51         36.6579
322.97        36.61648
323.42        36.65895
323.87        36.70083
324.32        36.60793
324.78        36.34878
325.23        35.96972
325.68        35.56983
326.13        35.32562
326.59        35.26815
327.04        35.36449
327.49        35.50521
327.94        35.52015
328.39        35.35756
328.85         35.0602
329.30        34.70797
329.75        34.41605
330.20        34.23233
330.66          34.111
331.11        34.04091
331.56        33.95005
332.01        33.81985
332.46        33.67938
332.92        33.54559
333.37        33.47817
333.82        33.47674
334.27        33.51353
334.72        33.56881
335.17        33.61735
335.63        33.63562
336.08        33.64848
336.53        33.62328
336.98        33.52273
337.43        33.35002
337.88        33.12272
338.34        32.89952
338.79         32.7838
339.24         32.8003
339.69         32.9228
340.14        33.09448
340.59        33.21996
341.05        33.26424
341.50        33.24963
341.95        33.19615
342.40        33.14747
342.85        33.11638
343.30        33.08831
343.75         33.0419
344.20        32.94592
344.66        32.80667
345.11        32.64568
345.56        32.50484
346.01        32.44266
346.46         32.4688
346.91        32.55385
347.36        32.67528
347.81        32.79635
348.26        32.90012
348.72        33.00048
349.17        33.06258
349.62        33.03465
350.07        32.91337
350.52        32.70425
350.97        32.49773
351.42        32.44199
351.87        32.55771
352.32        32.79884
352.77        33.02993
353.22        33.04081
353.67        32.79353
354.13        32.37231
354.58        31.89336
355.03        31.59515
355.48        31.54178
355.93        31.66741
356.38        31.85752
356.83          31.933
357.28        31.84505
357.73        31.64659
358.18        31.42224
358.63        31.30205
359.08        31.30777
359.53        31.38202
359.98        31.43874
360.43        31.34956
360.88        31.09231
361.33        30.72433
361.78        30.31097
362.23        29.98656
362.68        29.79642
363.13        29.63796
363.58         29.4892
364.03        29.63824
364.48        29.53827
364.93        29.60962
365.38        29.63824
365.83        29.54509
366.28         29.3111
366.73        28.96294
367.18        28.57534
367.63         28.2622
368.08         28.0572
368.53        27.93193
368.98        27.83734
369.43        27.68729
369.88        27.46301
370.33        27.20288
370.78        26.94069
371.23        26.72962
371.68        26.58155
372.13        26.46159
372.58        26.36988
373.03        26.30939
373.48        26.27097
373.93        26.26625
374.38        26.22781
374.83        26.04698
375.28        25.71905
375.72        25.26935
376.17        24.85921
376.62        24.70082
377.07        24.82455
377.52        25.14456
377.97        25.49714
378.42        25.62525
378.87        25.46851
379.32         25.1181
379.77        24.67937
380.22        24.31175
380.67        24.06583
381.11        23.88993
381.56        23.77077
382.01        23.68961
382.46        23.63332
382.91         23.6222
383.36          23.617
383.81        23.54643
384.26        23.40014
384.71        23.19047
385.15        22.97111
385.60        22.86701
386.05        22.88632
386.50        22.99182
386.95        23.11215
387.40        23.13478
387.85        23.04067
388.29        22.86344
388.74        22.68381
389.19        22.56234
389.64        22.50985
390.09        22.48373
390.54        22.47625
390.98        22.47403
391.43        22.47517
391.88        22.48932
392.33        22.45408
392.78        22.31426
393.23        22.08531
393.67         21.6977
394.12        21.28705
394.57        21.29529
395.02        21.36503
395.47        21.41197
395.91        21.31422
396.36        21.29488
396.81          21.348
397.26         21.3364
397.71        21.26337
398.15        21.21342
398.60         21.2163
399.05        21.15884
399.50         21.0858
399.95        21.20232
400.39        21.44244
400.84        21.47702
401.29        21.29785
401.74        21.10448
402.18        20.96026
402.63         20.9095
403.08        20.92757
403.53         20.8561
403.97        20.69587
404.42        20.57927
404.87        20.52489
405.32        20.51728
405.76        20.55342
406.21        20.58007
406.66        20.59973
407.11        20.71708
407.55        20.86938
408.00        20.83697
408.45        20.62501
408.90        20.32204
409.34        20.04301
409.79        20.03959
410.24        20.25409
410.68        20.33137
411.13        20.24179
411.58        20.20744
412.03         20.2426
412.47        20.26076
412.92        20.25119
413.37        20.24413
413.81        20.22823
414.26         20.2026
414.71        20.16456
415.15        20.11779
415.60        20.07545
416.05        20.07215
416.49        20.11639
416.94        20.19257
417.39        20.27724
417.83         20.3362
418.28        20.35289
418.73        20.32678
419.17        20.27886
419.62        20.24751
420.07        20.25102
420.51        20.29003
420.96        20.32548
421.41        20.32042
421.85        20.26512
422.30         20.0814
422.74        19.87562
423.19        20.05495
423.64        20.53901
424.08         20.7719
424.53        20.64709
424.98        20.58267
425.42        20.59292
425.87         20.2923
426.31        19.83089
426.76        19.86394
427.21        20.30379
427.65        20.40195
428.10        20.16759
428.54        20.13246
428.99        20.29494
429.44         20.5453
429.88        20.73953
430.33        20.40261
430.77        19.76473
431.22        19.70323
431.66        20.18888
432.11        20.55081
432.56        20.67052
433.00        20.72844
433.45        20.57088
433.89        20.15002
434.34         19.8652
434.78        19.00647
435.23        19.93311
435.67        20.65285
436.12        20.87131
436.57        20.83413
437.01        20.45721
437.46        20.25264
437.90         20.3572
438.35        20.62224
438.79        20.35751
439.24        20.32373
439.68        20.33862
440.13        20.35697
440.57        20.36603
441.02        20.52728
441.46        20.77931
441.91        20.64816
442.35        20.27728
442.80        20.52098
443.24        21.20226
443.69        21.16595
444.13        20.48512
444.58        20.21303
445.02        20.36965
445.47        20.41769
445.91        20.32443
446.36        20.31169
446.80        20.36817
447.24        20.41995
447.69        20.46802
448.13        20.56355
448.58        20.67367
449.02        20.68369
449.47        20.60853
449.91        20.56571
450.36         20.5687
450.80        20.54683
451.25        20.50612
451.69        20.48578
452.13        20.48295
452.58        20.47029
453.02        20.44853
453.47        20.42921
453.91        20.41088
454.36        20.42276
454.80        20.43055
455.24        20.35537
455.69        20.24228
456.13        20.13504
456.58        20.08468
457.02        20.24302
457.46        20.49463
457.91        20.46641
458.35        20.27199
458.79        20.21619
459.24         20.3332
459.68        20.42361
460.13        20.46933
460.57         20.4131
461.01        20.34184
461.46        20.28793
461.90        20.17264
462.34        20.09721
462.79        20.38144
463.23        20.46186
463.68        20.42819
464.12        20.37415
464.56        20.32358
465.01        20.33935
465.45        20.35089
465.89        20.24184
466.34        20.08452
466.78         19.9765
467.22        19.91414
467.67        20.31228
468.11        20.25631
468.55        20.25752
468.99        20.09191
469.44         20.0359
469.88        20.09863
470.32        20.11924
470.77        20.10136
471.21        20.11702
471.65        20.16913
472.10        20.24047
472.54        20.30166
472.98        20.33706
473.42        20.34916
473.87        20.29169
474.31        20.20177
474.75        20.32352
475.20        20.59318
475.64        20.61316
476.08        20.41285
476.52        20.42955
476.97        20.69075
477.41         20.7673
477.85         20.8171
478.29        21.05861
478.74        20.94421
479.18        20.74005
479.62        20.99655
480.06        20.97916
480.50        20.92453
480.95        20.82327
481.39        20.67808
481.83        20.93311
482.27        20.96301
482.72        20.93593
483.16        21.28744
483.60        21.37799
484.04        21.37051
484.48        21.37097
484.93        21.53644
485.37        21.39934
485.81        21.97225
486.25        22.29022
486.69         22.0058
487.14          21.863
487.58        22.60556
488.02        22.20947
488.46        22.43025
488.90        22.87291
489.34        22.17941
489.79        21.91826
490.23        22.48459
490.67         22.7464
491.11        22.89233
491.55        22.95306
491.99        22.97946
492.43        23.08442
492.88        23.26731
493.32         23.4057
493.76        23.48359
494.20        23.60522
494.64        23.79209
495.08        23.93863
495.52        24.05508
495.96        24.37326
496.41        24.84459
496.85        24.84344
497.29        24.51256
497.73        24.71016
498.17        25.34243
498.61        25.66305
499.05        25.57482
499.49        25.47587
499.93        25.45406
500.37        25.47437
500.82         25.5418
501.26         25.6996
501.70        25.96091
502.14        25.78924
502.58        26.10384
503.02         26.2161
503.46        26.28649
503.90        26.34663
504.34        26.39107
504.78        26.49744
505.22        26.65693
505.66        26.79895
506.10         26.9112
506.54        27.04888
506.98        27.21248
507.42        27.25641
507.86         27.3863
508.30        27.42019
508.74        27.42486
509.18        27.39941
509.62        27.37334
510.06        27.38996
510.50        27.45726
510.94        27.56551
511.38        27.68836
511.82        27.78148
512.26        27.83241
512.70         27.8558
513.14        27.86781
513.58        27.88434
514.02        27.91164
514.46        27.96074
514.90        28.03242
515.34        28.03053
515.78        28.11196
516.22        28.14587
516.66        28.17771
517.10        28.19745
517.54        28.20477
517.98        28.20154
518.42        28.18176
518.86         28.1413
519.30        28.08341
519.74        28.01249
520.18        27.95035
520.62        27.92871
521.06        27.95398
521.50        28.01922
521.93        28.09752
522.37        28.13545
522.81        28.12155
523.25        28.06189
523.69        27.98849
524.13         27.9535
524.57        27.96579
525.01        28.01064
525.45        28.04014
525.89        27.97898
526.32        27.81431
526.76        27.58416
527.20        27.35419
527.64        27.23095
528.08         27.2366
528.52         27.3325
528.96         27.4591
529.40        27.52243
529.83        27.49426
530.27         27.4086
530.71        27.28915
531.15        27.17514
531.59        27.08364
532.03        27.00114
532.46        26.93326
532.90        26.90481
533.34        26.91256
533.78          26.954
534.22        27.00544
534.66        27.02759
535.09        27.00858
535.53        26.96241
535.97         26.9061
536.41        26.87372
536.85        26.87446
537.28        26.90087
537.72        26.93562
538.16        26.94667
538.60        26.93082
539.04        26.90792
539.47        26.89403
539.91        26.92784
540.35        27.00914
540.79        27.12983
541.22        27.26648
541.66        27.38438
542.10        27.47166
542.54        27.53763
542.97        27.59333
543.41        27.67375
543.85        27.78083
544.29         27.9049
544.72        28.03014
545.16        28.15166
545.60        28.26283
546.04        28.37177
546.47        28.48595
546.91        28.62631
547.35        28.79451
547.79        28.95095
548.22        29.09353
548.66        29.31101
549.10        29.56886
549.53        29.74834
549.97         29.8602
550.41        30.01488
550.84        30.21624
551.28        30.40438
551.72        30.56701
552.15        30.70981
552.59        30.83868
553.03        30.94354
553.46        31.04405
553.90        31.19371
554.34        31.39328
554.77        31.64082
555.21        31.88942
555.65        32.06268
556.08        32.11444
556.52        32.14202
556.96        32.17601
557.39        32.31079
557.83        32.53387
558.27         32.6811
558.70        32.74237
559.14         32.8242
559.57        32.91608
560.01        32.99445
560.45         33.0451
560.88        33.02814
561.32        33.01586
561.75        33.09128
562.19        33.25638
562.63        33.49482
563.06        33.71687
563.50        33.67337
563.93        33.43299
564.37        33.39871
564.80        33.58691
565.24        33.79914
565.68        33.98702
566.11        34.15728
566.55        34.30515
566.98        34.43341
567.42        34.55519
567.85         34.6491
568.29        34.75618
568.72         34.8478
569.16        34.95324
569.60        35.18126
570.03         35.5486
570.47         35.6457
570.90        35.87057
571.34        36.37516
571.77        36.41662
572.21        36.30183
572.64        36.59304
573.08        36.41043
573.51        36.76779
573.95        36.92159
574.38        36.98423
574.82        37.31244
575.25        37.12814
575.69        37.00637
576.12        37.05156
576.56        37.28698
576.99         37.2948
577.42         37.3134
577.86        37.54802
578.29        37.58447
578.73        37.38707
579.16        37.31216
579.60        37.23164
580.03        37.11815
580.47        36.97312
580.90        36.64317
581.33        36.79693
581.77        36.67596
582.20        36.65805
582.64        36.62946
583.07         36.4273
583.51        36.24315
583.94        36.14304
584.37        36.07576
584.81        36.04117
585.24        35.96992
585.68         35.8825
586.11        35.68872
586.54        35.24894
586.98        35.24738
587.41        35.47518
587.85        35.19175
588.28         35.2289
588.71         35.2049
589.15         35.4862
589.58        35.09561
590.01        35.36868
590.45        35.40574
590.88        34.73181
591.31        34.70938
591.75        35.03003
592.18        35.10981
592.61        34.98646
593.05        35.20745
593.48        35.46614
593.91        35.41549
594.35        35.41061
594.78        35.72408
595.21        35.84583
595.65        35.89967
596.08        35.69801
596.51         36.1865
596.94        36.15253
597.38        36.47685
597.81        36.80717
598.24        36.96997
598.68        37.52418
599.11        37.78051
599.54        37.90793
599.97        38.21544
600.41        38.72357
600.84        39.12641
601.27        39.44466
601.70        39.46355
602.14        39.79832
602.57        40.34174
603.00        40.81471
603.43        41.21753
603.87        41.65348
604.30        41.98775
604.73        42.55506
605.16        43.07001
605.60        43.47071
606.03        43.96304
606.46        44.44062
606.89        44.87372
607.32        45.02565
607.76        45.77799
608.19         45.7713
608.62        46.11586
609.05        46.36847
609.48        46.74086
609.92        47.18524
610.35        47.46187
610.78        47.88277
611.21        48.05437
611.64        48.54727
612.07        48.83714
612.50        49.05717
612.94         49.3138
613.37        49.64628
613.80        49.78011
614.23        50.08221
614.66        50.36846
615.09        50.69542
615.52        51.02337
615.96        51.38226
616.39        51.30549
616.82        51.69818
617.25        52.06744
617.68        52.18652
618.11        52.41403
618.54        52.44359
618.97        52.83261
619.40        53.05028
619.84        53.52496
620.27        53.53501
620.70        53.63192
621.13        53.60368
621.56        53.94959
621.99        53.75701
622.42        53.82293
622.85        54.08495
623.28        54.41325
623.71        54.36247
624.14        53.99253
624.57        54.21082
625.00         54.3833
625.43        54.06903
625.86        54.05287
626.29        54.10726
626.72        54.05569
627.15         53.8963
627.58        53.77354
628.01        53.74977
628.44        53.34815
628.87        52.91597
629.30        53.02467
629.73        52.54033
630.16        51.80124
630.59        51.84036
631.02        51.64248
631.45        51.53781
631.88        51.36258
632.31        51.12005
632.74        50.59452
633.17        50.30134
633.60        49.86543
634.03        49.44675
634.46        49.02476
634.89        48.60553
635.32        48.18222
635.75        47.75124
636.18         47.3528
636.61        46.96795
637.04         46.5056
637.47         45.9897
637.89         45.5596
638.32        45.20898
638.75        44.85795
639.18        44.51161
639.61         44.2299
640.04        43.99105
640.47        43.73536
640.90        43.45542
641.33        43.15368
641.76        42.84378
642.18        42.65492
642.61        42.42952
643.04        42.29005
643.47        42.19037
643.90        42.13746
644.33        42.12705
644.76        42.16301
645.18        42.22719
645.61        42.27929
646.04        42.31533
646.47        42.34521
646.90        42.40644
647.33         42.5569
647.75        42.81341
648.18        43.17084
648.61        43.58076
649.04        43.96501
649.47        44.31181
649.89         44.6161
650.32        44.92524
650.75        45.40308
651.18        46.00394
651.61        46.46911
652.03        46.75816
652.46        47.02324
652.89        47.40381
653.32        47.70689
653.74        48.22045
654.17        49.04167
654.60        49.89761
655.03        49.72229
655.46        50.42438
655.88        51.21793
656.31        51.96067
656.74        53.47303
657.16        53.48242
657.59        53.73252
658.02        52.85046
658.45        53.75375
658.87        54.40826
659.30        53.97033
659.73        54.24332
660.15        54.42962
660.58        54.99667
661.01        55.46832
661.44        55.75667
661.86        55.97802
662.29        56.14176
662.72        56.25559
663.14        56.40548
663.57        56.76311
664.00        57.25773
664.42         57.5641
664.85        57.66475
665.27        57.74641
665.70        57.86177
666.13          58.014
666.55        58.22568
666.98        58.49329
667.41        58.78495
667.83         59.0411
668.26        59.23498
668.69        59.39129
669.11        59.53398
669.54         59.6961
669.96        59.89623
670.39        60.10827
670.82        60.32697
671.24        60.56808
671.67        60.82423
672.09        61.01638
672.52        61.16126
672.94        61.38338
673.37         61.6528
673.80         61.6997
674.22        61.59229
674.65        61.69274
675.07        62.00361
675.50        62.16724
675.92        62.19199
676.35         62.3146
676.77        62.54269
677.20        62.75343
677.62        62.94007
678.05        63.09901
678.47        63.21889
678.90        63.35958
679.32        63.55111
679.75        63.56976
680.17        63.87158
680.60        64.08878
681.02           64.31
681.45        64.44048
681.87        64.48303
682.30        64.41715
682.72        64.32291
683.15        64.42464
683.57        64.71779
684.00        64.91534
684.42        65.01176
684.85        65.21658
685.27        65.51277
685.70         65.7686
686.12        65.95345
686.54        66.12369
686.97        66.25789
687.39        66.31969
687.82        66.34824
688.24        66.33064
688.66        66.58189
689.09        66.70797
689.51        66.80624
689.94        66.89539
690.36        66.97682
690.78        67.03722
691.21        67.15048
691.63        67.04311
692.06        67.61545
692.48        67.57801
692.90        67.30257
693.33        67.26447
693.75        67.49753
694.17        67.77129
694.60        67.98466
695.02        68.02724
695.44        67.91699
695.87        67.93507
696.29        68.11508
696.71        68.22498
697.14        68.40057
697.56        68.63182
697.98        68.85014
698.41        69.25983
698.83        69.10482
699.25         69.2119
699.68        69.36282
700.10        69.49474
700.52        69.59798
700.94        69.75414
701.37        69.92168
701.79        70.00475
702.21        69.97587
702.64        69.88622
703.06        69.78632
703.48        69.77309
703.90        69.87772
704.33        70.06725
704.75        70.30277
705.17        70.49708
705.59        70.62004
706.01        70.66656
706.44        70.68658
706.86        70.86386
707.28        71.00191
707.70        71.31343
708.12        71.66801
708.55        71.71528
708.97        71.48822
709.39        71.70037
709.81        71.84407
710.23        71.99137
710.66         71.9774
711.08        72.04897
711.50        72.17189
711.92        72.22141
712.34        72.20193
712.76        72.14709
713.19        72.10224
713.61        72.19234
714.03         72.4176
714.45        72.71703
714.87        73.01485
715.29        73.25127
715.71        73.41067
716.13        73.31258
716.56        73.34203
716.98        73.31268
717.40        73.34111
717.82        73.39611
718.24        73.48586
718.66        73.61747
719.08        73.77824
719.50        73.96597
719.92        74.14717
720.34        74.26351
720.76        74.30249
721.19        74.27529
721.61        74.21576
722.03         74.1494
722.45        74.09517
722.87        74.04755
723.29        74.03711
723.71        74.10976
724.13        74.26846
724.55        74.50513
724.97        74.76356
725.39        74.93565
725.81        74.99466
726.23        75.01311
726.65        74.95816
727.07        74.99567
727.49        75.12511
727.91         75.2941
728.33        75.45504
728.75        75.61398
729.17        75.73524
729.59         75.6675
730.01        75.43851
730.43         75.5377
730.85        75.43396
731.27        75.48933
731.69          75.535
732.10        75.60706
732.52        75.67954
732.94        75.81424
733.36        76.00114
733.78        76.04986
734.20         75.9212
734.62        76.26841
735.04        75.91688
735.46        76.13915
735.88        76.49606
736.30        76.59453
736.72        76.43685
737.13        76.36735
737.55        76.39866
737.97        76.51083
738.39        76.64674
738.81        76.47493
739.23        76.13686
739.65        76.28926
740.06        76.77629
740.48        77.09107
740.90        77.21873
741.32        76.62049
741.74        76.99529
742.16         76.9493
742.57        77.00285
742.99        77.13025
743.41        77.30102
743.83        77.38663
744.25         77.3681
744.67        77.33959
745.08        77.36744
745.50        77.46634
745.92        77.65594
746.34        77.92839
746.75        78.19296
747.17        78.28075
747.59        78.16613
748.01        77.92606
748.42        77.64868
748.84        77.44458
749.26        77.38296
749.68        77.46377
750.09         77.6371
750.51        77.86518
750.93        78.06152
751.35        78.09062
751.76        77.99089
752.18        77.95203
752.60        77.99356
753.01        78.01415
753.43        78.03926
753.85        78.04317
754.27         78.1744
754.68        78.43707
755.10         78.8383
755.52         78.5927
755.93        78.75837
756.35        78.66602
756.77        78.62128
757.18        78.69318
757.60        78.97043
758.02        79.00594
758.43        78.61021
758.85        79.76556
759.26        79.36572
759.68        78.86097
760.10        78.40839
760.51         78.2674
760.93        79.12882
761.34        78.52208
761.76        80.05944
762.18        79.91205
762.59        79.31539
763.01        79.09247
763.42        79.42471
763.84        79.65584
764.26        79.72723
764.67        79.82219
765.09        79.92033
765.50        80.07793
765.92        80.30224
766.33        80.14069
766.75        79.51523
767.16        80.04195
767.58        79.52602
768.00        79.72929
768.41        79.95782
768.83        80.02165
769.24         79.9065
769.66        79.96009
770.07        80.17226
770.49        80.18417
770.90        79.99168
771.32        80.32895
771.73        80.23316
772.15        80.33833
772.56         80.3789
772.97        80.38109
773.39        80.32027
773.80        80.52426
774.22        80.57429
774.63        80.69315
775.05        80.73647
775.46         80.8457
775.88        80.98447
776.29        81.13229
776.70         81.2578
777.12        81.33869
777.53        81.38461
777.95        81.37243
778.36        81.35334
778.77        81.34878
779.19         81.3604
779.60        81.50585
780.02        81.69493
780.43        81.55524
780.84        81.18543
781.26        81.21764
781.67        81.63873
782.09        81.99069
782.50        81.40517
782.91         82.0139
783.33        81.50623
783.74        81.60194
784.15        81.64872
784.57        81.72857
784.98        81.87759
785.39        81.86417
785.81        82.28094
786.22        82.44193
786.63         82.5073
787.04        82.58612
787.46        82.70032
787.87        82.76715
788.28        82.78149
788.70        82.79754
789.11        82.81155
789.52        82.74721
789.93        82.66058
790.35        82.84608
790.76        83.22771
791.17         83.2243
791.58        82.90894
792.00        82.85043
792.41         83.0867
792.82        83.35648
793.23        83.54852
793.65        83.49199
794.06        83.37273
794.47        83.65154
794.88        84.12145
795.29        85.11911
795.71        84.44769
796.12        84.47088
796.53        84.56271
796.94        84.22495
797.35        83.60129
797.76        83.60371
798.18        84.18109
798.59         84.3851
799.00        84.16393
799.41        84.01479
799.82         83.9937
800.23        83.96603
800.64        83.94318
801.06        83.93351
801.47        83.93945
801.88        83.87793
802.29        83.74268
802.70        83.55553
803.11        83.37823
803.52        83.31599
803.93        83.39512
804.34        83.57832
804.75        83.82006
805.17        84.03061
805.58        84.21137
805.99        84.35689
806.40        84.45982
806.81        84.52715
807.22         84.5412
807.63        84.44783
808.04        84.32851
808.45         84.3531
808.86        84.54726
809.27         84.8672
809.68        85.17613
810.09        85.24792
810.50         85.0295
810.91        84.55528
811.32        84.03493
811.73        83.86589
812.14        84.08909
812.55        84.52707
812.96        85.00468
813.37        85.12986
813.78        84.93916
814.19        85.00444
814.60        85.30628
815.01        85.36738
815.42        85.19106
815.83         85.0575
816.24        85.04693
816.65        85.14194
817.05        85.35933
817.46        85.67226
817.87        85.97627
818.28        86.04412
818.69        85.83714
819.10        85.41347
819.51        84.93293
819.92        84.69357
820.33        84.78899
820.74        85.12946
821.14           85.56
821.55        85.87811
821.96        85.99603
822.37        85.96503
822.78        85.85893
823.19        85.80885
823.60        85.85572
824.00        85.97824
824.41        86.04123
824.82        85.93691
825.23        85.65059
825.64        85.25027
826.04        84.89501
826.45        84.78432
826.86        84.98493
827.27        85.42739
827.68        85.98082
828.08        86.45898
828.49        86.71091
828.90        86.81799
829.31        86.83331
829.72        86.85809
830.12        86.95146
830.53        87.01786
830.94         87.0509
831.35        87.00936
831.75          86.914
832.16        86.74242
832.57        86.55986
832.97        86.42087
833.38        86.34272
833.79        86.33189
834.20         86.3718
834.60        86.43007
835.01        86.50742
835.42          86.587
835.82        86.71064
836.23        86.85595
836.64        87.03723
837.04        87.26414
837.45        87.40807
837.86        87.37502
838.26        87.17039
838.67        86.82467
839.08        86.46971
839.48        86.30246
839.89        86.36982
840.29        86.60272
840.70        86.93481
841.11        87.25951
841.51        87.54454
841.92         87.7814
842.33        87.92354
842.73         87.8897
843.14        87.63039
843.54        87.20687
843.95        86.76337
844.35        86.56814
844.76        86.67123
845.17        87.01083
845.57         87.4567
845.98         87.7305
846.38        87.78168
846.79        87.65539
847.19        87.46062
847.60        87.31427
848.00        87.29105
848.41        87.30529
848.81        87.36214
849.22        87.39315
849.62        87.41467
850.03        87.42186
850.43        87.43493
850.84        87.38058
851.24        87.31211
851.65        87.17802
852.05        87.08386
852.46        87.07378
852.86        87.15955
853.27        87.32882
853.67        87.45907
854.07        87.59362
854.48        87.67498
854.88        87.76383
855.29         87.7151
855.69        87.51498
856.10        87.06622
856.50        86.49132
856.90        85.92721
857.31        85.63618
857.71        85.72167
858.12        86.04465
858.52        86.48397
858.92        86.69485
859.33        86.55836
859.73        86.21835
860.13        85.73827
860.54        85.27559
860.94        84.95982
861.34        84.70599
861.75        84.52267
862.15        84.48482
862.55        84.55673
862.96        84.74375
863.36        84.93941
863.76        84.93295
864.17        84.67228
864.57        84.22277
864.97        83.73899
865.38         83.4535
865.78        83.48209
866.18         83.7507
866.58        84.09586
866.99        84.23544
867.39        84.12922
867.79        83.82346
868.19        83.51644
868.60        83.46223
869.00        83.70502
869.40        84.19982
869.80        84.74525
870.21        84.98284
870.61        84.88933
871.01        84.50542
871.41        84.06918
871.81        83.91651
872.22        84.08476
872.62        84.52202
873.02        85.02865
873.42        85.22442
873.82        85.00908
874.22        84.53265
874.63        84.05447
875.03        83.89499
875.43        84.13008
875.83        84.62465
876.23        85.20807
876.63         85.6046
877.03        85.70834
877.44        85.58622
877.84        85.30334
878.24        84.92975
878.64        84.52821
879.04        84.10218
879.44        83.70792
879.84        83.41643
880.24        83.24342
880.64        83.19158
881.04         83.2506
881.44        83.38516
881.84        83.56953
882.24        83.78597
882.65        83.98795
883.05        84.21638
883.45        84.41592
883.85        84.58235
884.25        84.67976
884.65        84.66818
885.05        84.55431
885.45        84.34745
885.85        84.14783
886.25         84.1273
886.65        84.31706
887.05        84.66637
887.45        85.01485
887.85        85.11263
888.25        84.90588
888.65        84.46401
889.04        83.93806
889.44        83.62209
889.84        83.57552
890.24        83.70736
890.64        83.87792
891.04        83.86652
891.44        83.62383
891.84         83.2486
892.24        82.83602
892.64         82.5211
893.04        82.36261
893.44        82.32861
893.83        82.44004
894.23        82.66525
894.63        83.00019
895.03        83.41874
895.43        83.87687
895.83        84.29758
896.23        84.63739
896.63        84.89977
897.02        85.03378
897.42        85.02747
897.82        84.88916
898.22         84.6601
898.62         84.4434
899.01        84.42608
899.41        84.62431
899.81        84.97955
900.21        85.42662
900.61        85.85149
901.00        86.17439
901.40        86.42484
901.80        86.51323
902.20        86.31429
902.59         85.8544
902.99         85.1916
903.39        84.51115
903.79        84.10825
904.18        84.06352
904.58        84.30318
904.98        84.74055
905.38        85.25154
905.77        85.75758
906.17        86.27884
906.57        86.71835
906.96        86.93932
907.36        86.87502
907.76        86.57515
908.15        86.14851
908.55        85.71667
908.95        85.38697
909.34        85.12744
909.74         85.0018
910.14        85.03117
910.53        85.20481
910.93        85.48853
911.33        85.79737
911.72        85.96991
912.12        85.94906
912.52        85.80251
912.91        85.55537
913.31        85.30235
913.70        85.07082
914.10         84.8245
914.49        84.67886
914.89        84.75212
915.29        85.08321
915.68        85.61935
916.08        86.18327
916.47        86.49286
916.87        86.49496
917.26        86.23582
917.66        85.86626
918.05        85.59898
918.45        85.48433
918.84        85.48331
919.24        85.49091
919.64        85.41821
920.03        85.27428
920.42        85.13842
920.82        85.04752
921.21        85.03288
921.61        85.08974
922.00        85.17689
922.40        85.39727
922.79        86.02343
923.19        86.99498
923.58        88.24094
923.98        89.29194
924.37        89.50488
924.77        88.77272
925.16        87.26801
925.55        85.57323
925.95        84.71301
926.34        84.97952
926.74        86.06865
927.13        87.42936
927.52        88.05865
927.92        87.73904
928.31        86.78603
928.70         85.6739
929.10        85.10495
929.49        85.26754
929.89        85.87961
930.28        86.71365
930.67        87.24917
931.07        87.29397
931.46          87.058
931.85        86.67148
932.24        86.35758
932.64        86.20392
933.03        86.13515
933.42        86.14489
933.82        86.23352
934.21        86.39764
934.60        86.65485
934.99        86.98547
935.39        87.31163
935.78        87.63885
936.17        87.93772
936.56         88.1824
936.96        88.33813
937.35         88.4407
937.74        88.46001
938.13        88.39677
938.53        88.25925
938.92        88.04897
939.31        87.75034
939.70        87.41537
940.09        87.13165
940.49        86.91368
940.88        86.81728
941.27        86.71994
941.66        86.42629
942.05        85.92445
942.44        85.28462
942.84        84.76331
943.23        84.72819
943.62        85.28158
944.01        86.31245
944.40        87.50312
944.79        88.27778
945.18        88.44879
945.57        88.15231
945.97        87.65508
946.36        87.45337
946.75        87.62998
947.14        88.01595
947.53        88.41233
947.92        88.48347
948.31        88.14202
948.70        87.56641
949.09        86.87453
949.48        86.21415
949.87        85.67877
950.26        85.24297
950.65        85.01476
951.04        85.16878
951.43        85.70725
951.82         86.5591
952.21        87.51932
952.60        88.21687
952.99         88.5075
953.38        88.45722
953.77        88.16037
954.16        87.79011
954.55        87.42603
954.94        87.03864
955.33        86.65922
955.72        86.34379
956.11        86.11038
956.50        85.96809
956.89        85.92979
957.28         85.9762
957.66        86.11981
958.05        86.34795
958.44        86.56535
958.83        86.61811
959.22        86.47059
959.61        86.10757
960.00        85.74458
960.39         85.7376
960.78        86.13223
961.16        86.87452
961.55        87.49977
961.94        87.33877
962.33        86.28226
962.72        84.63114
963.11        82.95993
963.49         82.0936
963.88        82.22289
964.27        83.10474
964.66        84.39204
965.04        85.45901
965.43         85.9511
965.82        86.07741
966.21        85.98774
966.60        85.93367
966.98        86.01713
967.37        86.07876
967.76        86.09006
968.15        86.00589
968.53        85.84285
968.92        85.66589
969.31        85.52109
969.69        85.42178
970.08        85.36589
970.47        85.34311
970.86         85.4385
971.24        85.81324
971.63        86.39098
972.02        87.10355
972.40        87.76115
972.79        87.99664
973.17        87.83474
973.56        87.30381
973.95        86.63831
974.33        86.22474
974.72        86.17754
975.11        86.41105
975.49        86.73903
975.88        86.85722
976.26         86.6946
976.65        86.29889
977.04        85.84174
977.42        85.58907
977.81        85.55878
978.19        85.68516
978.58        85.89787
978.96        86.05422
979.35        86.05525
979.74        85.98374
980.12        85.94282
980.51        85.84599
980.89        85.82233
981.28        85.80614
981.66        85.84515
982.05        86.01711
982.43        86.31461
982.82        86.62531
983.20        86.98317
983.59        87.25977
983.97        87.51196
984.35        87.74789
984.74        87.81091
985.12        87.45734
985.51        86.69799
985.89        85.67945
986.28        84.82545
986.66         84.7997
987.04        85.64333
987.43        87.07134
987.81        88.64096
988.20        89.44875
988.58        89.27293
988.96        88.38918
989.35        86.99136
989.73        85.47087
990.12        83.93385
990.50        82.22809
990.88          80.733
991.27        80.33363
991.65        81.27389
992.03        83.29062
992.42        85.36452
992.80        86.46112
993.18        86.35079
993.56        85.21196
993.95        83.60798
994.33        82.98777
994.71        83.89766
995.10        85.60835
995.48        87.30523
995.86        88.16695
996.24        88.14746
996.63        87.50101
997.01        86.55815
997.39        85.83924
997.77        85.65257
998.15        85.82675
998.54        86.22303
998.92        86.68007
999.30        87.11814
999.68         87.6121
1000.06        88.11672
1000.45        88.43802
1000.83        88.58266
1001.21        88.49409
1001.59        88.21998
1001.97        87.84229
1002.35        87.40044
1002.73        86.92838
1003.12        86.40863
1003.50        85.76476
1003.88         85.1065
1004.26        84.50416
1004.64        84.19055
1005.02        84.43919
1005.40        85.22601
1005.78        86.44647
1006.16         87.6814
1006.54         88.1826
1006.92        87.71655
1007.30        86.45885
1007.69        84.91522
1008.07        83.85033
1008.45        83.59628
1008.83        83.99161
1009.21         84.5963
1009.59        84.73124
1009.97        84.21275
1010.35        83.15257
1010.73        82.05808
1011.11        82.09917
1011.49        83.67735
1011.86        86.37938
1012.24        89.00328
1012.62        90.25857
1013.00        89.95552
1013.38        88.53822
1013.76        86.71049
1014.14        85.66068
1014.52        85.77844
1014.90        86.70921
1015.28        88.14201
1015.66        89.40279
1016.04        90.14502
1016.41        90.70927
1016.79        90.81319
1017.17        90.39687
1017.55        89.53242
1017.93        88.21247
1018.31         86.9549
1018.69         86.5969
1019.06        87.41609
1019.44        89.35521
1019.82        91.73455
1020.20        93.02245
1020.58         92.6504
1020.95        90.88251
1021.33         88.9586
1021.71        88.44585
1022.09        89.51873
1022.46        91.73872
1022.84        93.84976
1023.22        93.44637
1023.60        89.73615
1023.97        82.90797
1024.35        74.85312
1024.73        70.09285
