SpectraSmart Spectrum 2.9.0.0
--------- Device Information -----------
Spectrum Name :  反射率_0
Saving Time :  2024/04/27 22:17:33
Spectro-Module Model Name : SE2030-DUVN
Spectro-Module Serial Number : OS361AC55029948
Wavelength Start : 200
Wavelength End : 1025
Wavelength Unit : Wavelength(nm)
Spectrum Unit : Reflectance(%)
-----------Spectrum Setting ------------
Integration Time : 20ms
Average : 10
Boxcar : 0
Background removal :  enabled
linearity correction :  enabled
SC :  disabled
Intensity correction :  disabled
DWT denoise :  enabled
savitzky-golay :  disabled
FFT :  disabled
Running average :  disabled
Kalman :  disabled
High pass :  disabled
---------------BEGIN--------------------
Wavelength(nm)             Reflectance(%)
200.29               0
200.75       -21.60897
201.21        11.11981
201.67        34.44133
202.13         41.6375
202.58        38.64238
203.04        30.32276
203.50        22.15079
203.96        21.55786
204.42        28.29189
204.88        38.05936
205.34        46.91974
205.80        51.93233
206.26        53.03607
206.72        50.59545
207.18        44.62738
207.64        39.78625
208.10        40.45863
208.55        44.52529
209.01        46.32622
209.47        43.68073
209.93        34.73378
210.39        10.43727
210.85       -63.63988
211.31       -154.2926
211.77       -47.68587
212.23        23.06109
212.69        47.52967
213.14        53.67328
213.60        50.15471
214.06        38.55591
214.52        17.39978
214.98        2.818205
215.44        11.39012
215.90        27.75172
216.36        40.97171
216.81        48.35937
217.27        51.58814
217.73        53.01728
218.19        52.98968
218.65         51.3905
219.11        48.40323
219.57         43.9432
220.02        38.33617
220.48        34.49834
220.94        33.53656
221.40        34.76526
221.86        38.02764
222.32        42.99377
222.77        48.80925
223.23        54.71289
223.69        59.22418
224.15        60.71786
224.61        59.34533
225.06        55.61142
225.52        51.14058
225.98         48.8564
226.44        49.36113
226.90        51.10275
227.36        52.76326
227.81        53.28095
228.27        52.66752
228.73        51.32526
229.19         49.4144
229.65        47.33539
230.10        45.41682
230.56        43.91175
231.02        42.85427
231.48        42.39994
231.93        42.40653
232.39        42.77876
232.85        43.51369
233.31        44.62833
233.77        45.99471
234.22        47.66505
234.68        48.90679
235.14        48.83218
235.60        47.33643
236.05        44.38467
236.51        41.23114
236.97        40.70298
237.43        43.73936
237.88        49.63195
238.34        55.58697
238.80        58.57304
239.26        57.72636
239.71        52.44871
240.17        42.44967
240.63        34.96698
241.08        37.78599
241.54        46.46873
242.00        54.05149
242.46        57.02817
242.91        55.73028
243.37        49.68098
243.83        35.48919
244.28         15.9058
244.74        12.16285
245.20        25.91743
245.66        39.22643
246.11        43.76969
246.57        40.96667
247.03        32.23155
247.48        17.57947
247.94         7.56769
248.40        12.84544
248.85        26.50864
249.31        40.53344
249.77        49.17416
250.22        52.68666
250.68        53.60723
251.14        53.26665
251.59        52.47208
252.05        51.42918
252.51        49.21942
252.96        45.67899
253.42        43.50565
253.88        43.93207
254.33        46.48484
254.79        48.71801
255.25        48.47989
255.70        46.52914
256.16        44.44861
256.62        43.84982
257.07        46.36192
257.53        51.09464
257.99         56.0304
258.44        59.70084
258.90        61.30591
259.35        60.87916
259.81        59.57551
260.27        57.76401
260.72        55.87301
261.18        54.42754
261.63        53.09885
262.09        52.07062
262.55        51.18326
263.00         50.3311
263.46        49.65376
263.91        49.11895
264.37         48.9935
264.83        49.15097
265.28        49.43647
265.74        49.64352
266.19        49.31172
266.65        48.49996
267.11        47.33051
267.56        46.06918
268.02        45.23977
268.47        44.90463
268.93        44.89908
269.38        45.01575
269.84          44.958
270.30        44.61543
270.75        44.09048
271.21        43.38777
271.66        42.45926
272.12        41.37689
272.57        40.13343
273.03        38.94883
273.48        38.08551
273.94        37.63797
274.39        37.46938
274.85         37.4408
275.31         37.2531
275.76        36.81821
276.22         36.2644
276.67        35.62235
277.13        35.04762
277.58        34.52414
278.04        34.05074
278.49        33.56641
278.95        33.11426
279.40        32.63619
279.86        32.19679
280.31        31.74657
280.77        31.33133
281.22        30.91885
281.68        30.56599
282.13        30.23255
282.59        29.91918
283.04         29.6075
283.50        29.31436
283.95        29.08092
284.41        29.01482
284.86        29.09552
285.32        29.29522
285.77         29.4804
286.22         29.5057
286.68        29.35985
287.13        29.05266
287.59        28.71368
288.04        28.46086
288.50        28.35895
288.95        28.34517
289.41           28.36
289.86        28.26073
290.32        28.05255
290.77         27.7821
291.22        27.55941
291.68        27.53551
292.13        27.72777
292.59        28.09793
293.04        28.55182
293.50        28.97036
293.95        29.31165
294.40        29.62891
294.86        29.97457
295.31        30.42303
295.77        30.99952
296.22        31.64738
296.68        32.35759
297.13        33.09211
297.58        33.82992
298.04        34.58093
298.49        35.28474
298.95        35.87545
299.40        36.34702
299.85        36.71869
300.31        37.11307
300.76        37.68314
301.21        38.45599
301.67        39.38067
302.12        40.27369
302.58        40.91449
303.03        41.24478
303.48        41.35759
303.94        41.44416
304.39        41.73388
304.84        42.29216
305.30        43.04228
305.75        43.79873
306.20        44.33556
306.66        44.61526
307.11        44.67998
307.57        44.69545
308.02        44.83715
308.47        45.16047
308.93        45.60003
309.38        45.99839
309.83         46.1623
310.29        46.07198
310.74        45.79015
311.19        45.46838
311.65        45.33645
312.10        45.42588
312.55        45.65842
313.00        45.92388
313.46        46.05632
313.91        46.00046
314.36        45.82053
314.82        45.54567
315.27          45.218
315.72        44.87164
316.18        44.50336
316.63        44.15502
317.08        43.91894
317.53         43.8097
317.99        43.80643
318.44        43.84411
318.89        43.79166
319.35        43.61407
319.80        43.34269
320.25        43.03805
320.70         42.8098
321.16        42.67456
321.61        42.60085
322.06          42.525
322.51        42.35039
322.97        42.05026
323.42        41.68221
323.87        41.28532
324.32        40.93161
324.78        40.64439
325.23        40.40765
325.68        40.22448
326.13        40.10889
326.59        40.03518
327.04        40.02292
327.49        39.99242
327.94        39.82304
328.39        39.48989
328.85        39.01354
329.30        38.50163
329.75        38.11929
330.20         37.9226
330.66        37.85454
331.11        37.86533
331.56        37.80714
332.01        37.63543
332.46        37.39404
332.92        37.10797
333.37        36.86438
333.82        36.67942
334.27        36.52354
334.72        36.39812
335.17        36.31152
335.63        36.24812
336.08        36.23087
336.53        36.21064
336.98        36.11667
337.43        35.93795
337.88        35.69556
338.34        35.44415
338.79        35.28696
339.24        35.24709
339.69        35.29182
340.14        35.37402
340.59        35.41599
341.05          35.391
341.50        35.32847
341.95        35.23167
342.40         35.1149
342.85        34.98792
343.30        34.84018
343.75        34.69601
344.20        34.59732
344.66        34.55614
345.11        34.56546
345.56        34.58246
346.01        34.53326
346.46        34.40265
346.91         34.2061
347.36        34.01274
347.81         33.9272
348.26        33.96851
348.72        34.11124
349.17        34.25659
349.62        34.24909
350.07        34.05892
350.52        33.72872
350.97        33.39877
351.42        33.29248
351.87        33.44892
352.32        33.79188
352.77        34.14396
353.22         34.2356
353.67        34.01118
354.13        33.56997
354.58        33.05647
355.03        32.75444
355.48        32.73655
355.93        32.91924
356.38         33.1554
356.83        33.21684
357.28        33.04916
357.73        32.73038
358.18        32.38127
358.63        32.18467
359.08        32.17756
359.53        32.28535
359.98        32.40422
360.43        32.37914
360.88        32.17181
361.33        31.83843
361.78        31.44177
362.23        31.11134
362.68        30.89331
363.13        30.69379
363.58        30.47959
364.03        30.51932
364.48        30.28087
364.93        30.18889
365.38        30.08854
365.83        29.98702
366.28        29.87629
366.73        29.75639
367.18        29.61842
367.63        29.43961
368.08        29.22309
368.53        28.98047
368.98         28.7418
369.43        28.55369
369.88        28.42854
370.33        28.35449
370.78        28.30742
371.23        28.24689
371.68        28.15511
372.13        28.03511
372.58        27.89752
373.03         27.7606
373.48        27.63204
373.93        27.51393
374.38        27.38372
374.83        27.20685
375.28        26.98279
375.72        26.71156
376.17        26.47631
376.62        26.36265
377.07        26.37586
377.52         26.4736
377.97        26.56395
378.42        26.50328
378.87         26.2672
379.32        25.91832
379.77         25.5286
380.22        25.20453
380.67        24.98148
381.11        24.82594
381.56        24.74123
382.01        24.73296
382.46        24.78489
382.91        24.89094
383.36        24.98688
383.81        24.96987
384.26        24.82193
384.71        24.57276
385.15        24.27818
385.60         24.0665
386.05        23.96027
386.50        23.92927
386.95        23.94573
387.40        23.96225
387.85        23.96321
388.29          23.953
388.74        23.95494
389.19        23.94649
389.64        23.92249
390.09         23.8661
390.54        23.80085
390.98        23.76574
391.43        23.77649
391.88        23.82336
392.33          23.835
392.78        23.74724
393.23        23.57029
393.67        23.23235
394.12        22.86377
394.57        22.91792
395.02        23.00726
395.47        23.04382
395.91        22.91111
396.36        22.87639
396.81        22.93991
397.26        22.94697
397.71        22.88571
398.15        22.82401
398.60        22.79149
399.05        22.67702
399.50        22.54535
399.95        22.63744
400.39        22.88698
400.84        22.93677
401.29        22.76494
401.74        22.56245
402.18        22.39171
402.63        22.30721
403.08        22.29723
403.53        22.21569
403.97        22.06918
404.42        21.99133
404.87        21.98636
405.32        22.01507
405.76         22.0665
406.21        22.08549
406.66        22.09018
407.11        22.21741
407.55        22.40449
408.00        22.41106
408.45        22.21309
408.90        21.85732
409.34        21.46473
409.79        21.32662
410.24        21.42708
410.68        21.46164
411.13        21.41544
411.58        21.50095
412.03        21.69145
412.47         21.8184
412.92         21.8434
413.37        21.81856
413.81        21.75979
414.26        21.71025
414.71        21.67815
415.15        21.65069
415.60        21.62589
416.05        21.61657
416.49        21.62607
416.94        21.65217
417.39         21.6809
417.83        21.68934
418.28        21.66471
418.73        21.59966
419.17        21.52003
419.62        21.47293
420.07         21.4755
420.51        21.52672
420.96        21.56861
421.41        21.53492
421.85        21.41608
422.30        21.14552
422.74        20.85818
423.19         21.0128
423.64         21.5324
424.08        21.82228
424.53          21.765
424.98        21.79075
425.42        21.90436
425.87        21.69155
426.31        21.28441
426.76        21.34675
427.21         21.7794
427.65        21.79078
428.10        21.42403
428.54        21.29552
428.99        21.41581
429.44         21.6533
429.88        21.85587
430.33         21.5204
430.77        20.88269
431.22        20.86973
431.66        21.42857
432.11        21.82506
432.56        21.93055
433.00         21.8847
433.45        21.56459
433.89        21.15751
434.34        21.02599
434.78        20.05966
435.23        20.81596
435.67        21.55537
436.12        21.99376
436.57        22.17765
437.01        21.93983
437.46        21.79911
437.90        21.88066
438.35        22.03214
438.79        21.57583
439.24        21.41911
439.68        21.39264
440.13        21.42596
440.57         21.4732
441.02         21.6472
441.46        21.86998
441.91        21.67231
442.35        21.22857
442.80        21.45239
443.24        22.16305
443.69        22.14988
444.13        21.47652
444.58        21.22214
445.02        21.40271
445.47        21.46399
445.91        21.36915
446.36        21.34412
446.80        21.37977
447.24        21.40279
447.69        21.42553
448.13        21.51823
448.58        21.65134
449.02        21.70028
449.47        21.67426
449.91        21.68599
450.36        21.74325
450.80        21.76918
451.25        21.76715
451.69        21.77556
452.13        21.78916
452.58        21.77806
453.02        21.73863
453.47        21.67774
453.91        21.59655
454.36        21.53162
454.80        21.46109
455.24        21.32416
455.69        21.17462
456.13        21.05354
456.58        21.00469
457.02        21.17071
457.46        21.42587
457.91          21.385
458.35        21.16973
458.79        21.10306
459.24        21.22148
459.68        21.31344
460.13        21.36124
460.57         21.3078
461.01        21.24456
461.46         21.2074
461.90        21.10849
462.34        21.04436
462.79        21.34842
463.23        21.43036
463.68        21.39738
464.12        21.36845
464.56        21.36872
465.01        21.45474
465.45        21.52874
465.89        21.43307
466.34        21.24067
466.78        21.06845
467.22        20.93658
467.67        21.32074
468.11        21.27298
468.55         21.3181
468.99        21.20332
469.44        21.19236
469.88        21.28602
470.32        21.32185
470.77        21.30716
471.21        21.32384
471.65        21.37825
472.10        21.44975
472.54        21.50839
472.98        21.54144
473.42        21.55228
473.87        21.49051
474.31        21.39662
474.75        21.53033
475.20        21.82193
475.64        21.84766
476.08        21.63209
476.52        21.62839
476.97        21.86571
477.41        21.89909
477.85        21.90303
478.29         22.1181
478.74        21.97665
479.18        21.75681
479.62         22.0469
480.06          22.093
480.50        22.13903
480.95        22.16209
481.39        22.13733
481.83        22.50182
482.27        22.57596
482.72        22.54987
483.16        22.90789
483.60        22.98949
484.04        22.96754
484.48        22.96982
484.93         23.2086
485.37        23.06503
485.81        23.52446
486.25        24.16588
486.69        23.79186
487.14        23.24188
487.58         24.2049
488.02        24.18093
488.46        24.42347
488.90        24.54818
489.34        23.97859
489.79        23.72378
490.23        24.50941
490.67        24.90307
491.11         25.0843
491.55        25.07968
491.99        24.98385
492.43         25.0657
492.88        25.34361
493.32        25.59918
493.76        25.78974
494.20        26.03114
494.64        26.33027
495.08        26.56081
495.52        26.73329
495.96        27.09391
496.41         27.5797
496.85        27.56542
497.29        27.20136
497.73        27.29466
498.17        27.80461
498.61        28.22931
499.05        28.41895
499.49        28.45021
499.93        28.39561
500.37        28.40731
500.82        28.51367
501.26        28.71691
501.70        29.03591
502.14        28.87683
502.58        29.25278
503.02         29.3712
503.46        29.40897
503.90        29.41035
504.34        29.38426
504.78         29.4425
505.22          29.585
505.66        29.72802
506.10        29.85521
506.54        30.02213
506.98        30.22549
507.42        30.30469
507.86        30.48342
508.30         30.5512
508.74         30.5789
509.18        30.56402
509.62        30.54146
510.06          30.565
510.50        30.64502
510.94        30.76943
511.38        30.90574
511.82        31.00006
512.26        31.03767
512.70        31.03607
513.14        31.02072
513.58        31.01991
514.02        31.04438
514.46        31.10788
514.90        31.19969
515.34        31.19306
515.78        31.26097
516.22        31.26373
516.66        31.27645
517.10        31.32732
517.54        31.41959
517.98        31.53747
518.42        31.63835
518.86        31.66085
519.30        31.59331
519.74        31.45808
520.18        31.30416
520.62        31.20624
521.06         31.1863
521.50        31.22814
521.93        31.29741
522.37        31.32767
522.81        31.30323
523.25        31.23544
523.69        31.16155
524.13        31.13942
524.57        31.17664
525.01        31.25303
525.45        31.30754
525.89        31.24618
526.32        31.05337
526.76        30.77477
527.20        30.49136
527.64        30.33473
528.08         30.3332
528.52         30.4394
528.96        30.58401
529.40        30.65754
529.83        30.62508
530.27        30.52556
530.71        30.38152
531.15        30.23056
531.59        30.09189
532.03        29.95388
532.46        29.82837
532.90        29.75182
533.34         29.7248
533.78        29.74246
534.22        29.78139
534.66        29.80066
535.09        29.78666
535.53        29.75674
535.97        29.71894
536.41        29.69369
536.85        29.68867
537.28        29.69861
537.72        29.72348
538.16        29.75961
538.60        29.80623
539.04        29.87101
539.47        29.94299
539.91        30.02251
540.35        30.10064
540.79        30.18304
541.22        30.26655
541.66        30.34921
542.10        30.43086
542.54        30.51451
542.97        30.60289
543.41        30.71779
543.85        30.85823
544.29         31.0221
544.72        31.19826
545.16        31.38887
545.60        31.58302
546.04        31.77892
546.47        31.97909
546.91         32.1842
547.35        32.38776
547.79        32.60007
548.22        32.80281
548.66        32.95819
549.10        33.08574
549.53        33.31105
549.97        33.61822
550.41        33.86306
550.84        34.03318
551.28        34.21363
551.72        34.40433
552.15        34.56483
552.59        34.70387
553.03        34.81961
553.46        34.92776
553.90        35.08027
554.34        35.27598
554.77        35.51393
555.21        35.74542
555.65        35.89249
556.08        35.90826
556.52        35.90311
556.96        35.91127
557.39        36.03728
557.83        36.26817
558.27        36.42168
558.70        36.49262
559.14        36.61132
559.57        36.76487
560.01        36.91103
560.45        37.02026
560.88         37.0467
561.32        37.05599
561.75        37.10721
562.19        37.22457
562.63        37.44998
563.06        37.69842
563.50        37.68335
563.93        37.45982
564.37        37.44016
564.80        37.63558
565.24        37.83585
565.68        38.02102
566.11        38.24088
566.55        38.49087
566.98        38.77312
567.42        39.03989
567.85        39.12481
568.29        39.08696
568.72        39.03336
569.16        39.02645
569.60        39.18528
570.03         39.5477
570.47        39.61995
570.90        39.82943
571.34        40.58501
571.77        40.52883
572.21        40.50621
572.64        40.97234
573.08        40.63295
573.51        40.73687
573.95        40.98577
574.38        41.51241
574.82         41.5393
575.25        41.38403
575.69        41.28741
576.12        41.16152
576.56        41.37521
576.99        41.81777
577.42        41.71581
577.86        41.92102
578.29        42.09514
578.73        41.47143
579.16        41.38756
579.60        41.42734
580.03        41.38595
580.47        41.24543
580.90        40.99882
581.33        41.23903
581.77        41.28757
582.20        41.05455
582.64        40.61819
583.07        40.61636
583.51        40.42928
583.94        40.37676
584.37        40.30227
584.81        40.20446
585.24        40.02346
585.68        39.86477
586.11        39.74168
586.54          39.543
586.98        39.71223
587.41        39.99269
587.85        39.38657
588.28        39.17576
588.71        39.13157
589.15        39.25261
589.58        39.05643
590.01        39.42379
590.45        39.42918
590.88        38.97746
591.31        38.91336
591.75        39.11419
592.18        39.16282
592.61        39.11388
593.05        39.30307
593.48        39.51563
593.91         39.3823
594.35         39.2905
594.78        39.66862
595.21        39.90649
595.65        39.96615
596.08        39.67979
596.51        40.18374
596.94        40.26077
597.38        40.67891
597.81        41.12601
598.24        40.82992
598.68        41.54243
599.11        41.79537
599.54        42.16275
599.97        42.34538
600.41        43.00736
600.84        43.39109
601.27        43.66011
601.70        43.84526
602.14        43.96568
602.57        44.57608
603.00        45.10718
603.43        45.62297
603.87        46.06689
604.30        46.10866
604.73        46.39943
605.16        47.12289
605.60        47.46893
606.03        48.00289
606.46        48.35202
606.89         48.9385
607.32        49.35873
607.76        49.90215
608.19        50.09688
608.62         50.2799
609.05        50.44825
609.48        50.78959
609.92        51.24304
610.35        51.58818
610.78        51.86704
611.21        51.68295
611.64         52.3717
612.07        52.61484
612.50        52.78687
612.94        53.02923
613.37        53.38091
613.80        53.47922
614.23        53.87177
614.66        54.07405
615.09        54.15092
615.52        54.64845
615.96        54.70471
616.39        54.50691
616.82        54.76049
617.25        55.36313
617.68        55.66285
618.11        55.75758
618.54        55.54141
618.97        55.77023
619.40        56.33681
619.84        56.88026
620.27        56.74577
620.70        56.72187
621.13        56.59235
621.56        57.07518
621.99        56.81241
622.42        56.80346
622.85        56.91901
623.28        57.38448
623.71        56.94804
624.14        57.09626
624.57        57.39273
625.00        57.26753
625.43        57.18464
625.86        57.04021
626.29        57.00768
626.72        56.82661
627.15          56.746
627.58        56.55035
628.01        56.59369
628.44        56.33972
628.87        56.00605
629.30        56.33772
629.73        55.90046
630.16        55.17941
630.59        55.21879
631.02         54.9293
631.45        54.71289
631.88        54.46551
632.31        54.20818
632.74        53.82778
633.17        53.59088
633.60        53.24768
634.03         52.8763
634.46        52.48292
634.89        52.07708
635.32         51.6597
635.75         51.2351
636.18        50.83459
636.61        50.45813
637.04        50.04394
637.47        49.61947
637.89        49.32524
638.32         49.1153
638.75        48.82721
639.18        48.44123
639.61        48.07974
640.04        47.77415
640.47        47.43962
640.90        47.06411
641.33        47.07298
641.76        46.68139
642.18        46.60802
642.61        46.43189
643.04        46.32004
643.47        46.21389
643.90        46.12254
644.33        46.05505
644.76        46.01027
645.18         45.9907
645.61         45.9899
646.04        46.01143
646.47        46.05383
646.90        46.14718
647.33         46.3346
647.75        46.62361
648.18        47.01411
648.61        47.44003
649.04        47.79692
649.47        48.07927
649.89        48.28671
650.32        48.49967
650.75        48.97945
651.18        49.68115
651.61        50.19998
652.03        50.47624
652.46        50.88526
652.89        51.51117
653.32        51.76402
653.74        51.93904
654.17        53.06816
654.60        53.13238
655.03          53.425
655.46        54.08575
655.88        54.75262
656.31        55.87239
656.74        57.72495
657.16         57.2596
657.59        57.43262
658.02        56.56636
658.45        57.08356
658.87        57.57583
659.30         57.5372
659.73        57.46461
660.15        58.13375
660.58        58.46577
661.01        59.01401
661.44        59.31853
661.86        59.22975
662.29        58.89181
662.72        58.93838
663.14        59.40445
663.57        59.71696
664.00        59.86668
664.42        60.05654
664.85        60.28549
665.27        60.45645
665.70        60.51267
666.13        60.59717
666.55        60.70758
666.98        60.82094
667.41        60.94746
667.83        61.10045
668.26        61.26797
668.69        61.46403
669.11        61.68102
669.54        61.86578
669.96        62.00877
670.39        62.20941
670.82        62.29538
671.24        62.39646
671.67        62.47515
672.09        62.52204
672.52         62.6764
672.94        62.69391
673.37        62.66305
673.80        62.77185
674.22        63.01587
674.65        63.17492
675.07        63.24744
675.50         63.3323
675.92         63.4479
676.35        63.55701
676.77        63.66655
677.20        63.79792
677.62        63.95153
678.05        64.03197
678.47          64.164
678.90        64.25034
679.32        64.34123
679.75        64.46491
680.17        64.62621
680.60        64.82598
681.02        65.00588
681.45        65.08537
681.87        65.06808
682.30        64.88269
682.72        64.66033
683.15        64.81437
683.57        65.29144
684.00        65.50968
684.42        65.44731
684.85        65.52563
685.27        65.72867
685.70        65.81467
686.12        65.79415
686.54        65.79185
686.97         65.8288
687.39        65.98257
687.82        66.22115
688.24        66.24631
688.66         66.3578
689.09        66.37437
689.51        66.41368
689.94        66.44109
690.36         66.4764
690.78         66.4848
691.21        66.48754
691.63        66.59642
692.06        66.77281
692.48        66.83405
692.90        66.79995
693.33        66.80592
693.75        66.85833
694.17        67.04056
694.60        67.02625
695.02        67.12807
695.44        67.25298
695.87        67.30701
696.29        67.33725
696.71        67.62903
697.14        68.07933
697.56        68.20232
697.98        68.02142
698.41        68.03783
698.83        68.24951
699.25        68.39604
699.68        68.44171
700.10        68.51724
700.52        68.61035
700.94        68.69106
701.37        68.74057
701.79        68.76511
702.21        68.74874
702.64        68.71635
703.06        68.68065
703.48        68.67723
703.90        68.72415
704.33        68.81062
704.75        68.93297
705.17        69.06149
705.59        69.18126
706.01         69.2647
706.44        69.33173
706.86        69.52656
707.28        69.65107
707.70        69.89039
708.12        70.12096
708.55        70.11811
708.97        69.91634
709.39        69.81873
709.81        69.87275
710.23         69.9173
710.66        69.96179
711.08        70.15082
711.50        70.40437
711.92        70.54417
712.34        70.54626
712.76        70.46238
713.19        70.35328
713.61        70.37038
714.03        70.52388
714.45        70.75946
714.87        71.01449
715.29         71.1982
715.71        71.28355
716.13        71.30325
716.56        71.25645
716.98        71.21863
717.40        71.18975
717.82        71.16006
718.24        71.15409
718.66        71.21355
719.08        71.34007
719.50        71.51852
719.92        71.71052
720.34        71.84936
720.76        71.91505
721.19        71.91748
721.61        71.88374
722.03        71.82962
722.45        71.76998
722.87        71.70082
723.29          71.651
723.71        71.66517
724.13        71.75443
724.55        71.91634
724.97        72.10779
725.39        72.25364
725.81        72.33173
726.23        72.35028
726.65        72.36098
727.07         72.4519
727.49        72.63631
727.91        72.88403
728.33        73.11187
728.75        73.18291
729.17        73.07101
729.59        72.82781
730.01        72.55387
730.43        72.41077
730.85        72.43917
731.27        72.58366
731.69        72.78758
732.10         72.9622
732.52        73.06218
732.94        73.17107
733.36        73.28816
733.78        73.29668
734.20        73.17883
734.62        73.45029
735.04        73.00155
735.46        73.31806
735.88        73.89474
736.30        73.83602
736.72        73.21841
737.13        73.06718
737.55        73.40742
737.97        73.54823
738.39        73.45972
738.81        73.54457
739.23        73.76232
739.65        73.77666
740.06         73.5871
740.48        73.54354
740.90        73.63613
741.32        73.59369
741.74        73.66703
742.16        73.68861
742.57        73.74369
742.99        73.80979
743.41        73.88264
743.83        73.92442
744.25        73.92995
744.67         73.9025
745.08        73.90241
745.50        74.00785
745.92        74.23837
746.34        74.51738
746.75        74.73647
747.17        74.91466
747.59        74.70033
748.01        74.43676
748.42        74.12707
748.84        73.89126
749.26        73.80672
749.68        73.92046
750.09        74.17109
750.51        74.41996
750.93        74.59412
751.35        74.68128
751.76        74.70691
752.18        74.70927
752.60        74.68999
753.01        74.68023
753.43        74.73634
753.85        74.50626
754.27        74.64323
754.68        74.81898
755.10        75.21716
755.52        74.78533
755.93        75.00608
756.35        74.98525
756.77        75.10758
757.18        75.21889
757.60        75.35321
758.02        75.30826
758.43         75.0385
758.85         75.7571
759.26        75.47931
759.68        75.52368
760.10        75.43057
760.51         74.7229
760.93        75.18684
761.34        74.90971
761.76        75.85111
762.18        75.89223
762.59        75.56679
763.01        75.48569
763.42        75.72417
763.84        75.74293
764.26        75.57778
764.67        75.50477
765.09         75.5713
765.50        75.74823
765.92           75.97
766.33        75.89014
766.75        75.53177
767.16        75.45198
767.58        75.64381
768.00        75.89434
768.41        76.13481
768.83        76.15179
769.24        75.98231
769.66        76.00908
770.07        76.18142
770.49        76.13405
770.90        75.91495
771.32        75.89579
771.73        76.07718
772.15        76.15949
772.56        76.14767
772.97        76.17081
773.39        76.20223
773.80        76.27351
774.22        76.32705
774.63        76.26908
775.05        76.12758
775.46        76.16541
775.88        76.37817
776.29        76.68781
776.70         76.9933
777.12        77.18362
777.53         77.2314
777.95         77.1256
778.36        76.98222
778.77        76.94066
779.19         77.0421
779.60         77.3616
780.02        77.71964
780.43         77.6925
780.84        77.33672
781.26        77.03548
781.67        76.99729
782.09         77.3931
782.50        77.86513
782.91        78.40925
783.33        77.08907
783.74        76.89156
784.15        77.28761
784.57        77.43793
784.98        77.31532
785.39        77.48289
785.81         77.8623
786.22        77.90684
786.63        77.67773
787.04         77.6745
787.46        77.93105
787.87        78.16982
788.28         78.3284
788.70        78.44463
789.11        78.49669
789.52        78.38888
789.93        78.19901
790.35        78.33932
790.76        78.72887
791.17        78.58325
791.58         78.0309
792.00          77.993
792.41        78.44458
792.82         78.6963
793.23         78.6914
793.65         78.5292
794.06        78.38635
794.47        78.82763
794.88        79.62188
795.29        79.79218
795.71        79.47357
796.12        78.95383
796.53        78.48318
796.94         78.3634
797.35        78.61509
797.76        78.81387
798.18        78.88905
798.59        79.05902
799.00        79.29474
799.41         79.4036
799.82        79.38921
800.23        79.38856
800.64        79.41805
801.06        79.40335
801.47        79.38703
801.88        79.36952
802.29        79.35107
802.70        79.33128
803.11        79.31845
803.52        79.31599
803.93        79.33649
804.34        79.39227
804.75        79.44675
805.17        79.49415
805.58        79.57408
805.99        79.45458
806.40        79.24062
806.81        79.61792
807.22        80.34364
807.63        80.24587
808.04        79.45137
808.45        79.19762
808.86        79.58372
809.27        79.88495
809.68        80.01618
810.09         80.1669
810.50        80.30514
810.91        80.38229
811.32        80.39379
811.73        80.33431
812.14          80.213
812.55        80.04091
812.96        79.87953
813.37         79.8238
813.78        79.89951
814.19         80.0934
814.60        80.32191
815.01         80.4461
815.42         80.4366
815.83        80.32954
816.24        80.18436
816.65         80.1162
817.05        80.16692
817.46        80.25965
817.87         80.3746
818.28        80.42645
818.69        80.39809
819.10        80.32948
819.51        80.25384
819.92        80.22543
820.33         80.2645
820.74        80.33785
821.14        80.44664
821.55        80.63512
821.96        80.87794
822.37        81.17044
822.78        81.42862
823.19        81.50073
823.60        81.35397
824.00        81.05445
824.41        80.68094
824.82         80.4663
825.23         80.4726
825.64        80.64987
826.04        80.93463
826.45         81.1652
826.86        81.29988
827.27         81.3792
827.68        81.42634
828.08        81.51255
828.49        81.58058
828.90        81.63473
829.31        81.66911
829.72        81.68723
830.12        81.71346
830.53        81.70953
830.94        81.68008
831.35        81.58865
831.75        81.45842
832.16        81.24686
832.57        81.03877
832.97        80.93797
833.38        80.96063
833.79        81.09195
834.20        81.24693
834.60        81.28962
835.01        81.20712
835.42        81.02296
835.82        80.85518
836.23        80.82169
836.64        80.98463
837.04        81.32001
837.45        81.65853
837.86         81.8298
838.26        81.80295
838.67        81.62039
839.08        81.41196
839.48        81.37332
839.89        81.54836
840.29        81.85767
840.70        82.21722
841.11        82.50142
841.51        82.68246
841.92         82.7671
842.33        82.75711
842.73        82.64835
843.14         82.4107
843.54        82.08089
843.95        81.75265
844.35        81.60523
844.76        81.66473
845.17        81.89472
845.57        82.18963
845.98        82.31948
846.38        82.24915
846.79        82.00793
847.19        81.71202
847.60        81.49564
848.00        81.43533
848.41        81.46127
848.81        81.54293
849.22        81.55045
849.62        81.49315
850.03         81.3828
850.43        81.31059
850.84        81.32889
851.24        81.50228
851.65         81.7332
852.05        82.01902
852.46         82.2107
852.86         82.2618
853.27        82.24776
853.67        82.11537
854.07        81.97672
854.48        81.80697
854.88        81.62549
855.29        81.38818
855.69        81.25355
856.10        81.15726
856.50        81.16725
856.90         81.1952
857.31        81.12791
857.71        80.99136
858.12        80.75803
858.52        80.53695
858.92        80.38034
859.33        80.28319
859.73        80.25448
860.13        80.22833
860.54         80.1216
860.94        79.95119
861.34        79.71832
861.75        79.41499
862.15        79.08065
862.55        78.71896
862.96        78.36347
863.36        78.05657
863.76        77.84859
864.17        77.75469
864.57        77.76731
864.97        77.91901
865.38        78.24234
865.78        78.75677
866.18        79.39769
866.58        79.97958
866.99         80.1952
867.39        80.00005
867.79        79.45605
868.19        78.76076
868.60         78.1713
869.00        77.75835
869.40        77.49406
869.80        77.35396
870.21        77.29057
870.61        77.35799
871.01        77.52196
871.41         77.7349
871.81         77.9194
872.22        78.02338
872.62        78.06645
873.02        78.08755
873.42        78.16328
873.82        78.30795
874.22        78.50806
874.63        78.69696
875.03        78.74305
875.43        78.64503
875.83        78.42856
876.23         78.2273
876.63        78.26374
877.03        78.57069
877.44        79.06085
877.84        79.53397
878.24        79.61951
878.64        79.24914
879.04        78.57423
879.44        77.82772
879.84        77.32918
880.24        77.15183
880.64        77.19762
881.04        77.37708
881.44        77.53379
881.84        77.60423
882.24         77.6394
882.65        77.61829
883.05        77.60864
883.45        77.58578
883.85        77.53054
884.25        77.47253
884.65        77.46826
885.05        77.53105
885.45        77.65752
885.85         77.8182
886.25        77.95439
886.65         78.0509
887.05        78.12296
887.45         78.1956
887.85        78.31462
888.25        78.47488
888.65        78.63339
889.04        78.75486
889.44        78.82439
889.84        78.81248
890.24        78.74266
890.64        78.57774
891.04        78.26154
891.44        77.81596
891.84        77.28251
892.24        76.80295
892.64        76.58924
893.04        76.68796
893.44         77.0496
893.83        77.54684
894.23        77.89718
894.63        78.04691
895.03        78.04279
895.43        77.99931
895.83        78.11301
896.23        78.41254
896.63        78.80627
897.02        79.14218
897.42        79.25192
897.82        79.09081
898.22         78.7458
898.62        78.33026
899.01        78.04054
899.41        77.92174
899.81        77.92863
900.21        78.02982
900.61        78.16814
901.00        78.29981
901.40        78.46368
901.80        78.60166
902.20        78.62822
902.59        78.54594
902.99        78.35866
903.39        78.16407
903.79        78.11813
904.18         78.2497
904.58        78.51949
904.98        78.83839
905.38         79.0845
905.77        79.21243
906.17        79.25406
906.57        79.24409
906.96        79.26582
907.36         79.3131
907.76        79.38808
908.15        79.43694
908.55        79.29624
908.95        78.98592
909.34        78.54434
909.74        78.16832
910.14        78.09727
910.53        78.37943
910.93        78.91592
911.33        79.51762
911.72        79.85522
912.12        79.82659
912.52        79.56156
912.91        79.19383
913.31        78.95694
913.70        78.90609
914.10        78.95583
914.49        79.11716
914.89        79.33364
915.29        79.58874
915.68        79.89151
916.08        80.16652
916.47        80.28906
916.87        80.25069
917.26        80.04907
917.66        79.78767
918.05        79.60313
918.45        79.52359
918.84        79.54611
919.24        79.56365
919.64        79.48163
920.03        79.30289
920.42         79.0733
920.82        78.88074
921.21        78.84237
921.61         78.9665
922.00        79.21439
922.40        79.54108
922.79        79.95379
923.19        80.36968
923.58        80.81192
923.98        81.11658
924.37        81.10352
924.77        80.73876
925.16        80.04768
925.55        79.27452
925.95         78.8459
926.34        78.88363
926.74         79.2871
927.13        79.79173
927.52        79.85255
927.92        79.39925
928.31        78.60596
928.70        77.84819
929.10        77.69039
929.49          78.246
929.89        79.27319
930.28        80.49922
930.67        81.31152
931.07        81.48385
931.46        81.22846
931.85        80.67797
932.24        80.08697
932.64        79.57724
933.03        79.07787
933.42        78.69352
933.82        78.59423
934.21        78.80676
934.60        79.32272
934.99        79.96021
935.39        80.35762
935.78        80.44992
936.17        80.28802
936.56        80.04332
936.96        80.02441
937.35        80.34762
937.74        80.85569
938.13        81.35818
938.53         81.5928
938.92        81.50117
939.31        81.16056
939.70        80.70216
940.09        80.35359
940.49        80.16913
940.88        80.12045
941.27        80.09499
941.66        79.91826
942.05        79.57146
942.44        79.16312
942.84        78.80331
943.23        78.60645
943.62        78.63548
944.01        78.80867
944.40        79.14342
944.79        79.66607
945.18        80.30694
945.57        81.01565
945.97        81.52726
946.36        81.52744
946.75        80.95287
947.14        79.90768
947.53        78.70548
947.92         77.9146
948.31        77.72285
948.70        77.99734
949.09        78.49642
949.48        78.81332
949.87        78.83125
950.26        78.67963
950.65         78.4898
951.04        78.46293
951.43        78.65398
951.82        78.96964
952.21        79.31127
952.60        79.53806
952.99        79.59081
953.38        79.50353
953.77        79.34415
954.16        79.21017
954.55        79.12493
954.94        79.06504
955.33        78.95327
955.72        78.66476
956.11        78.18556
956.50        77.57317
956.89        76.97485
957.28        76.63087
957.66        76.64842
958.05        76.95668
958.44        77.41579
958.83        77.78738
959.22        77.97878
959.61        77.99089
960.00        77.95856
960.39        78.10735
960.78        78.46514
961.16        79.00313
961.55        79.35657
961.94        79.04156
962.33        78.00203
962.72        76.46944
963.11        74.96983
963.49        74.25276
963.88        74.47126
964.27        75.41603
964.66        76.67319
965.04        77.49523
965.43        77.54169
965.82        77.08092
966.21        76.41955
966.60        76.04293
966.98         76.0918
967.37        76.33949
967.76        76.66913
968.15         76.8568
968.53        76.83026
968.92        76.71744
969.31        76.51687
969.69        76.17436
970.08        75.71535
970.47        75.15516
970.86        74.77861
971.24        75.09479
971.63        76.09247
972.02        77.56981
972.40         79.1022
972.79        79.99351
973.17        80.19163
973.56         79.7823
973.95        79.09461
974.33        78.68645
974.72        78.72251
975.11        79.05947
975.49        79.37814
975.88        79.16412
976.26        78.33549
976.65        77.08992
977.04        75.83045
977.42        75.19662
977.81        75.32107
978.19        75.97192
978.58         77.0081
978.96        78.09814
979.35        79.01038
979.74        79.87975
980.12        80.48891
980.51        80.27155
980.89         79.3036
981.28        77.59312
981.66        75.85537
982.05        75.43801
982.43         76.6452
982.82        79.01807
983.20        81.64468
983.59        82.93321
983.97        82.58997
984.35        81.00243
984.74        78.79078
985.12        77.10971
985.51        76.38923
985.89        76.32522
986.28        76.63376
986.66        76.96163
987.04        77.15408
987.43        77.35343
987.81        77.61508
988.20        77.87527
988.58        78.16647
988.96        78.41738
989.35         78.5406
989.73        78.56849
990.12        78.45511
990.50        78.15679
990.88        77.79034
991.27        77.63178
991.65        77.75848
992.03        78.12242
992.42        78.30063
992.80        77.93114
993.18        76.83273
993.56        75.04317
993.95        73.02299
994.33        71.92017
994.71         72.3341
995.10        73.73021
995.48        75.35632
995.86        76.36757
996.24        76.67435
996.63        76.43018
997.01        76.01708
997.39        76.07755
997.77        76.82243
998.15        78.01584
998.54        79.02822
998.92        79.04986
999.30        77.95842
999.68        75.97868
1000.06        73.91177
1000.45        73.18393
1000.83        74.25111
1001.21        76.59922
1001.59         79.1711
1001.97        80.41737
1002.35        79.98474
1002.73        78.28406
1003.12        76.02895
1003.50        74.67371
1003.88        74.83638
1004.26        75.90735
1004.64         77.3247
1005.02        78.44132
1005.40        79.06934
1005.78        79.46622
1006.16        79.48971
1006.54        78.84252
1006.92        77.54719
1007.30        75.68384
1007.69        73.77015
1008.07        72.60313
1008.45        72.47378
1008.83        73.16898
1009.21         74.2217
1009.59        74.90494
1009.97        74.98798
1010.35        74.61083
1010.73        73.91165
1011.11        73.29301
1011.49        73.03151
1011.86        73.11076
1012.24        73.25195
1012.62        73.35574
1013.00        73.37048
1013.38         73.3225
1013.76        73.38582
1014.14        73.80846
1014.52         74.6443
1014.90        75.89326
1015.28        77.09832
1015.66         77.3807
1016.04        76.54578
1016.41        74.94431
1016.79        73.30349
1017.17        73.09341
1017.55        74.49486
1017.93        77.00932
1018.31        79.72914
1018.69        81.18331
1019.06        81.01184
1019.44        79.65071
1019.82        77.55235
1020.20        75.81602
1020.58        74.99843
1020.95        74.60348
1021.33        74.75381
1021.71        75.58504
1022.09        76.90846
1022.46        78.70776
1022.84        80.11604
1023.22         79.3151
1023.60        75.70773
1023.97        69.21576
1024.35        61.23472
1024.73        55.26056
