SpectraSmart Spectrum 2.9.0.0
--------- Device Information -----------
Spectrum Name :  反射率_0
Saving Time :  2024/04/27 23:04:09
Spectro-Module Model Name : SE2030-DUVN
Spectro-Module Serial Number : OS361AC55029948
Wavelength Start : 200
Wavelength End : 1025
Wavelength Unit : Wavelength(nm)
Spectrum Unit : Reflectance(%)
-----------Spectrum Setting ------------
Integration Time : 20ms
Average : 10
Boxcar : 0
Background removal :  enabled
linearity correction :  enabled
SC :  disabled
Intensity correction :  disabled
DWT denoise :  enabled
savitzky-golay :  disabled
FFT :  disabled
Running average :  disabled
Kalman :  disabled
High pass :  disabled
---------------BEGIN--------------------
Wavelength(nm)             Reflectance(%)
200.29               0
200.75        2.830754
201.21        32.78221
201.67        53.52623
202.13        59.36081
202.58        55.57787
203.04        46.95565
203.50         38.8575
203.96        38.35883
204.42        45.15606
204.88        55.22705
205.34        64.07699
205.80        68.07156
206.26        66.90425
206.72        60.12082
207.18        48.51093
207.64        43.32195
208.10        50.98676
208.55        63.30748
209.01        70.56037
209.47        70.03375
209.93        60.68322
210.39        32.59021
210.85       -57.19731
211.31       -179.6085
211.77       -59.54169
212.23        26.82916
212.69        58.12292
213.14        67.00739
213.60        64.84132
214.06        54.85562
214.52        35.06824
214.98        18.30089
215.44         21.3376
215.90        32.00169
216.36        42.31107
216.81        50.48378
217.27        57.08142
217.73        63.88836
218.19        68.97294
218.65         68.1235
219.11        60.16948
219.57        45.44827
220.02        27.20565
220.48        16.39573
220.94        17.33485
221.40        26.20144
221.86        37.80636
222.32        46.70174
222.77        52.08479
223.23        55.48806
223.69        57.43797
224.15         58.3704
224.61        58.63084
225.06        57.85023
225.52         56.6196
225.98        55.81015
226.44         55.6316
226.90        55.74553
227.36        55.75095
227.81        55.16396
228.27        53.94259
228.73        52.16986
229.19        49.86972
229.65        47.30859
230.10        44.79773
230.56        42.73557
231.02        41.18397
231.48        40.25043
231.93        39.83494
232.39        39.89346
232.85        40.47043
233.31         41.6707
233.77        43.31778
234.22        45.30679
234.68        46.92789
235.14         47.3648
235.60         46.5046
236.05        44.39299
236.51        41.89726
236.97        40.97533
237.43        42.41907
237.88        45.91609
238.34        49.66957
238.80        51.90228
239.26        52.18254
239.71        50.32255
240.17        46.79375
240.63        46.03579
241.08        51.00562
241.54        57.79003
242.00        62.50549
242.46        63.78204
242.91        61.94303
243.37         55.7886
243.83        42.19002
244.28        24.64778
244.74        23.56157
245.20        39.66163
245.66        54.03332
246.11        58.71236
246.57        55.64749
247.03        45.66446
247.48        29.14041
247.94        19.21136
248.40        27.99988
248.85         46.7586
249.31           64.48
249.77        72.99014
250.22        73.66722
250.68          70.967
251.14        67.45222
251.59        64.79404
252.05        63.07232
252.51        60.91531
252.96        58.00579
253.42        56.37627
253.88        56.55084
254.33         58.0286
254.79        58.85637
255.25        56.97884
255.70        53.05598
256.16        48.80738
256.62         45.7023
257.07         45.3787
257.53        47.37903
257.99        49.96894
258.44        51.94273
258.90        52.62098
259.35         51.9166
259.81         50.6959
260.27        49.18325
260.72        47.64688
261.18        46.50238
261.63        45.47511
262.09        44.68484
262.55        43.95818
263.00        43.21732
263.46         42.6013
263.91         42.1261
264.37         42.0904
264.83        42.37184
265.28        42.78129
265.74        43.10395
266.19        42.90759
266.65        42.22813
267.11        41.19377
267.56        39.99345
268.02        39.02006
268.47        38.34365
268.93        37.86494
269.38        37.52188
269.84        37.23504
270.30        36.94589
270.75        36.68579
271.21        36.36047
271.66        35.77203
272.12        34.93161
272.57        33.87157
273.03        32.80849
273.48        32.00829
273.94        31.57655
274.39        31.38425
274.85        31.31564
275.31        31.13272
275.76        30.75347
276.22         30.2634
276.67        29.70345
277.13        29.21917
277.58        28.79192
278.04        28.43178
278.49        28.01021
278.95        27.44856
279.40        26.71548
279.86        25.93534
280.31         25.2268
280.77        24.86375
281.22         24.8311
281.68        25.04843
282.13        25.32726
282.59        25.45354
283.04        25.35765
283.50        25.11438
283.95        24.78659
284.41        24.50927
284.86        24.30515
285.32        24.15183
285.77        23.99234
286.22        23.77893
286.68        23.52236
287.13        23.22618
287.59          22.967
288.04        22.78193
288.50        22.70478
288.95        22.68592
289.41        22.69723
289.86        22.65644
290.32         22.5638
290.77        22.43912
291.22        22.31592
291.68        22.23927
292.13         22.2168
292.59        22.24603
293.04        22.32865
293.50        22.48959
293.95        22.72086
294.40        23.03115
294.86        23.38588
295.31        23.72175
295.77        24.03093
296.22         24.3052
296.68        24.60365
297.13        25.00207
297.58        25.50614
298.04        26.07381
298.49        26.60514
298.95        26.96248
299.40        27.12399
299.85        27.14224
300.31        27.13535
300.76        27.25431
301.21        27.54614
301.67        27.95872
302.12        28.39112
302.58        28.72384
303.03         28.9107
303.48         28.9995
303.94        29.06116
304.39        29.15827
304.84        29.32351
305.30        29.53745
305.75        29.73325
306.20        29.84642
306.66        29.87484
307.11        29.81416
307.57        29.75311
308.02        29.76747
308.47        29.88214
308.93        30.06594
309.38        30.20969
309.83        30.16784
310.29        29.92983
310.74        29.53848
311.19        29.11881
311.65        28.86837
312.10        28.81518
312.55         28.8975
313.00        29.02096
313.46        29.03918
313.91        28.90764
314.36        28.68129
314.82        28.38722
315.27        28.06406
315.72        27.74236
316.18        27.41772
316.63        27.12613
317.08         26.9469
317.53         26.8896
317.99        26.93186
318.44        27.01331
318.89        27.01489
319.35        26.90359
319.80        26.70693
320.25        26.47261
320.70        26.28896
321.16        26.17188
321.61        26.09535
322.06         26.0185
322.51        25.88065
322.97        25.66403
323.42        25.40682
323.87        25.12777
324.32        24.86054
324.78        24.62054
325.23        24.40187
325.68        24.21831
326.13        24.09641
326.59        24.02515
327.04        24.01653
327.49        24.01623
327.94        23.94123
328.39        23.77005
328.85        23.51539
329.30        23.23701
329.75        23.03986
330.20        22.95759
330.66        22.95563
331.11        22.98805
331.56        22.93386
332.01        22.76453
332.46        22.51529
332.92        22.25503
333.37         22.1226
333.82        22.14625
334.27        22.27667
334.72         22.4409
335.17        22.52085
335.63        22.47479
336.08        22.35922
336.53        22.19241
336.98        22.01513
337.43        21.85773
337.88         21.7109
338.34        21.61777
338.79        21.65283
339.24        21.81863
339.69        22.08233
340.14        22.36574
340.59        22.53778
341.05        22.55951
341.50        22.47466
341.95        22.30363
342.40        22.09464
342.85        21.87688
343.30        21.63474
343.75         21.4252
344.20        21.33892
344.66        21.39033
345.11        21.55906
345.56        21.74193
346.01        21.76426
346.46        21.59202
346.91        21.27584
347.36        20.94287
347.81        20.78944
348.26        20.86098
348.72         21.1028
349.17        21.39204
349.62        21.53197
350.07        21.47195
350.52        21.26011
350.97         21.0312
351.42        20.99961
351.87        21.20045
352.32        21.55464
352.77        21.88214
353.22        21.91436
353.67        21.60387
354.13        21.06025
354.58        20.45214
355.03        20.09544
355.48        20.07588
355.93        20.30872
356.38         20.6328
356.83        20.79478
357.28        20.72919
357.73         20.5111
358.18        20.27051
358.63        20.20802
359.08        20.35588
359.53        20.62575
359.98        20.87927
360.43        20.90993
360.88        20.67525
361.33        20.25633
361.78        19.75843
362.23        19.38383
362.68        19.20177
363.13        19.08835
363.58        18.99379
364.03        19.20941
364.48        19.10289
364.93        19.17107
365.38        19.21546
365.83        19.21681
366.28        19.16114
366.73        19.05161
367.18        18.90441
367.63        18.73919
368.08        18.57084
368.53        18.40319
368.98        18.24334
369.43        18.09842
369.88         17.9736
370.33        17.87149
370.78        17.79655
371.23         17.7538
371.68        17.73432
372.13        17.72298
372.58         17.7015
373.03        17.64139
373.48        17.53796
373.93        17.41229
374.38        17.25836
374.83        17.06654
375.28        16.84982
375.72        16.60491
376.17        16.42208
376.62        16.40238
377.07        16.54775
377.52        16.80593
377.97        17.06514
378.42        17.14976
378.87        17.02311
379.32        16.75248
379.77        16.40961
380.22        16.10517
380.67        15.87869
381.11        15.69406
381.56        15.57182
382.01        15.54355
382.46        15.60207
382.91        15.74438
383.36        15.88302
383.81        15.87597
384.26        15.69988
384.71        15.39303
385.15        15.05728
385.60        14.88864
386.05        14.91831
386.50        15.09089
386.95        15.30665
387.40        15.40698
387.85         15.3589
388.29         15.2132
388.74         15.0626
389.19        15.00198
389.64        15.04608
390.09        15.13981
390.54        15.24405
390.98        15.29898
391.43        15.28834
391.88        15.24112
392.33        15.13585
392.78        14.96334
393.23        14.74492
393.67        14.42701
394.12        14.10408
394.57        14.07022
395.02        14.08699
395.47        14.09995
395.91        14.02392
396.36        13.99371
396.81        14.00362
397.26        13.96771
397.71        13.89162
398.15        13.83684
398.60        13.82282
399.05        13.77007
399.50        13.71097
399.95        13.78372
400.39        13.94512
400.84        13.98312
401.29        13.87654
401.74        13.72795
402.18        13.57688
402.63        13.46322
403.08        13.40436
403.53        13.35426
403.97        13.32232
404.42        13.36935
404.87        13.46894
405.32        13.55146
405.76        13.59627
406.21        13.58329
406.66        13.53174
407.11        13.53727
407.55        13.56982
408.00        13.48248
408.45        13.27937
408.90        13.01998
409.34        12.78283
409.79        12.73364
410.24         12.8454
410.68        12.90606
411.13        12.89446
411.58        12.94303
412.03         13.0367
412.47        13.07861
412.92        13.05032
413.37        12.98653
413.81        12.90142
414.26        12.82705
414.71        12.77109
415.15        12.72353
415.60        12.69507
416.05        12.70744
416.49        12.76121
416.94        12.84689
417.39        12.92896
417.83        12.95278
418.28        12.90189
418.73        12.78504
419.17        12.64399
419.62        12.55211
420.07        12.53373
420.51        12.57684
420.96        12.63212
421.41        12.63746
421.85        12.57747
422.30         12.4175
422.74        12.24297
423.19        12.33225
423.64        12.64049
424.08        12.81727
424.53        12.77318
424.98        12.73751
425.42        12.70901
425.87        12.45829
426.31        12.09682
426.76         12.0599
427.21        12.29836
427.65        12.35413
428.10        12.20971
428.54        12.15303
428.99        12.17809
429.44        12.23177
429.88        12.25772
430.33        12.02706
430.77        11.67859
431.22        11.70541
431.66        12.06399
432.11        12.30321
432.56        12.33655
433.00        12.28995
433.45        12.09036
433.89        11.74057
434.34        11.50184
434.78        10.96649
435.23         11.5009
435.67        11.95609
436.12        12.15547
436.57        12.23926
437.01        12.13132
437.46        12.08449
437.90        12.16956
438.35        12.30538
438.79        12.09086
439.24        12.00474
439.68        11.94734
440.13         11.8922
440.57        11.83452
441.02        11.87283
441.46        11.97638
441.91        11.86851
442.35        11.64166
442.80        11.80107
443.24        12.23968
443.69        12.26791
444.13        11.90429
444.58        11.74788
445.02        11.80485
445.47        11.76501
445.91        11.63219
446.36        11.58009
446.80        11.61124
447.24         11.6721
447.69        11.74686
448.13        11.84425
448.58        11.93567
449.02        11.96316
449.47         11.9357
449.91         11.9245
450.36        11.93696
450.80          11.928
451.25        11.90134
451.69        11.88441
452.13        11.87467
452.58        11.85559
453.02        11.82257
453.47        11.77394
453.91        11.70904
454.36        11.65209
454.80        11.59088
455.24        11.49348
455.69        11.39164
456.13        11.30698
456.58         11.2703
457.02        11.36821
457.46        11.53351
457.91        11.55151
458.35        11.47626
458.79        11.46345
459.24        11.53043
459.68        11.56843
460.13        11.57454
460.57        11.52566
461.01        11.47693
461.46        11.44476
461.90         11.3871
462.34        11.36354
462.79        11.55229
463.23        11.63246
463.68        11.64914
464.12        11.65174
464.56        11.64838
465.01        11.67797
465.45        11.68894
465.89        11.60309
466.34        11.46389
466.78        11.33057
467.22          11.224
467.67        11.41403
468.11        11.39701
468.55        11.45391
468.99        11.42887
469.44        11.43116
469.88        11.45437
470.32        11.41721
470.77        11.35639
471.21         11.3682
471.65        11.46574
472.10        11.62019
472.54        11.76879
472.98        11.83192
473.42        11.79848
473.87         11.6654
474.31        11.50494
474.75        11.53601
475.20        11.73626
475.64        11.85142
476.08        11.84329
476.52        11.88608
476.97        11.98087
477.41        11.90625
477.85        11.79482
478.29        11.83471
478.74        11.74004
479.18        11.64191
479.62         11.8305
480.06         11.8651
480.50        11.86703
480.95        11.83695
481.39        11.78176
481.83        11.96947
482.27        12.04474
482.72        12.08825
483.16        12.34093
483.60        12.42952
484.04        12.42851
484.48        12.41743
484.93        12.54862
485.37        12.48455
485.81        12.64318
486.25        13.21167
486.69        12.44236
487.14         12.0315
487.58        13.22038
488.02        12.94718
488.46        12.89909
488.90        12.99022
489.34        12.51848
489.79         12.5236
490.23        13.10275
490.67        13.48594
491.11        13.68163
491.55        13.59259
491.99        13.34295
492.43        13.32697
492.88        13.58186
493.32        13.83976
493.76        14.02825
494.20        14.19826
494.64        14.34074
495.08        14.40154
495.52        14.41008
495.96         14.5337
496.41        14.78471
496.85        14.74853
497.29        14.53282
497.73        14.69247
498.17        15.16329
498.61        15.44157
499.05        15.44451
499.49        15.42838
499.93        15.43954
500.37        15.42973
500.82        15.42821
501.26        15.51863
501.70        15.72011
502.14         15.6887
502.58        15.95163
503.02        16.04155
503.46        16.04721
503.90        16.00833
504.34        15.95193
504.78        15.97389
505.22        16.08231
505.66        16.21588
506.10        16.35121
506.54        16.49636
506.98        16.64134
507.42        16.70775
507.86         16.8109
508.30        16.82168
508.74        16.78228
509.18        16.69497
509.62        16.61162
510.06        16.61538
510.50        16.72049
510.94        16.90337
511.38        17.10262
511.82        17.21792
512.26        17.22359
512.70        17.14997
513.14        17.04569
513.58        16.98353
514.02        16.98694
514.46         17.0466
514.90        17.13661
515.34        17.15539
515.78        17.18855
516.22        17.17116
516.66         17.1571
517.10         17.1797
517.54        17.24438
517.98         17.3334
518.42        17.41179
518.86        17.42943
519.30        17.37602
519.74        17.27096
520.18        17.15009
520.62        17.06714
521.06        17.03952
521.50        17.05646
521.93        17.09796
522.37        17.12242
522.81        17.12013
523.25        17.09693
523.69        17.07457
524.13        17.08693
524.57         17.1358
525.01        17.20613
525.45        17.25538
525.89        17.21905
526.32        17.08597
526.76        16.88888
527.20        16.68178
527.64         16.5526
528.08        16.52295
528.52        16.56369
528.96        16.63664
529.40        16.68004
529.83        16.67379
530.27        16.63906
530.71        16.58271
531.15         16.5149
531.59        16.44398
532.03        16.36444
532.46        16.29062
532.90        16.25986
533.34        16.27305
533.78        16.32118
534.22         16.3786
534.66        16.40386
535.09        16.38654
535.53        16.34176
535.97        16.28593
536.41        16.24803
536.85        16.23757
537.28        16.24698
537.72         16.2705
538.16        16.29594
538.60        16.32131
539.04        16.35722
539.47        16.40053
539.91        16.45565
540.35        16.51824
540.79        16.58605
541.22        16.66121
541.66        16.74893
542.10        16.84682
542.54        16.95372
542.97        17.05234
543.41        17.12646
543.85        17.17277
544.29        17.19965
544.72        17.22762
545.16        17.30323
545.60         17.4287
546.04        17.59012
546.47        17.76458
546.91        17.90925
547.35        18.01183
547.79        18.09422
548.22        18.16363
548.66        18.22936
549.10         18.3088
549.53        18.46064
549.97        18.67042
550.41        18.85147
550.84        18.99231
551.28        19.14499
551.72        19.30038
552.15        19.41973
552.59        19.50749
553.03        19.56604
553.46        19.62406
553.90        19.74213
554.34        19.92414
554.77        20.15827
555.21        20.39245
555.65        20.54261
556.08        20.57006
556.52        20.54902
556.96        20.51727
557.39        20.56224
557.83        20.68492
558.27        20.77465
558.70        20.81743
559.14        20.86816
559.57        20.91713
560.01        20.95524
560.45        20.98175
560.88        20.98269
561.32        21.00464
561.75        21.09546
562.19        21.24358
562.63        21.42204
563.06        21.57041
563.50        21.53637
563.93        21.37366
564.37        21.35827
564.80        21.50294
565.24        21.67255
565.68        21.83108
566.11        21.97079
566.55        22.08316
566.98        22.18901
567.42        22.29045
567.85        22.32759
568.29          22.347
568.72        22.41037
569.16        22.52499
569.60        22.69954
570.03        22.94844
570.47        23.01269
570.90        23.14388
571.34        23.60293
571.77        23.59094
572.21        23.56633
572.64        23.80328
573.08        23.70708
573.51        23.98401
573.95        24.14722
574.38         24.2483
574.82        24.48717
575.25        24.17244
575.69        24.19308
576.12        24.37706
576.56         24.6161
576.99        24.75979
577.42        24.55426
577.86        24.59528
578.29        24.85433
578.73        24.59963
579.16        24.57705
579.60        24.48438
580.03        24.41377
580.47         24.3693
580.90        24.26395
581.33        24.43383
581.77        24.27314
582.20        23.83132
582.64         23.5772
583.07        23.52451
583.51        23.51976
583.94         23.6138
584.37        23.58066
584.81        23.38629
585.24        23.24274
585.68        23.24643
586.11        22.91824
586.54        22.83414
586.98        22.91853
587.41        23.23304
587.85        22.83196
588.28        22.68094
588.71        22.88571
589.15        22.83247
589.58         22.6421
590.01         22.7653
590.45        22.83689
590.88        22.55286
591.31        22.55922
591.75        22.71782
592.18        22.74589
592.61        22.61515
593.05        22.86115
593.48        22.84451
593.91        22.48295
594.35        22.63873
594.78        22.90848
595.21        23.13208
595.65        23.20724
596.08        23.06779
596.51        23.28896
596.94        23.52247
597.38        23.85434
597.81        24.20887
598.24        24.11407
598.68        24.54618
599.11        25.00522
599.54        24.91821
599.97         25.0953
600.41        25.66499
600.84        25.99275
601.27        26.17098
601.70        26.45251
602.14        26.61816
602.57        27.19652
603.00        27.74524
603.43        28.14653
603.87        28.48723
604.30        28.64375
604.73        29.07628
605.16        29.77096
605.60         30.1686
606.03         30.6737
606.46        31.10164
606.89        31.12146
607.32        31.66152
607.76        32.27705
608.19        32.31664
608.62        32.67621
609.05        33.12307
609.48        33.44718
609.92        33.58093
610.35        34.18461
610.78        34.38559
611.21        34.44205
611.64        35.08884
612.07        35.38192
612.50        35.62472
612.94        35.89524
613.37        36.21959
613.80        36.63773
614.23        36.92463
614.66        37.15797
615.09        37.28715
615.52         37.5663
615.96        38.02282
616.39        38.06396
616.82         38.3508
617.25        38.82388
617.68        39.01003
618.11        39.28701
618.54        39.49796
618.97         39.8214
619.40        40.17696
619.84        40.61887
620.27        40.69786
620.70        40.73416
621.13         40.6002
621.56         41.0929
621.99        41.22918
622.42        41.25171
622.85        41.21899
623.28        41.63074
623.71        41.61611
624.14        41.27913
624.57         41.3383
625.00        41.49761
625.43        41.26471
625.86        41.41674
626.29        41.71051
626.72        41.45536
627.15        41.49424
627.58        41.24933
628.01        41.06956
628.44         40.6393
628.87        40.59576
629.30        40.30555
629.73        40.13777
630.16        39.46908
630.59        39.42175
631.02        39.13097
631.45        38.86238
631.88        38.54848
632.31        38.19138
632.74        37.61407
633.17        37.22325
633.60        36.78761
634.03           36.43
634.46        36.12487
634.89        35.82411
635.32        35.43359
635.75        34.93412
636.18        34.38374
636.61        33.83098
637.04        33.31066
637.47        32.86426
637.89        32.55896
638.32        32.34155
638.75        32.07684
639.18        31.74371
639.61         31.4104
640.04        31.08498
640.47        30.76111
640.90        30.44708
641.33        30.13261
641.76        29.82366
642.18        29.60675
642.61         29.3724
643.04        29.21191
643.47        29.09525
643.90        29.02755
644.33        29.00405
644.76        29.02196
645.18        29.06779
645.61        29.11562
646.04        29.16272
646.47        29.21519
646.90        29.28934
647.33        29.42484
647.75        29.63942
648.18        29.89129
648.61        30.16841
649.04        30.57154
649.47        31.04834
649.89        31.29971
650.32        31.40918
650.75        31.87396
651.18        32.63594
651.61         33.1665
652.03         33.4029
652.46        33.65663
652.89        34.06384
653.32        34.39857
653.74        34.78109
654.17        35.76903
654.60        35.96874
655.03        36.06569
655.46        37.06871
655.88        38.18093
656.31        38.73997
656.74        39.10225
657.16        38.98141
657.59        39.30143
658.02        39.53164
658.45        40.46104
658.87        40.75202
659.30        41.08017
659.73        41.39778
660.15         41.7029
660.58        41.95671
661.01        42.50041
661.44        43.21416
661.86        43.53384
662.29          43.513
662.72         43.6904
663.14        44.11628
663.57        44.49636
664.00        44.79267
664.42        45.05234
664.85        45.28008
665.27        45.49628
665.70        45.71716
666.13        45.94469
666.55        46.18746
666.98        46.45064
667.41        46.73082
667.83        47.00894
668.26        47.27026
668.69        47.52599
669.11        47.76698
669.54        47.98062
669.96        48.17607
670.39        48.32385
670.82        48.45093
671.24        48.68031
671.67        48.98743
672.09        49.15517
672.52        49.21908
672.94        49.41524
673.37        49.72666
673.80        49.90931
674.22        49.97495
674.65        50.08276
675.07        50.25243
675.50        50.38123
675.92         50.4809
676.35        50.60257
676.77        50.75458
677.20        50.92634
677.62        51.10606
678.05        51.25758
678.47        51.37518
678.90        51.48028
679.32        51.59241
679.75        51.75132
680.17         51.9607
680.60        52.20939
681.02        52.46021
681.45        52.64222
681.87        52.75183
682.30        52.78524
682.72        52.79506
683.15        52.91351
683.57        53.14193
684.00        53.29982
684.42         53.3945
684.85        53.56947
685.27        53.82258
685.70        54.06837
686.12        54.24574
686.54        54.37275
686.97        54.46867
687.39        54.26631
687.82        54.39806
688.24        54.42498
688.66        54.75179
689.09        54.92583
689.51         55.0222
689.94        55.16629
690.36        55.35332
690.78        55.47082
691.21        55.52776
691.63        55.61096
692.06        55.72736
692.48        55.82397
692.90        55.90733
693.33        56.00993
693.75        56.13484
694.17        56.26685
694.60        56.40255
695.02        56.55412
695.44        56.70636
695.87        56.87294
696.29        57.05186
696.71        57.12505
697.14        57.10913
697.56         57.2123
697.98        57.41059
698.41        57.50157
698.83        57.52852
699.25        57.74247
699.68        58.21648
700.10        58.51651
700.52        58.64437
700.94        58.73081
701.37        58.76894
701.79        58.92447
702.21        58.84842
702.64        58.84315
703.06        58.83318
703.48        58.89381
703.90        59.04483
704.33        59.26466
704.75        59.51028
705.17        59.73869
705.59        59.81932
706.01        59.81982
706.44        59.78865
706.86         59.9179
707.28        60.05045
707.70        60.42957
708.12        60.86389
708.55        60.78729
708.97        60.32341
709.39        60.32167
709.81        60.79243
710.23        61.02884
710.66        61.00067
711.08        61.15852
711.50        61.45463
711.92        61.61722
712.34        61.63012
712.76        61.57178
713.19        61.48944
713.61        61.50394
714.03        61.62738
714.45        61.81794
714.87        62.03484
715.29        62.22259
715.71        62.36248
716.13        62.47295
716.56        62.54734
716.98        62.64062
717.40        62.74251
717.82        62.84135
718.24        62.94287
718.66        63.06649
719.08         63.2094
719.50         63.3525
719.92        63.49027
720.34        63.62217
720.76         63.7427
721.19         63.8414
721.61        63.92036
722.03        63.95608
722.45        63.94648
722.87        63.90982
723.29        63.88864
723.71        63.90345
724.13         63.9618
724.55        64.20872
724.97        64.40623
725.39        64.50427
725.81        64.68076
726.23        64.74279
726.65        64.80819
727.07        64.94346
727.49        65.15839
727.91        65.41689
728.33        65.64918
728.75        65.73477
729.17        65.64759
729.59        65.47787
730.01        65.28937
730.43        65.08283
730.85        64.94342
731.27         65.0647
731.69        65.38626
732.10        65.61873
732.52        65.70967
732.94        65.84723
733.36         66.0247
733.78        66.09823
734.20         66.0526
734.62        66.32376
735.04         65.8513
735.46        66.28174
735.88        66.40276
736.30        66.30655
736.72        65.84804
737.13        65.79586
737.55        66.14024
737.97        66.38025
738.39        66.46258
738.81        66.52806
739.23        66.59798
739.65        66.74227
740.06        66.90222
740.48        66.97713
740.90        66.93248
741.32        66.91771
741.74        66.87798
742.16         66.9129
742.57        67.00855
742.99        67.23002
743.41         67.4978
743.83        67.49293
744.25        67.27512
744.67        67.26533
745.08         67.5084
745.50        67.68529
745.92        67.80069
746.34        68.05165
746.75        68.35654
747.17        68.48402
747.59         68.4086
748.01         68.1705
748.42        67.88415
748.84         67.7961
749.26        67.92123
749.68        68.05776
750.09        68.14108
750.51        68.20517
750.93        68.23425
751.35        68.23173
751.76        68.22971
752.18        68.25243
752.60        68.31625
753.01        68.42823
753.43        68.56093
753.85        68.68845
754.27        68.79457
754.68        68.90682
755.10        69.02119
755.52        69.06458
755.93        69.06882
756.35        69.19302
756.77         69.3807
757.18        69.45845
757.60        69.48493
758.02        69.43243
758.43        69.30668
758.85         69.7958
759.26        70.01478
759.68        69.57983
760.10         69.2215
760.51        68.30411
760.93        69.21328
761.34        69.62877
761.76        69.98849
762.18        69.99448
762.59        69.77174
763.01        69.98009
763.42        70.59677
763.84        70.80237
764.26        70.59547
764.67        70.42876
765.09        70.40091
765.50        70.47391
765.92        70.63087
766.33        70.58214
766.75        70.21317
767.16        70.33234
767.58        69.80105
768.00        69.93334
768.41        70.34677
768.83        70.78493
769.24        71.06695
769.66        71.00499
770.07        70.68856
770.49        70.56338
770.90        70.70299
771.32        70.88033
771.73        71.03614
772.15        71.11717
772.56         71.1152
772.97        71.10686
773.39        71.09085
773.80        71.02755
774.22        70.94482
774.63        71.06824
775.05        71.32652
775.46        71.49453
775.88        71.51093
776.29        71.53641
776.70        71.58714
777.12        71.64005
777.53        71.72319
777.95        71.82346
778.36        71.92568
778.77        71.98595
779.19        71.99711
779.60        71.98299
780.02        71.97304
780.43        72.02625
780.84         72.1255
781.26        72.28657
781.67        72.53383
782.09        72.61236
782.50         72.4263
782.91        73.02419
783.33        72.50513
783.74         72.4992
784.15        72.44488
784.57        72.30133
784.98        72.13069
785.39         72.2017
785.81        72.48863
786.22        72.66437
786.63        72.70182
787.04        72.82547
787.46        73.02547
787.87        73.12777
788.28        73.14514
788.70        73.14449
789.11        73.11487
789.52        73.12364
789.93        73.15313
790.35        73.01554
790.76        72.79979
791.17         72.8225
791.58        73.08446
792.00        73.27279
792.41        73.35821
792.82        73.54263
793.23        73.77068
793.65        73.71109
794.06        73.53654
794.47        73.80161
794.88        74.31416
795.29        74.93435
795.71        74.49505
796.12        74.31813
796.53        74.15511
796.94        74.10799
797.35         74.1751
797.76        74.10351
798.18        73.92402
798.59        73.96333
799.00        74.26507
799.41        74.13276
799.82        74.47906
800.23         74.4819
800.64        74.41666
801.06        74.23961
801.47        74.07972
801.88        74.05846
802.29        74.19807
802.70        74.46557
803.11        74.76913
803.52        74.95432
803.93        74.98227
804.34        74.89842
804.75        74.76436
805.17        74.71608
805.58         74.8298
805.99        74.90884
806.40        74.93536
806.81        75.21385
807.22        75.54808
807.63         75.2188
808.04        74.40881
808.45        74.07444
808.86        74.32851
809.27        74.75191
809.68        75.15568
810.09        75.20634
810.50        74.92145
810.91        74.84515
811.32        75.04698
811.73        75.11438
812.14        75.04224
812.55        75.24017
812.96        75.59975
813.37        75.44851
813.78        74.89654
814.19        74.79494
814.60        75.13172
815.01        75.23802
815.42         75.1047
815.83        75.13452
816.24        75.32752
816.65         75.4668
817.05         75.5298
817.46         75.5258
817.87        75.52373
818.28        75.58076
818.69        75.71233
819.10        75.90401
819.51        76.07792
819.92        76.12345
820.33        76.02303
820.74        75.74866
821.14        75.44092
821.55        75.51241
821.96        75.91666
822.37        76.22047
822.78        76.33743
823.19        76.45281
823.60        76.53182
824.00        76.43765
824.41         76.1581
824.82         75.8793
825.23        75.65068
825.64        75.42908
826.04        75.29128
826.45        75.36694
826.86        75.68173
827.27        76.11842
827.68        76.52472
828.08        77.11561
828.49        77.04883
828.90        76.98534
829.31        76.79574
829.72        76.65701
830.12        76.63816
830.53        76.63936
830.94        76.67297
831.35        76.70034
831.75        76.73167
832.16        76.76248
832.57        76.75722
832.97        76.60796
833.38        76.30875
833.79        75.90359
834.20        75.56219
834.60         75.5334
835.01        75.86852
835.42        76.49115
835.82        77.21782
836.23        77.63972
836.64        77.66837
837.04        77.41919
837.45        77.05151
837.86        76.93829
838.26        77.18591
838.67        77.66867
839.08        78.21176
839.48        78.51293
839.89        78.49127
840.29        78.24889
840.70        77.95405
841.11        77.87112
841.51        78.07904
841.92        78.44189
842.33        78.82402
842.73        79.00065
843.14         78.8591
843.54          78.521
843.95        78.08694
844.35        77.73579
844.76        77.52033
845.17        77.38763
845.57        77.33657
845.98        77.32431
846.38        77.35275
846.79        77.42068
847.19        77.49026
847.60        77.43097
848.00        77.25107
848.41        76.94966
848.81        76.65623
849.22        76.51605
849.62        76.59982
850.03        76.82475
850.43         77.1194
850.84        77.28372
851.24        77.31178
851.65         77.1939
852.05        77.03728
852.46        76.91836
852.86        76.87586
853.27        76.90336
853.67        76.89594
854.07        76.88611
854.48        76.82578
854.88        76.76963
855.29        76.64297
855.69         76.5185
856.10        76.32582
856.50        76.14133
856.90        75.97663
857.31        75.88726
857.71        75.93017
858.12        76.02753
858.52        76.18142
858.92        76.26652
859.33        76.23046
859.73        76.13877
860.13        75.98532
860.54        75.79269
860.94        75.62209
861.34        75.43968
861.75        75.24846
862.15        75.11291
862.55        75.01922
862.96        74.98344
863.36        74.97464
863.76        74.91791
864.17         74.7968
864.57        74.64413
864.97        74.53935
865.38         74.5947
865.78        74.86935
866.18        75.28922
866.58        75.71718
866.99        75.92324
867.39        75.87152
867.79        75.60528
868.19        75.23502
868.60        74.88976
869.00        74.60292
869.40        74.35928
869.80        74.17856
870.21        74.10441
870.61        74.21536
871.01        74.45583
871.41        74.72293
871.81        74.85712
872.22        74.80526
872.62        74.62701
873.02        74.45343
873.42        74.52264
873.82        74.88423
874.22        75.44636
874.63        76.04145
875.03        76.40952
875.43        76.50159
875.83        76.36812
876.23        76.13879
876.63        76.03295
877.03        76.10433
877.44        76.28594
877.84         76.4241
878.24        76.23513
878.64        75.69112
879.04        74.93312
879.44        74.21249
879.84        73.86077
880.24        73.93927
880.64        74.35059
881.04        74.91007
881.44        75.29752
881.84        75.40101
882.24        75.28573
882.65        75.06889
883.05        75.06134
883.45        75.28741
883.85        75.65334
884.25        75.98885
884.65        76.05437
885.05        75.81196
885.45        75.34865
885.85        74.85654
886.25        74.65754
886.65         74.8337
887.05         75.2792
887.45        75.78487
887.85        76.03192
888.25        75.93976
888.65         75.6021
889.04        75.16441
889.44        74.91235
889.84        74.90335
890.24        75.03874
890.64        75.20238
891.04        75.21759
891.44        75.04457
891.84        74.77462
892.24        74.46764
892.64        74.20228
893.04        74.02313
893.44        73.90794
893.83        73.92565
894.23        74.12106
894.63        74.50748
895.03        75.04666
895.43        75.61884
895.83        76.02442
896.23        76.20383
896.63          76.202
897.02        76.09061
897.42        76.03175
897.82        76.05936
898.22        76.14745
898.62        76.26166
899.01        76.35881
899.41        76.39715
899.81        76.39279
900.21        76.39607
900.61        76.48026
901.00        76.64264
901.40        76.88197
901.80        77.05956
902.20        76.97456
902.59        76.61316
902.99        76.02391
903.39        75.44051
903.79        75.23074
904.18        75.46274
904.58        76.02553
904.98        76.65482
905.38        76.96611
905.77        76.86716
906.17        76.47479
906.57        75.98967
906.96        75.77927
907.36        75.92271
907.76         76.3316
908.15        76.81779
908.55        76.99303
908.95         76.7997
909.34        76.34425
909.74        75.88774
910.14        75.77074
910.53        76.07462
910.93        76.65419
911.33        77.30043
911.72        77.66623
912.12        77.63017
912.52         77.3256
912.91         76.8825
913.31        76.51283
913.70        76.27222
914.10        76.09524
914.49        75.98172
914.89        75.87183
915.29        75.77849
915.68        75.73298
916.08        75.76128
916.47        75.88291
916.87         76.1026
917.26        76.36688
917.66        76.63619
918.05        76.82121
918.45        76.89117
918.84         76.9004
919.24        76.84034
919.64        76.78608
920.03        76.78822
920.42        76.82919
920.82        76.93282
921.21        77.12962
921.61        77.39041
922.00        77.68861
922.40         77.9995
922.79        78.35641
923.19        78.69257
923.58        79.04688
923.98        79.20988
924.37        78.92415
924.77        78.17012
925.16        77.01888
925.55        75.87645
925.95         75.4432
926.34        75.88116
926.74        76.96498
927.13        78.22843
927.52         78.8109
927.92        78.54113
928.31        77.68711
928.70         76.6628
929.10        76.10055
929.49        76.17105
929.89        76.61531
930.28        77.30142
930.67         77.8766
931.07         78.1751
931.46        78.34953
931.85        78.33076
932.24        78.03609
932.64        77.49751
933.03         76.7272
933.42        75.96191
933.82        75.59724
934.21        75.72895
934.60        76.28301
934.99        76.99802
935.39        77.38609
935.78        77.34937
936.17        76.99774
936.56        76.59105
936.96          76.569
937.35        77.07714
937.74        77.90108
938.13        78.75327
938.53        79.24742
938.92        79.28804
939.31        78.96975
939.70        78.48345
940.09        78.15531
940.49        78.07225
940.88        78.19899
941.27        78.32144
941.66        78.11467
942.05        77.54123
942.44        76.73819
942.84        76.02645
943.23        75.86076
943.62        76.36681
944.01        77.37959
944.40        78.56445
944.79        79.32272
945.18        79.44485
945.57        79.09248
945.97        78.45911
946.36        77.92062
946.75        77.56498
947.14         77.2821
947.53        77.05324
947.92        76.86085
948.31        76.69569
948.70        76.61565
949.09         76.5755
949.48        76.46643
949.87        76.27941
950.26        76.04435
950.65        75.84808
951.04        75.84052
951.43        76.04831
951.82         76.4049
952.21        76.81959
952.60        77.14354
952.99        77.29568
953.38          77.284
953.77        77.12099
954.16        76.82937
954.55        76.43631
954.94        75.97042
955.33        75.42433
955.72         74.7892
956.11        74.09782
956.50        73.37244
956.89        72.79588
957.28        72.65622
957.66        73.03413
958.05        73.83478
958.44        74.74492
958.83        75.25365
959.22        75.22626
959.61         74.7532
960.00        74.17182
960.39        74.03739
960.78        74.47113
961.16        75.35207
961.55        76.20756
961.94        76.34248
962.33        75.59854
962.72        74.24546
963.11        72.82748
963.49        72.12512
963.88        72.31139
964.27         73.1694
964.66        74.26635
965.04        74.84493
965.43         74.5931
965.82        73.80659
966.21         72.9052
966.60        72.52596
966.98         72.8324
967.37        73.57743
967.76        74.48617
968.15        75.02217
968.53        75.01786
968.92        74.68497
969.31        74.21892
969.69        73.88574
970.08        73.78511
970.47        73.81654
970.86        74.10415
971.24        74.88212
971.63        76.02322
972.02         77.3973
972.40        78.67469
972.79        79.27042
973.17        79.19381
973.56         78.5592
973.95        77.63845
974.33        76.90607
974.72        76.53696
975.11        76.38181
975.49        76.41153
975.88        76.58899
976.26        76.86874
976.65        77.29178
977.04        77.61639
977.42        77.38928
977.81        76.47768
978.19        74.96449
978.58        73.42941
978.96        72.87379
979.35        73.51919
979.74         75.1122
980.12        77.00126
980.51        77.88602
980.89         77.5601
981.28         76.3018
981.66        74.72099
982.05        73.96507
982.43         74.3848
982.82        75.53278
983.20         76.9995
983.59        78.01142
983.97        78.42312
984.35         78.4369
984.74         78.1178
985.12        77.55993
985.51        76.88642
985.89        76.12803
986.28        75.48846
986.66        75.34845
987.04        75.71805
987.43        76.44422
987.81        77.37736
988.20        78.12044
988.58        78.54897
988.96        78.74063
989.35        78.54845
989.73        77.85123
990.12        76.61115
990.50        74.78765
990.88        72.82169
991.27        71.81709
991.65        72.17096
992.03        73.57993
992.42        75.14597
992.80        75.98384
993.18        75.81229
993.56        74.82968
993.95        73.40447
994.33        72.42208
994.71        72.42857
995.10        73.01677
995.48        73.78328
995.86        74.21314
996.24        74.24007
996.63        73.98643
997.01        73.75495
997.39        73.99474
997.77        74.81879
998.15        75.99682
998.54        77.03428
998.92        77.33083
999.30        76.78255
999.68        75.56562
1000.06        74.12909
1000.45        73.28053
1000.83        73.36487
1001.21        74.09184
1001.59        75.03448
1001.97        75.53915
1002.35        75.44743
1002.73          74.999
1003.12        74.36036
1003.50        73.76917
1003.88        73.44244
1004.26        73.21674
1004.64        73.22848
1005.02        73.68909
1005.40         74.5714
1005.78        75.87794
1006.16        77.12033
1006.54        77.39043
1006.92         76.4778
1007.30        74.61682
1007.69        72.63511
1008.07        71.83327
1008.45        72.58622
1008.83         74.4492
1009.21        76.55302
1009.59         77.6356
1009.97        77.36063
1010.35        75.99825
1010.73        74.02111
1011.11        72.70627
1011.49        72.73242
1011.86        73.78452
1012.24        75.19296
1012.62        76.29347
1013.00        76.92806
1013.38        77.43807
1013.76        77.88476
1014.14        78.31394
1014.52        78.79212
1014.90        79.17561
1015.28        79.77367
1015.66        81.18393
1016.04        83.36937
1016.41        86.10153
1016.79        88.32552
1017.17        88.90975
1017.55          87.721
1017.93        85.22501
1018.31        82.27747
1018.69        80.19866
1019.06        79.44379
1019.44        79.70098
1019.82        80.67883
1020.20        81.66284
1020.58        82.23642
1020.95        82.51011
1021.33         82.5491
1021.71         82.3541
1022.09        81.94079
1022.46        81.21207
1022.84        80.16314
1023.22        78.70743
1023.60        76.85986
1023.97        74.52068
1024.35         72.2512
1024.73        70.85249
