SpectraSmart Spectrum 2.9.0.0
--------- Device Information -----------
Spectrum Name :  反射率_0
Saving Time :  2024/04/27 22:14:16
Spectro-Module Model Name : SE2030-DUVN
Spectro-Module Serial Number : OS361AC55029948
Wavelength Start : 200
Wavelength End : 1025
Wavelength Unit : Wavelength(nm)
Spectrum Unit : Reflectance(%)
-----------Spectrum Setting ------------
Integration Time : 20ms
Average : 10
Boxcar : 0
Background removal :  enabled
linearity correction :  enabled
SC :  disabled
Intensity correction :  disabled
DWT denoise :  enabled
savitzky-golay :  disabled
FFT :  disabled
Running average :  disabled
Kalman :  disabled
High pass :  disabled
---------------BEGIN--------------------
Wavelength(nm)             Reflectance(%)
200.29               0
200.75       -69.79648
201.21       -62.06052
201.67       -46.98862
202.13       -33.26708
202.58       -20.57582
203.04       -7.444702
203.50        7.629946
203.96        23.77539
204.42        38.27641
204.88        50.22668
205.34        58.29749
205.80        61.87319
206.26        61.32498
206.72        55.61074
207.18        43.45675
207.64        31.12058
208.10        27.71468
208.55        32.17849
209.01        35.23066
209.47        32.03625
209.93         19.8695
210.39       -13.73923
210.85       -115.1333
211.31        -230.811
211.77       -78.27763
212.23        17.72576
212.69          49.592
213.14        56.05315
213.60         48.7735
214.06        28.25935
214.52       -8.211631
214.98       -33.06948
215.44       -18.34544
215.90        9.885442
216.36        32.10514
216.81        42.83981
217.27        45.35344
217.73        44.14157
218.19        40.40441
218.65        35.25136
219.11        29.49522
219.57        22.31199
220.02        15.05243
220.48        13.10207
220.94        17.31297
221.40        25.30149
221.86        34.01896
222.32         40.4185
222.77        44.26975
223.23        46.50763
223.69        47.20333
224.15        46.22504
224.61        43.90981
225.06        40.15485
225.52        36.72645
225.98        36.52909
226.44        39.41126
226.90        43.36931
227.36        46.57405
227.81        47.68055
228.27        46.81445
228.73        44.46679
229.19        41.05808
229.65        37.62098
230.10        34.83169
230.56        32.95656
231.02        31.70139
231.48        30.68208
231.93        29.76447
232.39        29.06244
232.85        29.17038
233.31        30.89425
233.77          34.009
234.22        38.06516
234.68        41.53703
235.14        42.54621
235.60        40.78563
236.05        36.45773
236.51        31.14833
236.97        28.61888
237.43        30.44454
237.88        35.86626
238.34        41.85352
238.80        44.90299
239.26         44.0085
239.71        38.66015
240.17        29.26184
240.63        24.28052
241.08         30.9358
241.54        42.73713
242.00         51.9509
242.46        55.55121
242.91        54.27544
243.37        47.50228
243.83         30.9497
244.28         6.26968
244.74       -2.509382
245.20        9.623753
245.66        23.77969
246.11        29.26891
246.57        27.24694
247.03         20.5697
247.48         8.70024
247.94       -1.489033
248.40       -1.286004
248.85        4.375979
249.31        13.61331
249.77        25.88684
250.22        38.45595
250.68        49.82798
251.14        57.73085
251.59        60.16451
252.05        57.55288
252.51         49.5363
252.96        36.74671
253.42        28.18247
253.88         29.5209
254.33        36.91706
254.79        43.74195
255.25        45.51539
255.70        43.41168
256.16        40.22165
256.62        38.10121
257.07        39.20466
257.53        42.76609
257.99        46.62437
258.44         49.3796
258.90        50.18778
259.35        49.14653
259.81        47.41427
260.27        45.30563
260.72        43.18039
261.18        41.52082
261.63        40.04564
262.09        39.03736
262.55        38.55574
263.00        38.44596
263.46        38.68534
263.91        38.97824
264.37        39.16431
264.83        39.12283
265.28        38.90118
265.74        38.55973
266.19        38.03783
266.65        37.41468
267.11        36.66979
267.56        35.89199
268.02         35.3149
268.47        34.94574
268.93        34.74932
269.38        34.60214
269.84        34.32151
270.30        33.84984
270.75        33.22577
271.21        32.52845
271.66        31.84468
272.12        31.22441
272.57        30.62024
273.03        30.01073
273.48        29.29065
273.94        28.51161
274.39        27.70271
274.85        27.00176
275.31        26.53053
275.76        26.27366
276.22        26.17833
276.67        26.11034
277.13        25.95929
277.58        25.65398
278.04        25.28028
278.49        24.81885
278.95        24.33741
279.40        23.82441
279.86        23.32395
280.31        22.85951
280.77        22.56947
281.22         22.4289
281.68        22.42801
282.13        22.46214
282.59        22.41481
283.04        22.25042
283.50        22.01256
283.95        21.75417
284.41        21.58742
284.86        21.52167
285.32        21.53283
285.77        21.54939
286.22        21.49718
286.68        21.37735
287.13        21.19233
287.59        21.02084
288.04        20.91145
288.50          20.902
288.95        20.94767
289.41        21.01766
289.86         21.0274
290.32          20.981
290.77        20.90501
291.22        20.85157
291.68        20.89298
292.13        21.03709
292.59         21.2649
293.04        21.54864
293.50        21.86751
293.95         22.1988
294.40        22.56049
294.86        22.93164
295.31        23.27293
295.77        23.58785
296.22        23.86752
296.68        24.17078
297.13        24.57149
297.58        25.08052
298.04        25.66441
298.49        26.23721
298.95        26.67925
299.40        26.96857
299.85         27.1451
300.31        27.30978
300.76        27.58563
301.21        28.00774
301.67        28.53171
302.12        29.05392
302.58        29.45246
303.03        29.69065
303.48        29.82507
303.94        29.94702
304.39        30.15148
304.84        30.46909
305.30         30.8533
305.75        31.22649
306.20        31.50871
306.66         31.6863
307.11        31.76527
307.57        31.78465
308.02        31.74319
308.47        31.67046
308.93        31.56604
309.38        31.43871
309.83        31.32179
310.29        31.23273
310.74        31.16129
311.19        31.09709
311.65        31.01434
312.10        30.89129
312.55        30.73958
313.00        30.59018
313.46        30.49333
313.91        30.44791
314.36        30.43387
314.82        30.38992
315.27        30.21691
315.72        29.90129
316.18        29.48861
316.63        29.04632
317.08        28.69937
317.53        28.48217
317.99        28.35839
318.44        28.28813
318.89        28.18899
319.35        28.03468
319.80        27.85041
320.25        27.65581
320.70        27.48639
321.16         27.3429
321.61        27.21042
322.06        27.06693
322.51        26.88591
322.97        26.65818
323.42        26.40832
323.87         26.1389
324.32        25.86044
324.78        25.57893
325.23         25.2931
325.68        25.02708
326.13         24.8243
326.59        24.67833
327.04        24.59872
327.49        24.51489
327.94        24.31649
328.39        23.97992
328.85        23.53084
329.30        23.06324
329.75        22.73988
330.20        22.61257
330.66         22.6329
331.11        22.72389
331.56        22.71041
332.01        22.54582
332.46        22.27875
332.92        21.99147
333.37        21.84801
333.82        21.88412
334.27         22.0347
334.72        22.22008
335.17        22.31675
335.63         22.2745
336.08        22.14608
336.53        21.93913
336.98         21.6771
337.43        21.38788
337.88        21.07257
338.34        20.78261
338.79        20.60373
339.24        20.55563
339.69        20.61896
340.14        20.73945
340.59        20.82033
341.05        20.82653
341.50        20.78118
341.95        20.69212
342.40        20.58637
342.85        20.47423
343.30        20.34065
343.75        20.19623
344.20         20.0617
344.66         19.9491
345.11        19.86465
345.56        19.79199
346.01        19.69677
346.46        19.57478
346.91        19.43115
347.36        19.31561
347.81        19.30228
348.26        19.39946
348.72         19.5861
349.17        19.77335
349.62        19.81828
350.07        19.69342
350.52        19.43548
350.97        19.16892
351.42        19.09542
351.87        19.24977
352.32        19.56044
352.77        19.87666
353.22        19.96934
353.67        19.79119
354.13        19.43402
354.58        19.00443
355.03        18.72287
355.48        18.65254
355.93        18.73075
356.38        18.86878
356.83        18.92814
357.28        18.87092
357.73        18.74653
358.18        18.61053
358.63        18.54401
359.08        18.56312
359.53        18.62676
359.98        18.69111
360.43        18.69705
360.88        18.62633
361.33        18.49566
361.78        18.31731
362.23        18.14791
362.68        18.01115
363.13         17.8301
363.58        17.58742
364.03        17.63415
364.48        17.35999
364.93        17.26133
365.38        17.17326
365.83        17.13606
366.28        17.14269
366.73        17.18294
367.18        17.22247
367.63        17.19205
368.08        17.07849
368.53        16.90254
368.98          16.698
369.43         16.5208
369.88        16.39279
370.33        16.30331
370.78        16.24257
371.23        16.19464
371.68        16.14748
372.13        16.09721
372.58        16.04986
373.03        16.01135
373.48        15.98208
373.93        15.96996
374.38        15.93316
374.83        15.80749
375.28         15.5937
375.72        15.30389
376.17         15.0629
376.62        15.02752
377.07        15.21272
377.52        15.54848
377.97        15.89152
378.42        16.01808
378.87        15.87952
379.32        15.55812
379.77        15.15409
380.22        14.81947
380.67        14.60371
381.11        14.46055
381.56        14.38099
382.01        14.34945
382.46        14.35023
382.91        14.39606
383.36         14.4431
383.81        14.41504
384.26        14.29967
384.71         14.1137
385.15        13.90658
385.60        13.79161
386.05        13.78399
386.50        13.85702
386.95        13.96226
387.40        14.02189
387.85        14.01757
388.29        13.96555
388.74        13.91886
389.19        13.92124
389.64        13.97584
390.09        14.05099
390.54        14.11502
390.98        14.11921
391.43        14.05787
391.88        13.95722
392.33        13.81951
392.78        13.66848
393.23        13.52411
393.67        13.32487
394.12        13.12667
394.57        13.15737
395.02        13.18584
395.47        13.17321
395.91         13.0629
396.36         13.0216
396.81        13.05256
397.26        13.05729
397.71        13.02497
398.15        12.99027
398.60        12.96754
399.05        12.89818
399.50        12.81206
399.95        12.83362
400.39        12.92629
400.84        12.89321
401.29        12.74347
401.74        12.61993
402.18        12.56252
402.63        12.58674
403.08        12.66487
403.53        12.67966
403.97         12.6202
404.42        12.57107
404.87        12.53084
405.32        12.47159
405.76         12.3952
406.21        12.27815
406.66        12.15796
407.11         12.1509
407.55        12.23174
408.00        12.25985
408.45        12.20644
408.90        12.06401
409.34        11.88557
409.79        11.84327
410.24        11.92296
410.68         11.9484
411.13        11.91187
411.58        11.92638
412.03        12.00091
412.47        12.08639
412.92        12.16537
413.37        12.25362
413.81        12.31433
414.26        12.30264
414.71        12.21209
415.15        12.05517
415.60        11.88175
416.05        11.78534
416.49        11.79261
416.94        11.87467
417.39        11.97913
417.83        12.02256
418.28         11.9784
418.73        11.86972
419.17         11.7353
419.62        11.64034
420.07        11.60974
420.51        11.62951
420.96        11.66577
421.41        11.68263
421.85        11.66583
422.30        11.57252
422.74        11.46403
423.19        11.57539
423.64        11.85935
424.08        11.99617
424.53         11.9105
424.98        11.83156
425.42        11.76556
425.87        11.49837
426.31         11.1416
426.76        11.10951
427.21        11.35726
427.65         11.4585
428.10        11.38008
428.54        11.36594
428.99        11.40531
429.44        11.45526
429.88        11.46769
430.33        11.23828
430.77        10.90222
431.22        10.91736
431.66        11.24803
432.11        11.48249
432.56        11.54198
433.00        11.54269
433.45        11.40541
433.89        11.10921
434.34        10.89256
434.78        10.37417
435.23        10.85575
435.67        11.26323
436.12        11.43443
436.57        11.49829
437.01         11.3788
437.46         11.3047
437.90        11.34247
438.35        11.42313
438.79         11.1827
439.24        11.07629
439.68        11.01512
440.13        10.97242
440.57        10.94464
441.02        11.02347
441.46         11.1749
441.91        11.13219
442.35        10.97014
442.80        11.15503
443.24        11.58647
443.69        11.61501
444.13        11.25683
444.58        11.07912
445.02         11.0904
445.47        11.00138
445.91        10.83118
446.36        10.76493
446.80        10.80828
447.24        10.90493
447.69        11.02385
448.13        11.14778
448.58        11.24307
449.02         11.2628
449.47        11.22305
449.91         11.2044
450.36        11.21732
450.80        11.21279
451.25        11.19437
451.69        11.18885
452.13        11.19267
452.58        11.19245
453.02        11.17473
453.47        11.12244
453.91        11.03402
454.36        10.93708
454.80        10.83762
455.24        10.73507
455.69        10.66271
456.13        10.62756
456.58        10.63879
457.02         10.7481
457.46         10.8852
457.91        10.86024
458.35        10.73463
458.79         10.6675
459.24        10.68224
459.68        10.67501
460.13        10.65329
460.57        10.61138
461.01         10.5992
461.46         10.6242
461.90        10.63119
462.34        10.64739
462.79        10.83188
463.23        10.89342
463.68        10.87744
464.12        10.83869
464.56        10.79172
465.01        10.77029
465.45        10.74361
465.89        10.66519
466.34        10.57572
466.78        10.52269
467.22        10.49597
467.67        10.69734
468.11        10.64184
468.55        10.60628
468.99        10.48282
469.44        10.43079
469.88        10.45839
470.32        10.47669
470.77        10.48701
471.21        10.52402
471.65         10.5865
472.10        10.66489
472.54        10.73404
472.98        10.76974
473.42        10.77053
473.87        10.71508
474.31        10.63764
474.75        10.69296
475.20          10.852
475.64        10.90071
476.08        10.83272
476.52        10.84703
476.97        10.95473
477.41        10.93892
477.85        10.91167
478.29        11.03287
478.74        11.02493
479.18        11.00954
479.62        11.24977
480.06        11.30974
480.50        11.30265
480.95        11.23503
481.39        11.13034
481.83        11.26788
482.27        11.32118
482.72        11.36445
483.16        11.61731
483.60        11.71089
484.04          11.714
484.48        11.71149
484.93         11.8487
485.37        11.81092
485.81        12.02201
486.25          12.582
486.69        12.00324
487.14         11.6738
487.58        12.78406
488.02        12.66844
488.46        12.52136
488.90         12.7656
489.34        12.39674
489.79        12.26687
490.23        12.50875
490.67        12.76261
491.11        13.06937
491.55        13.14014
491.99        13.02852
492.43        13.08256
492.88        13.31352
493.32        13.47439
493.76        13.55188
494.20        13.68532
494.64        13.88721
495.08        14.07574
495.52        14.23569
495.96        14.46254
496.41        14.74813
496.85         14.7008
497.29        14.45098
497.73        14.58402
498.17        15.04651
498.61        15.32758
499.05        15.33817
499.49        15.32329
499.93        15.32754
500.37        15.31143
500.82        15.30907
501.26        15.40841
501.70        15.62959
502.14        15.62547
502.58        15.91992
503.02        16.04784
503.46        16.09499
503.90        16.10004
504.34        16.08051
504.78        16.11696
505.22        16.21628
505.66        16.32401
506.10        16.43107
506.54         16.5689
506.98        16.73346
507.42        16.83714
507.86        16.99026
508.30        17.05287
508.74        17.06047
509.18        17.01686
509.62        16.96338
510.06        16.96609
510.50        17.03922
510.94          17.167
511.38        17.30624
511.82        17.38647
512.26        17.39054
512.70        17.34021
513.14         17.2768
513.58        17.25983
514.02        17.30451
514.46        17.40322
514.90        17.52162
515.34        17.54347
515.78        17.55578
516.22        17.49717
516.66        17.43442
517.10        17.42084
517.54        17.47055
517.98        17.56428
518.42        17.66621
518.86        17.72317
519.30        17.71991
519.74        17.67093
520.18        17.60851
520.62        17.58197
521.06        17.60328
521.50        17.65943
521.93         17.7162
522.37        17.71122
522.81         17.6359
523.25        17.50824
523.69        17.37698
524.13        17.31744
524.57        17.34222
525.01        17.42461
525.45        17.50782
525.89         17.5023
526.32        17.38689
526.76         17.2015
527.20        16.99583
527.64        16.85151
528.08        16.79103
528.52        16.78452
528.96        16.80813
529.40        16.82478
529.83        16.81866
530.27        16.80484
530.71        16.77306
531.15        16.70475
531.59        16.60328
532.03        16.47475
532.46        16.35016
532.90        16.29311
533.34        16.31183
533.78        16.38717
534.22        16.48441
534.66        16.54983
535.09        16.56537
535.53        16.54578
535.97        16.50488
536.41        16.46718
536.85        16.44254
537.28        16.42775
537.72        16.41397
538.16        16.38582
538.60        16.34557
539.04        16.30623
539.47        16.28916
539.91        16.33399
540.35        16.43964
540.79        16.59407
541.22        16.75946
541.66        16.87622
542.10         16.9295
542.54         16.9381
542.97         16.9317
543.41        16.96787
543.85        17.05876
544.29        17.18832
544.72        17.33474
545.16        17.47834
545.60         17.6055
546.04         17.7251
546.47        17.84551
546.91        17.97354
547.35        18.10895
547.79         18.2529
548.22        18.39364
548.66        18.51269
549.10        18.62042
549.53          18.791
549.97        19.01099
550.41        19.19257
550.84        19.32728
551.28        19.46292
551.72        19.61044
552.15        19.76389
552.59        19.92937
553.03        20.09891
553.46        20.25958
553.90        20.40891
554.34        20.54185
554.77        20.66806
555.21         20.7849
555.65        20.88917
556.08        20.96106
556.52        21.04921
556.96        21.14752
557.39        21.27834
557.83         21.4264
558.27        21.49909
558.70        21.51016
559.14        21.56139
559.57        21.65306
560.01        21.75512
560.45        21.84766
560.88        21.88977
561.32        21.92264
561.75        22.00822
562.19        22.13999
562.63        22.29571
563.06        22.41777
563.50         22.3472
563.93        22.14947
564.37        22.12497
564.80        22.28886
565.24         22.4975
565.68         22.7022
566.11         22.8765
566.55        23.00637
566.98        23.11702
567.42        23.21702
567.85        23.25532
568.29        23.28231
568.72        23.35864
569.16        23.49013
569.60        23.67076
570.03        23.91435
570.47         23.9802
570.90        24.13823
571.34         24.5612
571.77        24.60518
572.21        24.57688
572.64         24.8308
573.08        24.76629
573.51        25.10235
573.95        25.30296
574.38         25.4232
574.82        25.49833
575.25        25.30534
575.69        25.23153
576.12        25.09785
576.56        25.57806
576.99          25.617
577.42        25.74915
577.86        25.78745
578.29        25.74731
578.73        25.70963
579.16          25.643
579.60        25.50513
580.03        25.41573
580.47        25.41679
580.90         25.2427
581.33        25.23843
581.77        25.46888
582.20        24.98408
582.64        24.75637
583.07        24.60251
583.51        24.50662
583.94        24.56107
584.37        24.53617
584.81        24.40585
585.24        24.26378
585.68        24.19399
586.11        23.95571
586.54        23.89482
586.98         23.8977
587.41        23.94686
587.85        23.61228
588.28        23.55517
588.71        23.51105
589.15           23.68
589.58        23.32821
590.01        23.61846
590.45        23.63699
590.88        23.16266
591.31        23.13707
591.75        23.36591
592.18        23.46988
592.61        23.44626
593.05        23.53058
593.48        23.72546
593.91        23.52978
594.35        23.56168
594.78        23.76852
595.21        23.88979
595.65        24.00939
596.08        24.00432
596.51        24.25484
596.94        24.35714
597.38        24.64401
597.81        25.02933
598.24        24.93045
598.68        25.39549
599.11        25.75458
599.54        25.87546
599.97        26.15462
600.41        26.62898
600.84        26.97767
601.27         27.2343
601.70        27.42852
602.14        27.64745
602.57        28.15794
603.00        28.63286
603.43        29.09101
603.87        29.59015
604.30        29.80065
604.73        30.16246
605.16        30.88371
605.60        31.19306
606.03        31.76521
606.46        32.22613
606.89        32.67087
607.32        32.68818
607.76        33.30307
608.19        33.46395
608.62        33.82169
609.05        34.15276
609.48        34.62881
609.92         35.1291
610.35        35.71135
610.78        35.68464
611.21        35.70949
611.64        36.32495
612.07        36.56057
612.50        36.64024
612.94        36.87367
613.37        37.32455
613.80        37.55448
614.23        38.03961
614.66        38.42334
615.09        38.79706
615.52         39.1248
615.96        39.45455
616.39        39.45028
616.82        39.81066
617.25        40.18259
617.68        40.39606
618.11        40.47765
618.54        40.43074
618.97        40.68462
619.40        41.16335
619.84        41.63162
620.27          41.596
620.70        41.66382
621.13        41.72008
621.56         41.9259
621.99        42.21048
622.42        42.12714
622.85        42.06968
623.28        42.39816
623.71        42.24107
624.14        42.30382
624.57        42.47555
625.00         42.6665
625.43        42.44386
625.86        42.42062
626.29        42.47936
626.72         42.2268
627.15        42.06645
627.58        41.85285
628.01        41.78735
628.44        41.29317
628.87        40.99304
629.30         41.1711
629.73        40.89032
630.16        40.34226
630.59        40.27805
631.02        39.96998
631.45        39.69727
631.88        39.36475
632.31        38.99459
632.74        38.41425
633.17        38.02842
633.60        37.57203
634.03        37.16768
634.46        36.79927
634.89        36.44209
635.32        36.03948
635.75        35.57742
636.18        35.09791
636.61        34.61935
637.04        34.12915
637.47        33.65674
637.89        33.28619
638.32        32.98291
638.75        32.64205
639.18        32.25779
639.61        31.89525
640.04        31.56021
640.47        31.24155
640.90        30.94489
641.33        30.65976
641.76        30.39624
642.18        30.24756
642.61        30.09582
643.04        30.02554
643.47        29.98183
643.90        29.93296
644.33        29.87015
644.76        29.80826
645.18        29.75861
645.61         29.7352
646.04         29.7469
646.47         29.7862
646.90        29.87507
647.33         30.0445
647.75        30.30179
648.18         30.6534
648.61        31.04305
649.04        31.38982
649.47        31.68851
649.89        31.90791
650.32        32.12872
650.75        32.64218
651.18        33.38066
651.61        33.90689
652.03        34.17493
652.46        34.51142
652.89        35.02325
653.32        35.43396
653.74        35.87814
654.17        36.87813
654.60        36.80581
655.03        37.23557
655.46        38.09492
655.88        39.10751
656.31        39.77011
656.74        41.00613
657.16        41.11189
657.59        41.39295
658.02        41.17601
658.45        41.57746
658.87        42.21034
659.30        42.69151
659.73         42.2715
660.15        42.52367
660.58        42.79655
661.01        43.35646
661.44        43.96099
661.86        44.42436
662.29        44.70828
662.72        44.86618
663.14        44.99505
663.57         45.2845
664.00        45.70742
664.42        45.96664
664.85        46.06637
665.27        46.22768
665.70        46.46094
666.13        46.66382
666.55        46.83908
666.98        47.02135
667.41        47.22034
667.83        47.43736
668.26        47.66286
668.69        47.89948
669.11        48.12508
669.54        48.29962
669.96        48.42489
670.39        48.50787
670.82        48.59074
671.24        48.74205
671.67        48.97446
672.09        49.24262
672.52        49.51454
672.94        49.74043
673.37        49.90261
673.80        49.97092
674.22        49.98368
674.65        50.01607
675.07        50.10181
675.50        50.19069
675.92        50.29491
676.35        50.43701
676.77        50.61479
677.20        50.83728
677.62        51.08176
678.05        51.24844
678.47        51.31385
678.90        51.48478
679.32        51.47329
679.75        51.60028
680.17          51.783
680.60        52.01651
681.02        52.24734
681.45        52.38976
681.87        52.44271
682.30        52.38892
682.72        52.31322
683.15        52.43899
683.57         52.7527
684.00        52.96034
684.42        53.05015
684.85        53.20715
685.27        53.41191
685.70        53.60136
686.12        53.74077
686.54        53.72863
686.97        53.61721
687.39        53.69789
687.82        53.96622
688.24        54.04094
688.66        54.17487
689.09        54.26825
689.51        54.47689
689.94         54.5813
690.36        54.61479
690.78        54.55329
691.21        54.47369
691.63        54.62066
692.06        54.95543
692.48        55.15218
692.90        55.19231
693.33        55.28882
693.75        55.43964
694.17        55.50597
694.60        55.50318
695.02        55.55482
695.44        55.66911
695.87        55.81497
696.29        55.98105
696.71        56.14101
697.14        56.27778
697.56        56.42881
697.98        56.57259
698.41        56.70974
698.83        56.82572
699.25        56.93365
699.68        57.02829
700.10         57.1501
700.52         57.2932
700.94        57.45122
701.37        57.59033
701.79        57.68555
702.21        57.71663
702.64        57.70779
703.06        57.68945
703.48        57.72889
703.90        57.84638
704.33        58.01153
704.75        58.19969
705.17        58.36197
705.59        58.47174
706.01        58.49705
706.44        58.47115
706.86        58.56553
707.28        58.62758
707.70        58.79458
708.12        58.97931
708.55        59.01592
708.97        58.93726
709.39        59.01191
709.81        59.23189
710.23        59.35807
710.66        59.37554
711.08        59.43824
711.50        59.53761
711.92        59.61406
712.34        59.67081
712.76         59.7258
713.19        59.77966
713.61        59.87481
714.03        59.99615
714.45        60.12604
714.87        60.25878
715.29        60.38953
715.71        60.51734
716.13        60.64989
716.56        60.75368
716.98        60.84015
717.40        60.89154
717.82        60.87505
718.24        60.86554
718.66        60.94407
719.08        61.42988
719.50        61.47972
719.92        61.26099
720.34        61.26961
720.76         61.5285
721.19        61.73647
721.61        61.84308
722.03        61.88409
722.45        61.84637
722.87        61.72568
723.29        61.58461
723.71        61.52459
724.13        61.57547
724.55        61.71735
724.97        61.90538
725.39        62.05926
725.81        62.15205
726.23        62.20169
726.65         62.2378
727.07        62.30825
727.49        62.42184
727.91        62.55804
728.33        62.67505
728.75        62.70787
729.17         62.6457
729.59        62.51734
730.01         62.3751
730.43         62.3018
730.85        62.31894
731.27         62.3968
731.69        62.51122
732.10        62.63075
732.52        62.73197
732.94        62.84765
733.36        62.96335
733.78        63.02699
734.20        63.04014
734.62        63.17303
735.04        62.94796
735.46        63.24326
735.88        63.77142
736.30        63.63564
736.72        62.98021
737.13        63.02471
737.55        63.67666
737.97        63.85504
738.39        63.53085
738.81        63.29724
739.23        63.26261
739.65        63.46028
740.06        63.77333
740.48        63.91885
740.90        63.84234
741.32        63.81124
741.74        63.80476
742.16        63.88932
742.57        64.04767
742.99        64.35785
743.41        64.69739
743.83         64.6421
744.25         64.2636
744.67         64.1039
745.08        64.21687
745.50        64.22279
745.92        64.13692
746.34          64.199
746.75         64.3847
747.17        64.49583
747.59        64.50971
748.01        64.55003
748.42        64.60419
748.84        64.51476
749.26        64.36279
749.68        64.41991
750.09         64.6608
750.51        64.89796
750.93        65.04733
751.35        65.03736
751.76        64.91009
752.18        64.84633
752.60        64.86695
753.01        64.86948
753.43        64.83397
753.85        64.78746
754.27        64.72672
754.68        64.82642
755.10          64.785
755.52        64.90858
755.93        65.10323
756.35        65.35116
756.77        65.56512
757.18        65.75967
757.60        65.94827
758.02         65.8472
758.43        65.45899
758.85        66.12154
759.26        65.65044
759.68        65.76205
760.10        65.95663
760.51        65.18358
760.93        65.53528
761.34        65.81499
761.76        66.11436
762.18        66.06039
762.59        65.66273
763.01        65.69245
763.42        66.16732
763.84        66.36739
764.26        66.28493
764.67        66.26169
765.09        66.34977
765.50        66.46146
765.92        66.56351
766.33          66.493
766.75        66.21421
767.16        66.10056
767.58        65.72974
768.00        66.12139
768.41        66.94112
768.83        67.25398
769.24        66.98679
769.66        66.66148
770.07        66.40057
770.49        66.32753
770.90        66.44546
771.32        66.46664
771.73        66.40611
772.15        66.47491
772.56          66.674
772.97         66.9235
773.39          67.121
773.80        67.08895
774.22        66.85685
774.63        66.81882
775.05        66.96694
775.46        67.03963
775.88        67.00491
776.29        67.08443
776.70        67.24429
777.12        67.32784
777.53          67.334
777.95        67.29362
778.36        67.23689
778.77        67.19215
779.19        67.18116
779.60        67.20618
780.02        67.25716
780.43        67.37727
780.84        67.54813
781.26        67.66133
781.67        67.78949
782.09        68.10358
782.50        68.35194
782.91        68.77612
783.33        67.70926
783.74        67.50075
784.15        67.68599
784.57        67.87967
784.98        68.02255
785.39        67.93853
785.81        68.06477
786.22        68.15924
786.63        68.31439
787.04        68.43848
787.46        68.54977
787.87        68.56936
788.28        68.45584
788.70        68.80772
789.11        68.54896
789.52        68.50756
789.93        68.40853
790.35        68.53165
790.76        68.81222
791.17        68.72782
791.58        68.40619
792.00        68.46706
792.41         68.8884
792.82        69.28912
793.23        69.53424
793.65        69.28519
794.06        68.75896
794.47        68.97917
794.88        69.80183
795.29         69.9207
795.71        69.73168
796.12         69.4905
796.53         69.4175
796.94        69.45406
797.35         69.5843
797.76        69.62094
798.18        69.57124
798.59        69.63306
799.00        69.80885
799.41         69.9594
799.82         70.0358
800.23        70.04039
800.64        69.96291
801.06         69.7822
801.47        69.58345
801.88        69.43761
802.29        69.37481
802.70        69.38196
803.11        69.43774
803.52        69.49845
803.93        69.55247
804.34        69.61198
804.75        69.68626
805.17        69.80597
805.58        70.00458
805.99        70.15707
806.40        70.24747
806.81        70.47305
807.22        70.70758
807.63        70.47353
808.04        69.91867
808.45        69.73799
808.86        70.01781
809.27        70.41011
809.68        70.75237
810.09        70.90307
810.50        70.78607
810.91        70.43873
811.32        70.03031
811.73        69.80332
812.14        69.82292
812.55        70.14137
812.96        70.58446
813.37        70.55411
813.78        70.10824
814.19          70.007
814.60        70.26511
815.01        70.32142
815.42        70.18076
815.83        70.19398
816.24        70.35089
816.65        70.44434
817.05        70.45355
817.46         70.3932
817.87        70.35555
818.28        70.43102
818.69        70.64663
819.10        70.98329
819.51        71.31647
819.92        71.49573
820.33        71.48632
820.74        71.12896
821.14        70.64218
821.55        70.88564
821.96         71.6924
822.37        71.87057
822.78        71.38271
823.19        71.21429
823.60        71.40714
824.00        71.35813
824.41        71.04506
824.82        70.85201
825.23        70.81287
825.64        70.82423
826.04         70.8936
826.45        70.99706
826.86        71.12343
827.27        71.28836
827.68        71.44864
828.08        71.54935
828.49        71.51317
828.90        71.39663
829.31        71.25642
829.72        71.19447
830.12         71.2617
830.53        71.38422
830.94        71.54258
831.35        71.66707
831.75        71.75206
832.16        71.77489
832.57         71.7572
832.97        71.70158
833.38        71.61438
833.79        71.50655
834.20         71.4096
834.60        71.36696
835.01        71.40016
835.42        71.49189
835.82        71.64471
836.23        71.78055
836.64        71.89894
837.04        72.02807
837.45        72.11534
837.86        72.17509
838.26        72.22218
838.67         72.2423
839.08        72.25755
839.48        72.29099
839.89        72.34905
840.29        72.41916
840.70        72.51488
841.11        72.65828
841.51        72.86254
841.92        73.08636
842.33        73.27645
842.73        73.33994
843.14         73.2116
843.54        72.94612
843.95         72.6453
844.35        72.49474
844.76        72.53115
845.17        72.71385
845.57        72.93815
845.98        72.98761
846.38        72.83437
846.79        72.51845
847.19        72.17858
847.60        71.99069
848.00        72.02779
848.41        72.20184
848.81        72.43626
849.22        72.53329
849.62        72.47737
850.03        72.30209
850.43        72.11006
850.84        71.98067
851.24        71.98923
851.65        72.04443
852.05        72.16968
852.46        72.29472
852.86        72.38245
853.27        72.47354
853.67        72.47373
854.07        72.41202
854.48        72.25282
854.88        72.03247
855.29        71.71541
855.69        71.45155
856.10        71.20616
856.50        71.04082
856.90         70.9239
857.31        70.82533
857.71        70.77935
858.12        70.73848
858.52        70.74445
858.92        70.73776
859.33        70.68981
859.73        70.64302
860.13        70.56574
860.54        70.43614
860.94        70.29115
861.34        70.10468
861.75        69.90311
862.15         69.7896
862.55        69.75487
862.96         69.8025
863.36        69.85114
863.76        69.75053
864.17        69.47397
864.57        69.08241
864.97        68.73209
865.38        68.65492
865.78        68.93869
866.18        69.48495
866.58        70.09108
866.99        70.40221
867.39        70.34403
867.79        70.00541
868.19        69.56192
868.60        69.24394
869.00        69.10912
869.40        69.10275
869.80         69.2002
870.21        69.36141
870.61        69.61135
871.01        69.90349
871.41        70.14702
871.81        70.20439
872.22         70.0313
872.62        69.67758
873.02        69.26096
873.42         69.0125
873.82        69.01443
874.22        69.21774
874.63        69.51124
875.03        69.70227
875.43        69.74937
875.83        69.68843
876.23        69.61502
876.63        69.68834
877.03         69.9287
877.44        70.26225
877.84        70.53362
878.24        70.46817
878.64        70.03322
879.04         69.3638
879.44        68.67505
879.84         68.2536
880.24        68.16401
880.64        68.32343
881.04        68.63744
881.44        68.93676
881.84        69.14554
882.24         69.2954
882.65        69.37151
883.05        69.45464
883.45        69.51617
883.85         69.5284
884.25        69.47516
884.65        69.34577
885.05        69.14958
885.45        68.90813
885.85        68.67515
886.25        68.53744
886.65        68.52393
887.05        68.61669
887.45        68.75837
887.85        68.85716
888.25        68.87871
888.65        68.83044
889.04        68.73952
889.44        68.70217
889.84        68.71334
890.24        68.74249
890.64        68.72583
891.04        68.56606
891.44        68.26564
891.84        67.89439
892.24        67.53379
892.64        67.30508
893.04        67.24326
893.44        67.29559
893.83        67.49187
894.23        67.80787
894.63        68.23061
895.03        68.75158
895.43        69.21096
895.83        69.35121
896.23        69.14284
896.63        68.67513
897.02         68.1784
897.42        68.03948
897.82         68.3231
898.22        68.92226
898.62        69.64323
899.01        70.16187
899.41        70.35129
899.81        70.30825
900.21        70.14962
900.61         70.0748
901.00        70.13114
901.40        70.25514
901.80        70.35923
902.20        70.33233
902.59         70.1569
902.99        69.87659
903.39        69.56329
903.79         69.3057
904.18         69.1474
904.58        69.09109
904.98        69.10696
905.38        69.15433
905.77        69.20918
906.17        69.27277
906.57        69.39119
906.96        69.66088
907.36        70.05627
907.76        70.55379
908.15        70.99515
908.55        71.05428
908.95        70.71109
909.34        70.04842
909.74        69.36259
910.14        69.06419
910.53        69.24724
910.93        69.75877
911.33        70.38917
911.72        70.76648
912.12        70.76687
912.52        70.56408
912.91        70.22658
913.31        69.86799
913.70        69.54139
914.10         69.1717
914.49        68.93658
914.89        69.10673
915.29         69.7235
915.68         70.6931
916.08        71.65635
916.47        72.03541
916.87        71.73191
917.26        70.89964
917.66        69.90802
918.05        69.31912
918.45        69.27357
918.84        69.62304
919.24        70.11541
919.64        70.41174
920.03        70.41884
920.42        70.26588
920.82        70.05429
921.21        69.91096
921.61        69.87897
922.00        69.91098
922.40        70.03104
922.79         70.3716
923.19        70.87785
923.58        71.51628
923.98           72.09
924.37        72.36328
924.77         72.2713
925.16        71.87126
925.55        71.28813
925.95        70.75048
926.34        70.36097
926.74        70.07533
927.13        69.91543
927.52        69.79726
927.92        69.71979
928.31        69.70891
928.70        69.79147
929.10        69.98184
929.49        70.26958
929.89        70.59652
930.28        70.95158
930.67         71.2141
931.07        71.32524
931.46        71.31694
931.85        71.20396
932.24        71.05521
932.64        70.89973
933.03        70.74156
933.42        70.57282
933.82        70.37021
934.21        70.14915
934.60        69.94084
934.99        69.80977
935.39        69.83341
935.78        70.04683
936.17        70.39203
936.56        70.79237
936.96        71.10133
937.35        71.30842
937.74        71.42419
938.13        71.43126
938.53        71.31549
938.92        71.10199
939.31        70.77785
939.70        70.47259
940.09        70.41603
940.49        70.62101
940.88        71.04746
941.27        71.48125
941.66        71.59174
942.05        71.31741
942.44         70.7785
942.84        70.16148
943.23        69.71545
943.62        69.55679
944.01        69.60009
944.40        69.79798
944.79        70.06142
945.18        70.31918
945.57        70.57833
945.97        70.74209
946.36        70.73852
946.75        70.52767
947.14        70.13384
947.53        69.63042
947.92        69.16918
948.31         68.8254
948.70        68.58805
949.09        68.46225
949.48        68.43603
949.87        68.49264
950.26        68.63464
950.65        68.82606
951.04        69.00549
951.43        69.14374
951.82        69.22977
952.21        69.25748
952.60        69.23396
952.99        69.16624
953.38        69.06008
953.77        68.91364
954.16        68.72617
954.55        68.49882
954.94        68.22429
955.33        67.95634
955.72        67.77694
956.11        67.70545
956.50        67.74945
956.89        67.79098
957.28        67.61336
957.66         67.2163
958.05        66.66277
958.44        66.19463
958.83        66.19267
959.22        66.70605
959.61        67.55108
960.00        68.48164
960.39        69.12206
960.78        69.33704
961.16        69.25468
961.55        68.82587
961.94        68.10284
962.33        67.19238
962.72        66.16151
963.11        65.22542
963.49        64.67957
963.88        64.58637
964.27        64.88779
964.66        65.47645
965.04        66.13914
965.43        66.67074
965.82        67.11424
966.21        67.43325
966.60        67.61922
966.98        67.67908
967.37        67.54855
967.76        67.26721
968.15        66.91414
968.53        66.58388
968.92         66.3608
969.31         66.2458
969.69        66.18939
970.08        66.19516
970.47        66.26655
970.86         66.6441
971.24        67.72395
971.63        69.37794
972.02         71.3502
972.40         73.1322
972.79        73.92129
973.17        73.69906
973.56        72.64409
973.95        71.18659
974.33        70.08068
974.72        69.60725
975.11        69.56451
975.49        69.77193
975.88        69.92838
976.26        69.92188
976.65        69.89503
977.04        69.78429
977.42        69.43787
977.81        68.79657
978.19        67.80033
978.58        66.86878
978.96        66.69543
979.35        67.40765
979.74        68.88902
980.12        70.48257
980.51        70.88753
980.89         69.9391
981.28        67.86206
981.66        65.60766
982.05        64.96593
982.43        66.36993
982.82        69.18972
983.20        72.28457
983.59         73.7538
983.97        73.24644
984.35        71.29121
984.74        68.72789
985.12        67.04539
985.51        66.76522
985.89        67.43565
986.28        68.58555
986.66        69.64825
987.04        70.36208
987.43        70.87137
987.81        71.23737
988.20        71.41262
988.58        71.44332
988.96        71.31475
989.35        70.82506
989.73        69.79394
990.12        68.15755
990.50        65.84873
990.88        63.52945
991.27        62.69846
991.65        63.77224
992.03        66.28903
992.42        68.72462
992.80        69.45439
993.18        68.07629
993.56        64.85524
993.95        60.82313
994.33        58.64674
994.71         59.6057
995.10        62.46187
995.48        65.66109
995.86        67.52094
996.24        67.88897
996.63        67.26082
997.01        66.23073
997.39         65.9356
997.77        66.81763
998.15        68.38646
998.54        69.93427
998.92        70.61023
999.30         70.2532
999.68        69.20471
1000.06        67.96062
1000.45        67.35331
1000.83        67.71428
1001.21         68.6462
1001.59        69.80774
1001.97        70.72497
1002.35        71.25676
1002.73        71.64887
1003.12        71.69456
1003.50        70.87029
1003.88        69.30018
1004.26        67.20291
1004.64        65.45638
1005.02        65.15565
1005.40        66.36111
1005.78         68.7888
1006.16        71.48725
1006.54         72.6845
1006.92        71.84854
1007.30        69.46123
1007.69        66.59552
1008.07        64.98814
1008.45        65.21797
1008.83        66.71187
1009.21        68.57757
1009.59        69.53178
1009.97         69.1943
1010.35        67.85405
1010.73        65.98566
1011.11        64.79827
1011.49        64.91646
1011.86        66.03591
1012.24         67.3186
1012.62        67.88932
1013.00        67.58102
1013.38        66.76331
1013.76        65.85415
1014.14        65.51034
1014.52         65.9472
1014.90        66.91527
1015.28        68.24895
1015.66        69.58523
1016.04        70.69278
1016.41        71.78792
1016.79        72.48836
1017.17        72.63767
1017.55        72.27882
1017.93        71.42976
1018.31        70.66454
1018.69        70.91515
1019.06        72.43902
1019.44         75.1424
1019.82        78.14848
1020.20        79.54137
1020.58        78.67649
1020.95        76.07884
1021.33        73.15254
1021.71         71.6639
1022.09        71.84004
1022.46        73.11575
1022.84        74.50305
1023.22        74.05105
1023.60        71.09612
1023.97        65.86672
1024.35        59.65412
1024.73        55.27169
