SpectraSmart Spectrum 2.9.0.0
--------- Device Information -----------
Spectrum Name :  反射率_0
Saving Time :  2024/04/27 22:41:46
Spectro-Module Model Name : SE2030-DUVN
Spectro-Module Serial Number : OS361AC55029948
Wavelength Start : 200
Wavelength End : 1025
Wavelength Unit : Wavelength(nm)
Spectrum Unit : Reflectance(%)
-----------Spectrum Setting ------------
Integration Time : 20ms
Average : 10
Boxcar : 0
Background removal :  enabled
linearity correction :  enabled
SC :  disabled
Intensity correction :  disabled
DWT denoise :  enabled
savitzky-golay :  disabled
FFT :  disabled
Running average :  disabled
Kalman :  disabled
High pass :  disabled
---------------BEGIN--------------------
Wavelength(nm)             Reflectance(%)
200.29               0
200.75        88.18253
201.21        111.3097
201.67        119.7527
202.13        115.4576
202.58        103.2911
203.04        86.57296
203.50        70.39251
203.96         63.1787
204.42        65.42284
204.88        72.58475
205.34         80.1256
205.80        84.37161
206.26        84.78389
206.72         81.3911
207.18        74.35719
207.64        69.41404
208.10        71.42725
208.55        77.51678
209.01        80.60677
209.47        77.51849
209.93        66.29232
210.39        35.40696
210.85       -54.54596
211.31       -138.6595
211.77        10.59055
212.23        93.01234
212.69        118.8912
213.14        124.6203
213.60        120.2795
214.06        106.4572
214.52        77.99694
214.98        46.70237
215.44        38.75589
215.90        45.58933
216.36        56.10481
216.81        65.44775
217.27        73.55526
217.73        82.62775
218.19        90.68192
218.65        93.16474
219.11        88.81475
219.57         78.1403
220.02        63.66118
220.48        54.47015
220.94          54.389
221.40        60.18991
221.86        68.78609
222.32        76.96685
222.77        83.49385
223.23        88.87333
223.69         92.2255
224.15        92.45637
224.61        89.76514
225.06        84.40849
225.52        77.77589
225.98        72.96062
226.44        71.24587
226.90        71.47854
227.36         72.3917
227.81        72.79137
228.27        72.63278
228.73        72.21812
229.19        71.65899
229.65        71.14368
230.10        70.71123
230.56        70.46743
231.02        70.29967
231.48        70.25182
231.93        70.22839
232.39        70.32798
232.85        70.55513
233.31        71.00507
233.77        71.63643
234.22        72.44012
234.68        73.10212
235.14        73.22374
235.60        72.76421
236.05        71.77016
236.51         70.6997
236.97        70.62955
237.43        71.91382
237.88        74.35181
238.34        76.79633
238.80        78.37431
239.26        78.89996
239.71        78.49591
240.17        76.98817
240.63        75.92889
241.08        76.82149
241.54        78.45769
242.00        79.73479
242.46        80.06661
242.91        79.50904
243.37        77.56448
243.83        73.27569
244.28        67.67464
244.74        66.62551
245.20        70.73375
245.66        74.01425
246.11        73.10096
246.57        67.91896
247.03        58.17852
247.48        43.19769
247.94         31.5639
248.40        33.88601
248.85        44.90405
249.31        59.23825
249.77        72.72185
250.22         83.4209
250.68        91.77017
251.14        97.14656
251.59        99.22202
252.05        98.51884
252.51        94.41669
252.96        86.70576
253.42         79.6526
253.88        76.78505
254.33        77.25632
254.79        78.09879
255.25        75.95414
255.70        71.37547
256.16        66.69609
256.62        63.48713
257.07        63.44301
257.53        66.01394
257.99        69.06906
258.44        71.27955
258.90        72.07365
259.35         71.2532
259.81        69.86153
260.27         67.9631
260.72        65.66693
261.18        63.58683
261.63         61.5112
262.09        59.87246
262.55        58.71494
263.00        57.90201
263.46        57.47435
263.91        57.21404
264.37        57.19387
264.83        57.25175
265.28        57.30443
265.74        57.28511
266.19        56.87063
266.65        56.14268
267.11        55.15316
267.56        54.06295
268.02         53.2442
268.47        52.73524
268.93        52.45243
269.38        52.27816
269.84        52.06019
270.30        51.71838
270.75        51.27991
271.21        50.72211
271.66        49.95649
272.12        49.01056
272.57        47.86724
273.03        46.65507
273.48         45.4878
273.94        44.47939
274.39        43.58176
274.85        42.81114
275.31        42.06659
275.76        41.31174
276.22        40.62302
276.67        39.98878
277.13        39.51448
277.58         39.1325
278.04        38.83762
278.49        38.50903
278.95        38.11636
279.40        37.58329
279.86        37.00489
280.31        36.35057
280.77        35.71888
281.22        35.09529
281.68        34.53027
282.13        34.01311
282.59        33.59687
283.04        33.24939
283.50        32.97063
283.95         32.7257
284.41        32.51244
284.86        32.29827
285.32         32.1116
285.77        31.89351
286.22        31.60806
286.68        31.27288
287.13        30.86558
287.59        30.48689
288.04         30.2087
288.50        30.07439
288.95        30.02129
289.41         29.9947
289.86        29.85516
290.32        29.60404
290.77        29.28139
291.22        28.96271
291.68        28.75149
292.13        28.66549
292.59        28.68606
293.04        28.78764
293.50        28.96033
293.95        29.17826
294.40        29.45535
294.86        29.76839
295.31        30.06813
295.77         30.3548
296.22        30.62459
296.68        30.91625
297.13        31.27221
297.58        31.70312
298.04         32.1849
298.49        32.67984
298.95        33.15056
299.40        33.57967
299.85        33.98132
300.31        34.38178
300.76        34.78106
301.21        35.19039
301.67        35.60991
302.12        36.00299
302.58        36.36345
303.03        36.66892
303.48        36.93113
303.94         37.1999
304.39        37.49894
304.84        37.84512
305.30        38.22958
305.75        38.56856
306.20        38.78024
306.66        38.86411
307.11        38.81982
307.57        38.74749
308.02        38.73365
308.47         38.8144
308.93        38.95842
309.38        39.07384
309.83        39.05073
310.29        38.87978
310.74        38.59163
311.19        38.26902
311.65        38.03692
312.10        37.91156
312.55        37.86082
313.00        37.84163
313.46        37.78782
313.91        37.67303
314.36        37.52611
314.82        37.34879
315.27        37.13791
315.72        36.90482
316.18        36.65689
316.63        36.41874
317.08        36.25468
317.53        36.17398
317.99        36.15246
318.44        36.15518
318.89        36.10747
319.35        35.98615
319.80         35.8103
320.25        35.59842
320.70        35.38924
321.16         35.1882
321.61        34.98877
322.06        34.78228
322.51        34.55951
322.97         34.3165
323.42        34.08047
323.87        33.84406
324.32         33.5996
324.78        33.34746
325.23        33.09473
325.68        32.87305
326.13        32.74138
326.59        32.69297
327.04          32.729
327.49        32.76725
327.94        32.68405
328.39        32.44798
328.85        32.08197
329.30        31.67809
329.75        31.38274
330.20        31.24523
330.66        31.21714
331.11        31.24299
331.56        31.17571
332.01         30.9778
332.46        30.69468
332.92        30.39008
333.37        30.20506
333.82        30.16872
334.27        30.23385
334.72        30.34302
335.17        30.40667
335.63        30.38299
336.08        30.31494
336.53        30.20514
336.98         30.0703
337.43        29.92908
337.88         29.7836
338.34        29.65277
338.79         29.5767
339.24        29.56312
339.69        29.59739
340.14         29.6747
340.59        29.78338
341.05        29.90461
341.50        30.03771
341.95        30.12343
342.40        30.08112
342.85        29.90163
343.30        29.60889
343.75         29.2857
344.20        29.06851
344.66        28.99807
345.11        29.04016
345.56        29.12597
346.01        29.13627
346.46        29.04239
346.91         28.8832
347.36        28.72498
347.81        28.66573
348.26        28.72594
348.72        28.86914
349.17        29.02721
349.62        29.09803
350.07        29.05119
350.52        28.90714
350.97        28.73689
351.42        28.65321
351.87        28.67877
352.32        28.78295
352.77        28.86535
353.22        28.77418
353.67        28.48926
354.13        28.07808
354.58        27.65343
355.03        27.44517
355.48        27.50056
355.93        27.74644
356.38        28.03457
356.83        28.13272
357.28        27.98755
357.73        27.67846
358.18        27.31846
358.63        27.08375
359.08        27.01795
359.53        27.05171
359.98        27.12237
360.43        27.13775
360.88        27.06501
361.33        26.93656
361.78        26.74968
362.23        26.52995
362.68        26.29857
363.13         25.9889
363.58        25.62106
364.03        25.57413
364.48        25.30581
364.93        25.24303
365.38        25.19388
365.83        25.12473
366.28        25.01449
366.73        24.88229
367.18         24.7261
367.63        24.52963
368.08        24.29972
368.53        24.04037
368.98        23.78835
369.43        23.60402
369.88        23.50107
370.33        23.46601
370.78        23.45576
371.23        23.39902
371.68        23.27079
372.13        23.07964
372.58        22.86618
373.03        22.69696
373.48        22.59294
373.93        22.55038
374.38         22.5056
374.83        22.35761
375.28        22.09674
375.72        21.74406
376.17        21.44587
376.62        21.38911
377.07        21.58961
377.52        21.95992
377.97        22.32439
378.42        22.41093
378.87        22.16623
379.32        21.69846
379.77        21.13757
380.22        20.67905
380.67        20.38544
381.11         20.1942
381.56        20.10089
382.01        20.09623
382.46         20.1577
382.91        20.29737
383.36        20.42723
383.81        20.40336
384.26         20.2019
384.71        19.85268
385.15        19.46964
385.60        19.27284
386.05        19.29776
386.50        19.48927
386.95        19.71924
387.40         19.7846
387.85        19.64915
388.29        19.37538
388.74         19.1127
389.19         19.0258
389.64        19.13558
390.09        19.36241
390.54        19.59886
390.98        19.67474
391.43          19.559
391.88        19.32178
392.33        19.01821
392.78        18.75468
393.23        18.57256
393.67        18.36035
394.12        18.15643
394.57         18.2271
395.02        18.24306
395.47        18.17173
395.91        17.96427
396.36        17.89647
396.81        17.98385
397.26        18.07089
397.71        18.12212
398.15        18.15816
398.60        18.18954
399.05        18.14155
399.50        18.05533
399.95        18.10621
400.39        18.24418
400.84        18.18826
401.29        17.96018
401.74        17.77846
402.18        17.70441
402.63          17.759
403.08        17.88843
403.53        17.89993
403.97         17.7758
404.42        17.64771
404.87        17.54174
405.32        17.46163
405.76        17.41759
406.21        17.36167
406.66         17.3159
407.11         17.3996
407.55        17.56415
408.00        17.61704
408.45        17.53551
408.90        17.34354
409.34        17.12342
409.79        17.10538
410.24          17.252
410.68        17.28154
411.13        17.17827
411.58        17.12202
412.03        17.13444
412.47        17.16064
412.92        17.18998
413.37        17.24142
413.81        17.27948
414.26        17.26327
414.71         17.1832
415.15        17.05401
415.60        16.90886
416.05        16.81676
416.49        16.80103
416.94        16.83923
417.39        16.90333
417.83        16.95017
418.28        16.95813
418.73        16.93049
419.17        16.88371
419.62        16.84674
420.07        16.83485
420.51        16.85068
420.96        16.85841
421.41        16.82422
421.85        16.74288
422.30        16.55243
422.74        16.35706
423.19        16.51585
423.64          16.965
424.08        17.23817
424.53        17.21662
424.98        17.20342
425.42        17.19807
425.87        16.89041
426.31        16.42705
426.76        16.38863
427.21        16.71049
427.65        16.76747
428.10        16.56039
428.54        16.51312
428.99        16.62135
429.44        16.80524
429.88        16.94715
430.33        16.66037
430.77        16.13325
431.22        16.07476
431.66         16.4707
432.11        16.79416
432.56        16.95148
433.00        17.07542
433.45        17.00639
433.89        16.67374
434.34        16.38651
434.78        15.52395
435.23        16.08477
435.67         16.5908
436.12        16.83389
436.57        16.94372
437.01        16.78918
437.46        16.70591
437.90        16.78317
438.35        16.92322
438.79          16.596
439.24        16.48401
439.68        16.45547
440.13        16.45716
440.57        16.46735
441.02        16.60089
441.46        16.80255
441.91        16.69041
442.35        16.38582
442.80        16.59401
443.24        17.16581
443.69        17.13505
444.13        16.55886
444.58        16.31241
445.02        16.41259
445.47        16.41838
445.91        16.30671
446.36        16.26883
446.80        16.29873
447.24        16.33403
447.69        16.38444
448.13        16.50658
448.58        16.67103
449.02        16.77814
449.47        16.81109
449.91        16.82304
450.36        16.81609
450.80        16.74472
451.25        16.64007
451.69        16.57793
452.13        16.56644
452.58        16.56996
453.02        16.57152
453.47        16.55203
453.91        16.50342
454.36        16.46329
454.80        16.41267
455.24        16.30134
455.69        16.17256
456.13        16.05635
456.58          15.999
457.02        16.13023
457.46        16.35682
457.91        16.37624
458.35        16.26371
458.79        16.23924
459.24        16.32764
459.68        16.37745
460.13        16.38671
460.57        16.32844
461.01        16.27863
461.46        16.25616
461.90        16.19695
462.34        16.17995
462.79        16.45796
463.23         16.5759
463.68        16.59353
464.12        16.57017
464.56        16.52242
465.01        16.50937
465.45        16.48157
465.89        16.35882
466.34        16.20499
466.78        16.09433
467.22        16.02961
467.67        16.35303
468.11        16.32877
468.55        16.36738
468.99        16.27043
469.44        16.23359
469.88        16.25801
470.32        16.21824
470.77        16.14113
471.21        16.12407
471.65        16.17922
472.10        16.28301
472.54        16.38234
472.98        16.41821
473.42        16.38448
473.87        16.25862
474.31        16.10698
474.75        16.18068
475.20        16.43768
475.64         16.5408
476.08         16.4681
476.52        16.50682
476.97        16.66833
477.41        16.62981
477.85        16.55791
478.29        16.68869
478.74         16.6069
479.18        16.50218
479.62        16.78991
480.06        16.85175
480.50        16.86105
480.95        16.81421
481.39        16.71894
481.83        16.94904
482.27        17.00261
482.72        17.00447
483.16         17.2989
483.60        17.37025
484.04         17.3314
484.48        17.27547
484.93        17.41232
485.37        17.31856
485.81        17.62144
486.25        18.33043
486.69        17.54176
487.14        17.00984
487.58        18.33391
488.02        18.10837
488.46        18.18838
488.90        18.42182
489.34        17.98358
489.79        17.93095
490.23        18.28252
490.67        18.57807
491.11        18.81542
491.55        18.78824
491.99        18.58275
492.43         18.5817
492.88        18.81076
493.32        19.00662
493.76        19.13276
494.20        19.30408
494.64        19.52567
495.08        19.70632
495.52        19.83845
495.96        20.08191
496.41        20.41171
496.85        20.31425
497.29        19.95105
497.73        20.10018
498.17        20.68054
498.61         20.9987
499.05        20.95805
499.49        20.92545
499.93        20.96486
500.37        21.01225
500.82        21.07231
501.26        21.20305
501.70         21.4183
502.14        21.26359
502.58        21.50647
503.02        21.59644
503.46        21.66778
503.90         21.7459
504.34        21.80587
504.78        21.87556
505.22        21.94326
505.66        21.96501
506.10        21.96482
506.54        22.04053
506.98          22.205
507.42        22.32361
507.86        22.53367
508.30        22.63592
508.74        22.66855
509.18        22.64152
509.62        22.59877
510.06        22.60858
510.50        22.68587
510.94        22.81191
511.38        22.94349
511.82        23.01221
512.26        23.00252
512.70        22.93849
513.14        22.86374
513.58        22.83824
514.02         22.8775
514.46        22.97713
514.90        23.10445
515.34        23.12534
515.78        23.15815
516.22        23.11535
516.66        23.06719
517.10        23.05711
517.54        23.09749
517.98        23.16953
518.42        23.24759
518.86         23.2959
519.30        23.30301
519.74        23.28058
520.18        23.24478
520.62        23.21923
521.06        23.21192
521.50        23.21712
521.93        23.22503
522.37        23.21222
522.81        23.17679
523.25        23.12219
523.69        23.06619
524.13        23.03575
524.57        23.03341
525.01         23.0499
525.45        23.05433
525.89        22.99812
526.32        22.87173
526.76        22.70225
527.20        22.52777
527.64         22.4119
528.08        22.37001
528.52        22.37928
528.96        22.41351
529.40        22.43102
529.83        22.41542
530.27        22.38121
530.71        22.32668
531.15        22.24955
531.59        22.15565
532.03        22.04725
532.46        21.94059
532.90        21.87616
533.34        21.85843
533.78        21.87733
534.22        21.91624
534.66        21.94837
535.09        21.96064
535.53        21.96084
535.97        21.94714
536.41        21.92094
536.85        21.88572
537.28        21.84559
537.72        21.80289
538.16        21.75871
538.60        21.72098
539.04         21.6998
539.47         21.7055
539.91        21.76485
540.35        21.87242
540.79        22.02003
541.22        22.18237
541.66        22.31972
542.10        22.41907
542.54        22.49192
542.97        22.54501
543.41        22.60483
543.85         22.6768
544.29        22.75477
544.72        22.84241
545.16        22.96249
545.60        23.10931
546.04        23.27935
546.47        23.45531
546.91        23.60236
547.35          23.712
547.79        23.80609
548.22        23.89565
548.66        23.99265
549.10        24.11892
549.53        24.35211
549.97        24.66387
550.41        24.92272
550.84        25.10751
551.28        25.28564
551.72        25.45776
552.15        25.59517
552.59        25.70727
553.03        25.79323
553.46        25.86734
553.90         25.9732
554.34        26.11355
554.77        26.28815
555.21        26.46851
555.65        26.60738
556.08        26.66828
556.52         26.7266
556.96        26.79087
557.39        26.91432
557.83        27.08154
558.27        27.16236
558.70        27.16613
559.14        27.21016
559.57        27.29228
560.01        27.38428
560.45        27.45744
560.88        27.45265
561.32        27.42565
561.75        27.45651
562.19        27.56142
562.63        27.74939
563.06        27.95171
563.50        27.95433
563.93        27.80243
564.37        27.81425
564.80         27.9978
565.24        28.19314
565.68        28.36441
566.11        28.51868
566.55        28.65073
566.98        28.77633
567.42         28.9051
567.85        28.96985
568.29         29.0226
568.72        29.15625
569.16        29.35098
569.60        29.54172
570.03        29.73502
570.47        29.78807
570.90        29.81043
571.34        30.29483
571.77        30.36265
572.21        30.37148
572.64        30.72083
573.08        30.70047
573.51        31.14402
573.95        31.19454
574.38        31.08214
574.82        31.00559
575.25        31.11414
575.69        31.19625
576.12        31.09257
576.56        31.56843
576.99        31.53018
577.42        31.59096
577.86        31.70312
578.29        31.52982
578.73        31.47776
579.16        31.39879
579.60        31.34087
580.03        31.23225
580.47         31.0676
580.90        31.06566
581.33        31.24096
581.77        31.02867
582.20        30.63097
582.64           30.43
583.07        30.29738
583.51        30.34107
583.94        30.60953
584.37        30.61531
584.81        30.29657
585.24        29.92996
585.68        29.74216
586.11        29.28684
586.54        29.45234
586.98        29.53054
587.41        29.88181
587.85        29.32623
588.28        29.21008
588.71        29.16936
589.15        29.47234
589.58        29.11103
590.01        29.48248
590.45        29.55698
590.88        29.01533
591.31        28.96471
591.75        29.20248
592.18        29.24512
592.61         29.0619
593.05        29.51844
593.48        29.55441
593.91        29.27652
594.35        29.40599
594.78        29.71885
595.21        29.94948
595.65        30.03041
596.08        29.83255
596.51         30.2755
596.94        30.33431
597.38        30.67843
597.81        31.02129
598.24        30.90942
598.68        31.65538
599.11        31.62656
599.54        31.91658
599.97        32.11095
600.41        32.75507
600.84        33.14006
601.27        33.35043
601.70        33.61855
602.14        33.81735
602.57        34.39883
603.00         34.9306
603.43        35.40854
603.87        35.88198
604.30         36.3072
604.73        36.77773
605.16        37.26369
605.60        37.75703
606.03        38.19845
606.46        38.56502
606.89        38.95713
607.32        39.43001
607.76        40.08272
608.19         40.2614
608.62        40.61486
609.05        41.00141
609.48        41.40685
609.92        41.77208
610.35        42.11771
610.78        42.51615
611.21        42.32402
611.64        43.17848
612.07        43.47112
612.50        43.65691
612.94         43.9469
613.37        44.39742
613.80        44.42102
614.23        44.80841
614.66        45.06261
615.09         45.3731
615.52         45.7063
615.96        46.09258
616.39        46.02651
616.82        46.34029
617.25        46.78926
617.68        47.14366
618.11        47.33712
618.54        47.33874
618.97        47.66555
619.40        48.20676
619.84        48.74278
620.27        48.70995
620.70         48.6589
621.13        48.47464
621.56        49.01234
621.99         49.0643
622.42        49.14303
622.85        49.35651
623.28        49.37905
623.71        49.37411
624.14        49.29216
624.57        49.26802
625.00        49.40596
625.43        49.13506
625.86        49.18996
626.29        49.37668
626.72        49.10044
627.15        49.00348
627.58        48.73564
628.01         48.6166
628.44        48.09389
628.87        47.86507
629.30        48.06499
629.73        47.60684
630.16        46.90411
630.59        46.84275
631.02         46.4727
631.45         46.1348
631.88        45.79345
632.31         45.4763
632.74        44.95588
633.17         44.6684
633.60        44.24327
634.03        43.80794
634.46        43.36365
634.89        42.90596
635.32        42.41004
635.75        41.87567
636.18        41.33957
636.61        40.82632
637.04         40.3246
637.47         39.8653
637.89        39.55025
638.32        39.31547
638.75        38.99329
639.18        38.56667
639.61        38.12061
640.04         37.6955
640.47        37.33509
640.90        37.05871
641.33        36.83831
641.76        36.64885
642.18        36.54028
642.61        36.35757
643.04        36.22715
643.47        36.12119
643.90        36.06282
644.33        36.05626
644.76        36.09418
645.18        36.16707
645.61        36.25478
646.04        36.35369
646.47        36.46808
646.90        36.61188
647.33        36.80612
647.75        37.05822
648.18        37.36472
648.61         37.7021
649.04        38.05368
649.47        38.41391
649.89        38.72661
650.32        39.03363
650.75        39.54417
651.18        40.21844
651.61        40.72595
652.03        41.03155
652.46        41.47189
652.89         42.1237
653.32        42.44877
653.74        42.70963
654.17        43.76006
654.60        44.48518
655.03        44.69497
655.46        45.11921
655.88        46.08467
656.31        47.01122
656.74        47.43095
657.16        47.50559
657.59        48.13121
658.02        47.59203
658.45        48.41699
658.87        49.61293
659.30        50.34051
659.73        49.70797
660.15        50.34089
660.58        50.94049
661.01        51.63587
661.44        52.03635
661.86        52.27804
662.29        52.41212
662.72        52.57947
663.14        52.84407
663.57        53.10788
664.00        53.35692
664.42        53.57492
664.85        53.77009
665.27         53.9872
665.70        54.22071
666.13        54.42869
666.55        54.61541
666.98        54.80098
667.41        55.00207
667.83        55.23527
668.26        55.48821
668.69        55.75128
669.11        56.01536
669.54        56.24495
669.96        56.44203
670.39        56.64326
670.82        56.81727
671.24        56.86551
671.67          56.876
672.09        56.79365
672.52         57.2368
672.94        57.42287
673.37         57.5284
673.80        57.67563
674.22        57.87675
674.65        58.04296
675.07        58.17586
675.50         58.2751
675.92        58.36523
676.35        58.48748
676.77        58.65464
677.20        58.85226
677.62        59.05237
678.05         59.1958
678.47        59.27296
678.90        59.31318
679.32        59.35832
679.75        59.48564
680.17        59.70725
680.60        60.00098
681.02        60.30388
681.45        60.51238
681.87        60.61459
682.30        60.58445
682.72        60.50418
683.15        60.62342
683.57        60.92461
684.00        61.05096
684.42        61.02277
684.85        61.15478
685.27         61.4413
685.70        61.70248
686.12        61.89683
686.54        62.06831
686.97        62.19128
687.39        62.25809
687.82        62.30161
688.24        62.25682
688.66        62.43938
689.09        62.57127
689.51         62.7331
689.94           62.87
690.36          62.979
690.78         63.0668
691.21        63.13931
691.63        63.19958
692.06        63.25579
692.48        63.30878
692.90        63.35808
693.33        63.39243
693.75        63.41706
694.17        63.44315
694.60        63.48093
695.02        63.56973
695.44        63.71232
695.87        63.89087
696.29        64.07877
696.71        64.28111
697.14        64.49682
697.56         64.5119
697.98        64.78281
698.41        64.93712
698.83        65.09695
699.25        65.26786
699.68          65.422
700.10        65.55277
700.52        65.64193
700.94        65.70954
701.37         65.7399
701.79        65.74519
702.21        65.72217
702.64        65.67612
703.06        65.64702
703.48        65.74814
703.90        66.00015
704.33        66.24255
704.75        66.61936
705.17        66.82269
705.59        66.88197
706.01         66.8069
706.44        66.66943
706.86        66.71767
707.28        66.79887
707.70        66.99203
708.12        67.19889
708.55        67.39337
708.97        67.52424
709.39        67.51661
709.81        67.41562
710.23        67.40257
710.66        67.50277
711.08        67.63538
711.50        67.75566
711.92        67.85431
712.34          67.924
712.76        67.96729
713.19        67.98274
713.61         68.0386
714.03        68.13753
714.45        68.15621
714.87        68.24688
715.29        68.36633
715.71        68.57483
716.13        68.53729
716.56        68.78352
716.98        68.86023
717.40        68.90748
717.82        68.92447
718.24        68.93561
718.66        68.97083
719.08        69.03585
719.50        69.12124
719.92        69.21828
720.34        69.34048
720.76        69.48449
721.19        69.58854
721.61        69.62931
722.03        69.80631
722.45        69.68594
722.87          69.626
723.29        69.53626
723.71        69.48775
724.13        69.50107
724.55         69.5741
724.97        69.69071
725.39        69.80858
725.81        69.91283
726.23        70.00416
726.65        70.10484
727.07        70.25231
727.49        70.44704
727.91        70.67287
728.33        70.86671
728.75        70.92735
729.17        70.83981
729.59        70.64261
730.01        70.42656
730.43        70.33947
730.85        70.41446
731.27        70.59856
731.69        70.83313
732.10        71.02631
732.52         71.1325
732.94        71.23346
733.36        71.32761
733.78        71.30703
734.20        71.17138
734.62         71.3982
735.04        70.90681
735.46        71.24463
735.88        71.94469
736.30        71.68752
736.72        71.25184
737.13         71.1598
737.55        71.59758
737.97        71.71861
738.39        71.51199
738.81        71.45982
739.23        71.57628
739.65        71.68593
740.06        71.74393
740.48        71.82397
740.90          71.888
741.32        72.01202
741.74        72.08482
742.16        72.16364
742.57        72.21161
742.99        72.30773
743.41        72.43737
743.83        72.36191
744.25        72.17298
744.67        72.31689
745.08        72.75089
745.50        72.96076
745.92        72.91642
746.34        72.88869
746.75        72.90647
747.17        72.88938
747.59        72.85168
748.01        72.81622
748.42         72.7815
748.84        72.74903
749.26        72.71951
749.68        72.67069
750.09        72.62219
750.51         72.6521
750.93        72.75195
751.35        72.87716
751.76        72.99293
752.18        73.04269
752.60        73.00777
753.01        72.92934
753.43        72.86666
753.85        72.85123
754.27        72.87535
754.68        73.34341
755.10        73.50998
755.52        73.59237
755.93        73.44566
756.35        73.54459
756.77         73.8215
757.18        73.85281
757.60        73.71771
758.02        73.60797
758.43        73.52229
758.85        74.09621
759.26        74.27603
759.68        74.27454
760.10        73.89713
760.51        73.79694
760.93        73.76451
761.34        74.15331
761.76        74.50081
762.18        74.55863
762.59        74.37285
763.01        74.30353
763.42        74.91372
763.84         74.9883
764.26        74.72966
764.67        74.32772
765.09        74.01779
765.50        74.35398
765.92        75.14623
766.33         75.2277
766.75        74.51598
767.16         74.4114
767.58        74.39591
768.00        74.38278
768.41        74.27232
768.83        74.55707
769.24        75.07074
769.66        75.24023
770.07        75.05405
770.49        74.84621
770.90        74.74983
771.32        74.93336
771.73        75.32679
772.15        75.47634
772.56         75.3619
772.97        75.34451
773.39        75.41557
773.80        75.30211
774.22        75.06717
774.63         75.1931
775.05        75.59058
775.46        75.81049
775.88        75.77489
776.29        75.77253
776.70        75.82825
777.12        75.87665
777.53        75.94962
777.95        76.04214
778.36        76.14278
778.77         76.2145
779.19        76.24919
779.60        76.26123
780.02        76.26601
780.43         76.3276
780.84        76.46849
781.26        76.58157
781.67        76.65115
782.09        76.80917
782.50        77.01244
782.91        76.59248
783.33        76.51358
783.74        76.33619
784.15        76.34869
784.57        76.49799
784.98        76.71459
785.39        76.66872
785.81        76.42426
786.22         76.5445
786.63        76.97777
787.04        77.21758
787.46        77.25399
787.87        77.35464
788.28         77.5027
788.70        77.55579
789.11        77.50278
789.52        77.34379
789.93        77.15385
790.35        77.20078
790.76        77.44296
791.17        77.44363
791.58        77.26864
792.00        77.26894
792.41        77.45839
792.82         77.9623
793.23        78.26373
793.65        78.19096
794.06        77.76952
794.47        77.89394
794.88        78.49721
795.29        78.52383
795.71         78.4397
796.12        78.33345
796.53        78.36874
796.94        78.34185
797.35        78.25277
797.76        78.16458
798.18        78.11539
798.59        78.12761
799.00        78.21211
799.41        78.35699
799.82        78.50682
800.23        78.57935
800.64        78.55379
801.06        78.43213
801.47        78.30686
801.88        78.24903
802.29        78.28725
802.70        78.39662
803.11        78.54733
803.52        78.68844
803.93        78.79902
804.34        78.88765
804.75        78.96199
805.17        79.03174
805.58        79.13047
805.99        79.19749
806.40        79.21636
806.81         79.2356
807.22        79.21129
807.63        78.99454
808.04        78.66766
808.45         78.5219
808.86        78.60159
809.27        78.77068
809.68        78.95509
810.09        79.07325
810.50        79.08965
810.91        79.02808
811.32        78.93921
811.73        78.92701
812.14        79.02113
812.55        79.13023
812.96        79.21119
813.37        79.38776
813.78        79.60213
814.19        79.46702
814.60         79.0117
815.01        79.23463
815.42         79.0032
815.83        79.08802
816.24        79.14666
816.65        79.29941
817.05        79.53163
817.46        79.78088
817.87        80.03358
818.28        80.18394
818.69        80.21844
819.10        80.16672
819.51        80.06388
819.92        79.99313
820.33        79.98998
820.74        79.98788
821.14        79.99503
821.55        80.16114
821.96        80.41535
822.37        80.51778
822.78        80.45333
823.19        80.41236
823.60        80.40626
824.00        80.33727
824.41        80.16871
824.82        80.01468
825.23        79.89591
825.64        79.78584
826.04        79.76047
826.45        79.89522
826.86        80.20033
827.27        80.64754
827.68        81.08935
828.08        81.31052
828.49        81.18614
828.90        80.81663
829.31        80.36526
829.72        80.11701
830.12        80.17883
830.53         80.4229
830.94        80.74332
831.35        80.91814
831.75        80.90254
832.16        80.71777
832.57        80.46606
832.97        80.28101
833.38        80.20451
833.79        80.19933
834.20        80.23859
834.60        80.28035
835.01        80.32765
835.42        80.39934
835.82        80.51655
836.23        80.62222
836.64        80.72724
837.04        80.83002
837.45        80.90519
837.86        81.02469
838.26        81.20316
838.67        81.41695
839.08        81.57806
839.48        81.52266
839.89         81.2383
840.29        80.78999
840.70        80.37402
841.11        80.30479
841.51        80.65948
841.92        81.29321
842.33        82.00886
842.73        82.46533
843.14        82.50368
843.54        82.25778
843.95        81.84683
844.35        81.49768
844.76        81.28022
845.17        81.12767
845.57        81.03928
845.98        80.97369
846.38        80.94008
846.79        80.94836
847.19        80.97651
847.60        80.90655
848.00        80.75129
848.41         80.5058
848.81        80.28694
849.22        80.21336
849.62        80.35233
850.03        80.63165
850.43        80.98927
850.84        81.24135
851.24        81.38934
851.65        81.40401
852.05        81.40203
852.46         81.4595
852.86        81.59186
853.27         81.7757
853.67        81.85379
854.07        81.80885
854.48        81.58389
854.88        81.24644
855.29         80.7677
855.69        80.33477
856.10        79.92864
856.50        79.62933
856.90        79.39703
857.31        79.19283
857.71        79.05208
858.12        78.91987
858.52        78.88932
858.92        78.97408
859.33        79.14635
859.73        79.43806
860.13        79.68546
860.54        79.63894
860.94        79.29382
861.34        78.68594
861.75        78.03918
862.15        77.76926
862.55        77.93755
862.96        78.45224
863.36        79.05334
863.76        79.28457
864.17          79.023
864.57        78.41226
864.97        77.74171
865.38        77.45232
865.78        77.70148
866.18        78.33681
866.58        79.04438
866.99        79.28733
867.39        78.95244
867.79        78.18446
868.19        77.33178
868.60        76.85938
869.00        76.87183
869.40        77.27362
869.80        77.81591
870.21        78.04875
870.61        77.91954
871.01        77.52161
871.41        77.11905
871.81        77.08197
872.22        77.45305
872.62        78.13459
873.02        78.91318
873.42        79.38406
873.82        79.40858
874.22        79.13468
874.63        78.75919
875.03         78.5223
875.43        78.51151
875.83        78.63879
876.23        78.85855
876.63         79.1063
877.03        79.32872
877.44        79.52115
877.84         79.6596
878.24        79.65386
878.64        79.49551
879.04        79.23647
879.44         78.8951
879.84        78.49342
880.24        78.06223
880.64        77.60205
881.04        77.24606
881.44        77.21996
881.84        77.55076
882.24        78.15142
882.65         78.7691
883.05        79.07697
883.45        78.94628
883.85        78.52141
884.25         77.9591
884.65        77.49941
885.05        77.22421
885.45        77.03802
885.85        77.01279
886.25        77.27197
886.65        77.78857
887.05        78.52357
887.45        79.18888
887.85        79.33574
888.25        78.88915
888.65        77.97163
889.04        76.91858
889.44        76.34688
889.84        76.40906
890.24        76.94024
890.64         77.6442
891.04        78.03948
891.44        77.99699
891.84         77.6734
892.24        77.27714
892.64        77.12756
893.04        77.30693
893.44        77.69642
893.83        78.16583
894.23        78.45191
894.63        78.51759
895.03        78.45425
895.43        78.36585
895.83        78.41305
896.23        78.62798
896.63        78.91801
897.02         79.2221
897.42        79.50866
897.82        79.73759
898.22        79.95393
898.62        80.08108
899.01        79.99811
899.41        79.68318
899.81        79.18393
900.21        78.71387
900.61        78.62906
901.00        78.98447
901.40        79.67899
901.80        80.42854
902.20        80.79108
902.59        80.66203
902.99        80.15335
903.39        79.47682
903.79        78.97691
904.18         78.7641
904.58        78.75492
904.98        78.83309
905.38        78.83493
905.77        78.70573
906.17        78.51102
906.57        78.32664
906.96        78.28835
907.36        78.40318
907.76        78.65168
908.15        78.92278
908.55        78.96278
908.95        78.75986
909.34         78.3623
909.74        78.01244
910.14        78.03227
910.53        78.48313
910.93        79.23152
911.33        80.02618
911.72        80.43575
912.12        80.33821
912.52        79.91129
912.91        79.34705
913.31        78.95525
913.70        78.81057
914.10         78.8018
914.49        78.93181
914.89        79.13276
915.29         79.3752
915.68        79.67255
916.08        79.92828
916.47        79.97656
916.87        79.81284
917.26        79.46597
917.66        79.06318
918.05        78.78159
918.45        78.66354
918.84        78.67884
919.24         78.7659
919.64        78.89979
920.03        79.07283
920.42        79.30614
920.82        79.53325
921.21          79.634
921.61        79.57758
922.00         79.3852
922.40        79.21469
922.79        79.44022
923.19        80.06579
923.58        80.98827
923.98        81.83246
924.37        82.08961
924.77        81.65202
925.16        80.67475
925.55        79.50554
925.95        78.75137
926.34        78.61739
926.74        78.92593
927.13        79.46806
927.52        79.79553
927.92        79.80272
928.31        79.61526
928.70        79.39302
929.10         79.3569
929.49        79.55734
929.89        79.85657
930.28        80.19037
930.67        80.33804
931.07        80.22796
931.46        79.97997
931.85        79.64684
932.24        79.33843
932.64        79.10377
933.03         78.9102
933.42        78.81286
933.82        78.89255
934.21        79.15664
934.60         79.5981
934.99        80.08407
935.39         80.3586
935.78        80.39707
936.17        80.23557
936.56        80.03859
936.96         80.0928
937.35        80.49929
937.74        81.10368
938.13        81.71046
938.53        82.04779
938.92        82.05277
939.31        81.80541
939.70         81.4127
940.09        81.06068
940.49        80.81065
940.88        80.66354
941.27        80.56337
941.66        80.42694
942.05          80.241
942.44        80.05194
942.84        79.94212
943.23        79.98056
943.62        80.19542
944.01        80.53133
944.40        80.88242
944.79        81.07362
945.18        81.03837
945.57        80.81577
945.97        80.44634
946.36        80.05888
946.75        79.67472
947.14        79.29154
947.53        78.92375
947.92        78.60129
948.31        78.34804
948.70        78.17126
949.09        78.11147
949.48        78.21127
949.87        78.46028
950.26        78.84147
950.65        79.23463
951.04        79.45412
951.43        79.46087
951.82        79.28687
952.21        79.08176
952.60        79.12089
952.99        79.45458
953.38        79.97166
953.77        80.47893
954.16        80.68599
954.55         80.5222
954.94        80.08337
955.33        79.48873
955.72        78.93503
956.11        78.50477
956.50        78.16062
956.89        77.89292
957.28        77.67248
957.66        77.52921
958.05        77.49283
958.44        77.57499
958.83        77.76392
959.22        78.02992
959.61        78.29723
960.00        78.58856
960.39        78.96391
960.78         79.3949
961.16        79.88601
961.55        80.14042
961.94        79.79498
962.33        78.81606
962.72          77.386
963.11        75.93176
963.49        75.05392
963.88         74.8947
964.27        75.32452
964.66         76.0528
965.04        76.55539
965.43        76.57243
965.82        76.28805
966.21        75.96336
966.60        76.02021
966.98        76.54885
967.37        77.33904
967.76        78.13654
968.15        78.45466
968.53        78.17522
968.92        77.52275
969.31        76.72649
969.69        76.09395
970.08        75.74649
970.47        75.58862
970.86        75.81619
971.24        76.75965
971.63        78.27108
972.02        80.15019
972.40        81.88621
972.79        82.66708
973.17        82.45608
973.56        81.40836
973.95        79.94355
974.33        78.81136
974.72        78.28986
975.11        78.20721
975.49         78.3771
975.88        78.47548
976.26        78.40917
976.65         78.3121
977.04        78.23143
977.42        78.19653
977.81        78.16177
978.19         78.0233
978.58        77.96272
978.96        78.28513
979.35        78.98486
979.74        80.03424
980.12        81.03172
980.51        81.09163
980.89        80.18495
981.28        78.45322
981.66        76.64737
982.05        76.15264
982.43        77.30279
982.82        79.58018
983.20        82.14558
983.59        83.54399
983.97        83.50367
984.35        82.41074
984.74        80.71895
985.12        79.27606
985.51        78.44603
985.89        78.00611
986.28        77.94518
986.66        78.31692
987.04        79.02317
987.43        80.06618
987.81        81.19393
988.20        81.80242
988.58        81.77348
988.96        81.20508
989.35        80.31133
989.73        79.57527
990.12        79.09425
990.50        78.74677
990.88        78.53515
991.27        78.46236
991.65        78.52789
992.03        78.81741
992.42        79.06115
992.80        79.10516
993.18        78.82313
993.56        78.18828
993.95        77.51843
994.33        77.46995
994.71        78.26709
995.10        79.52674
995.48        80.66788
995.86        81.03835
996.24        80.60561
996.63        79.45463
997.01        78.08862
997.39        77.51511
997.77        78.12161
998.15        79.57648
998.54        81.09306
998.92        81.59329
999.30        80.87248
999.68        79.26993
1000.06        77.41434
1000.45        76.43747
1000.83        76.79345
1001.21        78.03348
1001.59        79.61744
1001.97        80.77837
1002.35        81.31333
1002.73        81.50351
1003.12        81.41062
1003.50        81.06806
1003.88        80.60881
1004.26        79.92413
1004.64        79.34659
1005.02         79.3363
1005.40         79.9037
1005.78        81.00697
1006.16        82.06892
1006.54        82.00867
1006.92        80.61707
1007.30        78.25822
1007.69        75.89897
1008.07        75.05666
1008.45        76.15182
1008.83        78.60229
1009.21        81.50314
1009.59        83.61195
1009.97        84.57609
1010.35        84.68488
1010.73        84.09259
1011.11        83.26805
1011.49        82.52759
1011.86        81.78073
1012.24        80.96592
1012.62        80.22435
1013.00        79.60355
1013.38        79.31599
1013.76        79.26157
1014.14        79.17523
1014.52        79.02726
1014.90         78.7711
1015.28         78.8815
1015.66        80.25583
1016.04        82.89342
1016.41        86.37405
1016.79        89.34523
1017.17        90.26521
1017.55        88.96822
1017.93        86.16187
1018.31        82.86185
1018.69        80.64255
1019.06        80.09315
1019.44        80.77246
1019.82        82.72471
1020.20         85.7464
1020.58        89.19054
1020.95        92.69675
1021.33        95.32212
1021.71        95.87547
1022.09        94.30727
1022.46        90.87644
1022.84        86.39412
1023.22        82.29511
1023.60        79.18436
1023.97        76.77131
1024.35        75.18729
1024.73        74.05238
