SpectraSmart Spectrum 2.9.0.0
--------- Device Information -----------
Spectrum Name :  反射率_0
Saving Time :  2024/04/27 23:01:07
Spectro-Module Model Name : SE2030-DUVN
Spectro-Module Serial Number : OS361AC55029948
Wavelength Start : 200
Wavelength End : 1025
Wavelength Unit : Wavelength(nm)
Spectrum Unit : Reflectance(%)
-----------Spectrum Setting ------------
Integration Time : 20ms
Average : 10
Boxcar : 0
Background removal :  enabled
linearity correction :  enabled
SC :  disabled
Intensity correction :  disabled
DWT denoise :  enabled
savitzky-golay :  disabled
FFT :  disabled
Running average :  disabled
Kalman :  disabled
High pass :  disabled
---------------BEGIN--------------------
Wavelength(nm)             Reflectance(%)
200.29               0
200.75        68.54698
201.21        55.40205
201.67        45.21257
202.13        41.30282
202.58        41.37148
203.04         43.5349
203.50        47.63878
203.96        53.13347
204.42        58.72422
204.88        63.95801
205.34        68.10146
205.80        70.81904
206.26        72.41594
206.72        72.96229
207.18        71.88145
207.64        68.71158
208.10        65.29136
208.55        63.68488
209.01        62.23615
209.47        59.81631
209.93        54.96344
210.39        42.84406
210.85        7.528164
211.31       -30.29024
211.77        24.08337
212.23         57.2559
212.69        67.78959
213.14        69.19742
213.60        64.79565
214.06        54.87603
214.52        38.35564
214.98        28.58304
215.44        37.54795
215.90         51.5901
216.36        63.10952
216.81         71.0279
217.27        76.73322
217.73        81.98348
218.19        85.22144
218.65        83.10728
219.11        74.88892
219.57        60.82949
220.02        44.84054
220.48        38.39192
220.94        44.96317
221.40         59.6084
221.86        75.35901
222.32        85.46567
222.77        89.55436
223.23        90.15161
223.69        89.27991
224.15        88.99469
224.61         89.7581
225.06        90.90808
225.52        91.75423
225.98        90.83025
226.44        88.41734
226.90        85.58406
227.36        83.56527
227.81        83.13051
228.27        84.17504
228.73        86.29318
229.19        88.34203
229.65         88.0868
230.10        84.96803
230.56        80.21479
231.02        75.60312
231.48        73.59766
231.93        74.37716
232.39        77.01575
232.85        80.24363
233.31        82.44582
233.77        83.21946
234.22         83.1729
234.68        82.57481
235.14        81.71482
235.60        80.73235
236.05        79.41518
236.51        77.99635
236.97        77.28671
237.43        77.56934
237.88        78.82663
238.34        80.15832
238.80        80.79659
239.26        80.44408
239.71        79.09534
240.17        76.03625
240.63        72.22221
241.08        70.17745
241.54        69.93132
242.00        70.50511
242.46         70.7851
242.91        70.60052
243.37        69.90237
243.83        68.62834
244.28        68.03961
244.74        70.21404
245.20        73.16532
245.66         74.3505
246.11        73.41101
246.57        70.33808
247.03        64.52653
247.48        54.98771
247.94        45.64859
248.40        43.03981
248.85        45.79232
249.31        51.80107
249.77        58.85975
250.22        65.40781
250.68        71.24041
251.14          75.433
251.59        77.33069
252.05         77.3068
252.51        74.95689
252.96        70.49306
253.42        67.73703
253.88        68.47058
254.33        71.19572
254.79        73.10205
255.25        71.59727
255.70         67.6197
256.16        63.42209
256.62        60.79715
257.07        61.64663
257.53         65.2302
257.99        69.23856
258.44        72.22562
258.90        73.51997
259.35        72.97853
259.81        71.79004
260.27         69.9981
260.72        67.67327
261.18        65.50609
261.63        63.32241
262.09        61.71325
262.55        60.90551
263.00        60.70825
263.46         61.0336
263.91        61.48695
264.37        61.90608
264.83        62.10212
265.28        62.12376
265.74        61.96849
266.19        61.37099
266.65        60.45584
267.11           59.22
267.56        57.96037
268.02        57.27177
268.47        57.18785
268.93        57.55935
269.38        57.96088
269.84        57.75159
270.30        56.79695
270.75        55.32678
271.21        53.70252
271.66         52.4222
272.12        51.64641
272.57        51.14199
273.03        50.79972
273.48        50.35623
273.94        49.78225
274.39        49.12614
274.85        48.40949
275.31        47.52589
275.76        46.48181
276.22        45.37394
276.67        44.29764
277.13        43.53964
277.58        43.06034
278.04        42.81617
278.49        42.61121
278.95        42.30528
279.40         41.7818
279.86        41.16904
280.31        40.44768
280.77        39.74465
281.22        39.04795
281.68         38.4026
282.13          37.783
282.59        37.23822
283.04        36.73399
283.50        36.28136
283.95        35.86575
284.41        35.52469
284.86        35.22308
285.32        34.96939
285.77        34.67478
286.22         34.2634
286.68        33.74788
287.13        33.13232
287.59        32.52138
288.04        31.98646
288.50        31.59216
288.95        31.28395
289.41        31.06542
289.86        30.88184
290.32        30.73484
290.77        30.61811
291.22        30.52452
291.68         30.4346
292.13         30.3286
292.59         30.2168
293.04        30.10467
293.50        30.03909
293.95        30.01735
294.40        30.04094
294.86        30.09003
295.31        30.12001
295.77        30.13692
296.22         30.1509
296.68        30.20931
297.13        30.36008
297.58        30.61739
298.04        30.95551
298.49        31.33063
298.95        31.69334
299.40        32.01945
299.85        32.31921
300.31        32.61702
300.76        32.91558
301.21        33.22509
301.67        33.54163
302.12        33.82967
302.58        34.07952
303.03        34.27567
303.48        34.44135
303.94        34.62479
304.39        34.84954
304.84        35.13413
305.30        35.46403
305.75        35.78482
306.20        36.05486
306.66        36.27015
307.11        36.41437
307.57        36.52048
308.02        36.57518
308.47        36.59926
308.93         36.5946
309.38        36.54964
309.83        36.47436
310.29        36.38383
310.74        36.27103
311.19        36.15171
311.65         36.0425
312.10        35.93136
312.55        35.82149
313.00        35.71745
313.46        35.62657
313.91           35.54
314.36        35.45528
314.82         35.3443
315.27        35.15918
315.72        34.89848
316.18        34.59128
316.63        34.27177
317.08        34.01543
317.53        33.84115
317.99         33.7215
318.44        33.64172
318.89        33.56031
319.35        33.45892
319.80         33.3497
320.25        33.21795
320.70        33.04594
321.16        32.82647
321.61        32.56743
322.06        32.29354
322.51        32.05249
322.97        31.85355
323.42        31.70124
323.87        31.55842
324.32        31.36937
324.78        31.11763
325.23        30.82288
325.68        30.52998
326.13        30.31861
326.59        30.19411
327.04        30.15532
327.49        30.12019
327.94        29.96469
328.39        29.65858
328.85         29.2272
329.30        28.77456
329.75        28.46937
330.20        28.36129
330.66        28.39336
331.11        28.47203
331.56        28.39223
332.01         28.1024
332.46        27.66216
332.92        27.17795
333.37        26.86366
333.82        26.77516
334.27        26.84847
334.72        26.99425
335.17        27.06601
335.63        27.00686
336.08         26.8786
336.53        26.70652
336.98        26.54345
337.43         26.4158
337.88        26.30397
338.34        26.21643
338.79        26.17691
339.24        26.18645
339.69        26.24301
340.14        26.32333
340.59        26.38392
341.05        26.41034
341.50        26.41463
341.95         26.3968
342.40        26.37046
342.85        26.33872
343.30        26.28887
343.75        26.22991
344.20        26.17829
344.66         26.1399
345.11        26.11505
345.56        26.07491
346.01        25.96842
346.46        25.79375
346.91        25.57049
347.36        25.36794
347.81        25.28787
348.26        25.35008
348.72         25.5282
349.17         25.7357
349.62        25.83417
350.07         25.7859
350.52        25.61418
350.97        25.42127
351.42        25.37382
351.87        25.49847
352.32        25.74067
352.77         25.9486
353.22        25.89279
353.67        25.53888
354.13        24.98325
354.58         24.3859
355.03        24.05227
355.48        24.05392
355.93        24.29632
356.38        24.60979
356.83        24.72785
357.28        24.58298
357.73        24.26422
358.18        23.88712
358.63        23.62875
359.08        23.53608
359.53        23.54228
359.98        23.58203
360.43        23.56087
360.88        23.45103
361.33        23.28842
361.78        23.09429
362.23         22.9327
362.68        22.82581
363.13        22.68446
363.58        22.48649
364.03        22.55993
364.48        22.32079
364.93        22.22962
365.38        22.11333
365.83        21.98093
366.28        21.82886
366.73         21.6718
367.18        21.49964
367.63        21.28213
368.08        21.02376
368.53        20.73254
368.98         20.4676
369.43        20.32179
369.88        20.30917
370.33        20.40304
370.78        20.51023
371.23        20.47925
371.68        20.27163
372.13        19.92361
372.58        19.53671
373.03        19.28026
373.48        19.19954
373.93        19.25158
374.38        19.33192
374.83        19.27401
375.28        19.04466
375.72        18.69203
376.17        18.35405
376.62        18.20279
377.07        18.26887
377.52        18.47762
377.97        18.70964
378.42        18.78384
378.87        18.65659
379.32        18.39517
379.77        18.07627
380.22        17.81254
380.67        17.64025
381.11        17.52447
381.56        17.44966
382.01        17.39248
382.46        17.34136
382.91        17.30925
383.36        17.28298
383.81        17.23593
384.26        17.16213
384.71        17.06324
385.15        16.94798
385.60        16.86387
386.05        16.81332
386.50        16.79567
386.95        16.79653
387.40        16.79184
387.85        16.77833
388.29        16.74932
388.74        16.74946
389.19         16.8068
389.64        16.91441
390.09          17.042
390.54        17.14298
390.98        17.14267
391.43        17.03555
391.88        16.85815
392.33        16.62919
392.78        16.40209
393.23        16.20642
393.67        15.96232
394.12        15.72867
394.57        15.76793
395.02        15.79905
395.47        15.77939
395.91         15.6423
396.36        15.58766
396.81        15.62312
397.26        15.63575
397.71        15.61192
398.15        15.59356
398.60        15.59677
399.05        15.54286
399.50        15.48125
399.95        15.58511
400.39        15.81039
400.84        15.91118
401.29        15.85039
401.74        15.72505
402.18        15.57373
402.63        15.44533
403.08        15.37089
403.53        15.31564
403.97        15.29498
404.42        15.37523
404.87        15.51239
405.32        15.60508
405.76        15.62819
406.21        15.56865
406.66        15.47125
407.11        15.47985
407.55        15.56802
408.00        15.55704
408.45        15.42695
408.90        15.20323
409.34        14.96335
409.79        14.91297
410.24        15.03721
410.68        15.11388
411.13        15.12763
411.58        15.22708
412.03        15.38782
412.47        15.48371
412.92        15.48756
413.37        15.44132
413.81        15.37036
414.26        15.32582
414.71        15.31801
415.15        15.33181
415.60        15.35832
416.05        15.38842
416.49        15.41749
416.94         15.4487
417.39        15.47267
417.83         15.4753
418.28        15.44858
418.73         15.3851
419.17        15.31059
419.62        15.27151
420.07        15.28316
420.51        15.34527
420.96        15.40303
421.41        15.38801
421.85        15.29013
422.30        15.06691
422.74        14.83628
423.19        14.95772
423.64        15.38071
424.08        15.67147
424.53        15.70714
424.98        15.74197
425.42        15.76649
425.87        15.50217
426.31        15.08208
426.76        15.03869
427.21        15.31568
427.65        15.34366
428.10        15.12974
428.54        15.07318
428.99        15.17012
429.44        15.33758
429.88        15.47772
430.33        15.25147
430.77        14.82624
431.22        14.85111
431.66        15.27848
432.11        15.56546
432.56        15.61561
433.00        15.53195
433.45        15.24832
433.89        14.93549
434.34        14.85978
434.78        14.21936
435.23        14.80306
435.67        15.34604
436.12        15.63592
436.57        15.71827
437.01        15.50096
437.46        15.38855
437.90        15.47748
438.35        15.64415
438.79         15.3859
439.24        15.31814
439.68        15.31127
440.13        15.32801
440.57        15.33757
441.02        15.42602
441.46        15.54507
441.91        15.35269
442.35        14.99553
442.80        15.15852
443.24           15.71
443.69        15.75705
444.13        15.31613
444.58        15.14411
445.02        15.24507
445.47         15.2187
445.91        15.07069
446.36        15.02292
446.80        15.07816
447.24        15.16591
447.69        15.25882
448.13        15.35562
448.58        15.42224
449.02        15.38916
449.47        15.29172
449.91        15.25515
450.36        15.29568
450.80        15.34476
451.25        15.38409
451.69        15.41048
452.13        15.41196
452.58        15.37934
453.02          15.323
453.47        15.26687
453.91        15.21741
454.36        15.19424
454.80        15.17424
455.24         15.1042
455.69        15.01793
456.13        14.94569
456.58        14.92383
457.02        15.06064
457.46        15.26825
457.91        15.26908
458.35        15.13955
458.79        15.09477
459.24        15.16089
459.68        15.19223
460.13        15.19374
460.57        15.14963
461.01        15.12966
461.46        15.14998
461.90        15.13021
462.34        15.10973
462.79        15.31875
463.23        15.34286
463.68        15.27154
464.12        15.21355
464.56        15.19306
465.01        15.24558
465.45        15.29241
465.89        15.21097
466.34        15.05081
466.78        14.89752
467.22        14.77402
467.67        15.02863
468.11        14.99582
468.55        15.04171
468.99        14.97461
469.44        14.95957
469.88        14.99379
470.32        14.97146
470.77        14.91606
471.21        14.91334
471.65        14.97516
472.10        15.07586
472.54        15.18046
472.98        15.25825
473.42        15.30217
473.87        15.27918
474.31          15.219
474.75        15.31039
475.20        15.50506
475.64        15.50266
476.08        15.31767
476.52        15.26604
476.97        15.36964
477.41        15.31886
477.85        15.25402
478.29        15.36949
478.74        15.27437
479.18         15.1512
479.62        15.38881
480.06        15.42769
480.50        15.43042
480.95        15.39447
481.39        15.31227
481.83        15.50401
482.27        15.50452
482.72         15.4348
483.16        15.64052
483.60           15.68
484.04        15.66051
484.48        15.71787
484.93        15.98252
485.37        15.82354
485.81         15.8938
486.25        16.48066
486.69        16.12322
487.14        15.59334
487.58        16.56799
488.02        16.45007
488.46        16.54062
488.90        16.85982
489.34         16.2849
489.79        16.11864
490.23         16.6031
490.67        16.85152
491.11        16.97025
491.55        16.93677
491.99        16.82447
492.43        16.84872
492.88        17.02348
493.32        17.17212
493.76        17.27362
494.20        17.43019
494.64        17.64858
495.08        17.84082
495.52        17.98756
495.96        18.21485
496.41        18.49743
496.85        18.36852
497.29        17.98855
497.73        18.06574
498.17        18.54133
498.61        18.83173
499.05        18.83992
499.49        18.83605
499.93        18.87091
500.37        18.91612
500.82        18.98306
501.26        19.12086
501.70        19.34208
502.14        19.23415
502.58        19.47675
503.02        19.55098
503.46        19.57664
503.90         19.5861
504.34        19.57647
504.78        19.60503
505.22        19.67044
505.66        19.72298
506.10        19.77239
506.54        19.88751
506.98        20.07062
507.42        20.20301
507.86        20.40555
508.30        20.49258
508.74        20.50035
509.18        20.44181
509.62        20.36243
510.06        20.33498
510.50        20.37801
510.94        20.47147
511.38        20.58578
511.82        20.67224
512.26        20.71568
512.70         20.7343
513.14        20.74008
513.58        20.74246
514.02        20.74759
514.46        20.76425
514.90        20.79895
515.34        20.79095
515.78        20.85975
516.22        20.90651
516.66        20.96089
517.10        21.00819
517.54        21.04494
517.98        21.07242
518.42        21.08614
518.86        21.08427
519.30        21.06673
519.74        21.03199
520.18        20.99313
520.62         20.9696
521.06        20.96709
521.50        20.98742
521.93        21.01008
522.37        20.99204
522.81        20.93013
523.25        20.83144
523.69         20.7405
524.13        20.72779
524.57        20.80031
525.01        20.93187
525.45        21.05303
525.89        21.05415
526.32        20.91289
526.76        20.67748
527.20        20.41762
527.64        20.24813
528.08        20.19914
528.52        20.22949
528.96        20.30162
529.40        20.35612
529.83        20.36812
530.27        20.35958
530.71        20.31869
531.15        20.22527
531.59        20.08513
532.03        19.90514
532.46        19.72609
532.90        19.62913
533.34        19.62755
533.78        19.69995
534.22        19.80468
534.66         19.8751
535.09           19.89
535.53        19.86999
535.97        19.83205
536.41        19.80712
536.85        19.80503
537.28        19.81591
537.72        19.82967
538.16        19.82946
538.60        19.81492
539.04        19.80087
539.47        19.79667
539.91          19.826
540.35        19.88675
540.79        19.97302
541.22        20.07002
541.66        20.15565
542.10        20.22235
542.54        20.27821
542.97         20.3255
543.41         20.3799
543.85        20.44433
544.29        20.51747
544.72        20.60118
545.16        20.71432
545.60        20.85161
546.04        21.00751
546.47        21.17347
546.91        21.33021
547.35        21.46849
547.79         21.5999
548.22        21.71725
548.66        21.80686
549.10        21.88361
549.53        22.02735
549.97        22.22494
550.41        22.37893
550.84        22.48124
551.28        22.59189
551.72         22.7118
552.15        22.81408
552.59        22.90658
553.03        22.98862
553.46        23.07442
553.90         23.2042
554.34        23.37647
554.77        23.58552
555.21         23.7924
555.65        23.93491
556.08        23.97672
556.52        23.99379
556.96         24.0068
557.39        24.08287
557.83        24.21586
558.27        24.28657
558.70        24.30255
559.14        24.36614
559.57        24.47165
560.01        24.59123
560.45         24.6957
560.88        24.72694
561.32        24.73103
561.75        24.77927
562.19        24.87862
562.63        25.02692
563.06        25.16345
563.50        25.10285
563.93        24.90147
564.37        24.86895
564.80        25.01699
565.24        25.19352
565.68        25.36036
566.11        25.51278
566.55        25.64081
566.98        25.76358
567.42        25.87779
567.85        25.90775
568.29        25.90431
568.72         25.9415
569.16        26.03671
569.60        26.19299
570.03         26.4273
570.47        26.48208
570.90        26.65276
571.34         27.0575
571.77        27.11319
572.21        27.04536
572.64        27.28284
573.08        27.22213
573.51        27.62676
573.95        27.73608
574.38         27.7023
574.82        27.73066
575.25        27.87156
575.69        27.82723
576.12        27.76609
576.56        28.23991
576.99        28.38158
577.42        27.91664
577.86        28.04131
578.29        28.35042
578.73        28.13966
579.16        28.08583
579.60        27.84244
580.03        27.71615
580.47        27.73409
580.90        27.59743
581.33        27.73655
581.77        27.73682
582.20        27.48491
582.64        27.34872
583.07        27.17443
583.51        27.10352
583.94        27.18068
584.37        27.10626
584.81        26.85776
585.24        26.70845
585.68        26.75622
586.11        26.35783
586.54        26.33037
586.98        26.38227
587.41        26.64236
587.85        26.20285
588.28        26.14228
588.71        26.22798
589.15         26.4109
589.58        25.92764
590.01        26.37225
590.45        26.27977
590.88        25.81198
591.31        25.79481
591.75        26.12356
592.18        26.26278
592.61        26.14206
593.05        26.40485
593.48          26.538
593.91        25.96198
594.35        26.38004
594.78          26.588
595.21        26.63531
595.65         26.6325
596.08        26.50092
596.51        26.88372
596.94        27.09106
597.38        27.44379
597.81        27.74679
598.24        27.80972
598.68        28.20287
599.11           28.48
599.54        28.83914
599.97        28.66503
600.41        29.34593
600.84        29.57932
601.27        29.76324
601.70        30.02606
602.14        30.12561
602.57        30.76623
603.00        31.42677
603.43        31.87711
603.87        32.19656
604.30        32.31624
604.73        32.73604
605.16        33.32636
605.60        33.61364
606.03        34.08736
606.46        34.50576
606.89        34.87054
607.32        35.25964
607.76        35.70447
608.19         35.9304
608.62        36.26044
609.05        36.65478
609.48        36.88805
609.92        36.94067
610.35        37.58553
610.78        37.98389
611.21        37.95334
611.64         38.5314
612.07        38.71997
612.50        38.90959
612.94        39.17084
613.37        39.56472
613.80        39.69312
614.23        40.17292
614.66        40.39607
615.09        40.54795
615.52        40.84544
615.96        41.31474
616.39        41.31834
616.82        41.56213
617.25        41.98933
617.68        42.09078
618.11        42.25837
618.54        42.35177
618.97         42.6414
619.40        43.03102
619.84        43.48138
620.27        43.49897
620.70        43.50084
621.13        43.35655
621.56        43.79677
621.99        43.74689
622.42        43.73077
622.85        43.87368
623.28        43.89045
623.71        43.93399
624.14        43.95829
624.57        43.99463
625.00        44.32875
625.43        43.92975
625.86        43.89127
626.29        43.93832
626.72        43.61045
627.15        43.52803
627.58        43.34026
628.01        43.29862
628.44         42.8592
628.87        42.63322
629.30        42.70242
629.73        42.12672
630.16        41.61227
630.59        41.48975
631.02        41.26903
631.45        41.06676
631.88        40.78938
632.31        40.44102
632.74        39.84958
633.17        39.45255
633.60        38.98912
634.03        38.59457
634.46        38.24979
634.89         37.9195
635.32        37.52994
635.75        37.06616
636.18         36.5794
636.61        36.11063
637.04        35.67939
637.47        35.31956
637.89        35.10499
638.32        34.96785
638.75        34.74466
639.18        34.41137
639.61        34.04776
640.04        33.68231
640.47        33.34164
640.90         33.0443
641.33        32.77023
641.76        32.51614
642.18        32.35825
642.61        32.16746
643.04        32.04731
643.47        31.95957
643.90        31.90011
644.33         31.8654
644.76        31.85855
645.18         31.8728
645.61        31.89355
646.04        31.92036
646.47        31.95339
646.90        32.02067
647.33        32.16454
647.75        32.39802
648.18        32.72361
648.61        33.08989
649.04         33.4251
649.47        33.72537
649.89        33.95694
650.32        34.19311
650.75        34.71837
651.18        35.46399
651.61        35.97839
652.03        36.22945
652.46        36.58469
652.89        37.13589
653.32        37.51501
653.74        37.92551
654.17        38.75526
654.60        39.27608
655.03        39.49785
655.46        40.39101
655.88        41.40124
656.31         42.2513
656.74        42.64738
657.16        42.74667
657.59        43.13691
658.02         43.2503
658.45        44.04861
658.87        44.16258
659.30        44.65775
659.73        45.05694
660.15        44.91896
660.58        45.49551
661.01        45.89266
661.44        46.45901
661.86        46.66957
662.29        46.62467
662.72        46.95336
663.14        47.60705
663.57        47.95362
664.00        47.98652
664.42        48.13958
664.85        48.43531
665.27        48.65672
665.70        48.80438
666.13        48.97101
666.55        49.16455
666.98         49.3664
667.41        49.57653
667.83        49.78065
668.26        49.96872
668.69        50.16142
669.11        50.35229
669.54        50.52572
669.96        50.68612
670.39        50.80565
670.82        50.92121
671.24        51.13172
671.67        51.41539
672.09        51.65482
672.52        51.82304
672.94        51.89307
673.37        51.89807
673.80        51.93163
674.22        52.02389
674.65        52.09451
675.07        52.16558
675.50        52.29207
675.92        52.46751
676.35         52.6193
676.77        52.73976
677.20        52.87271
677.62        53.03429
678.05        53.11139
678.47        53.30002
678.90        53.44669
679.32         53.6045
679.75        53.77655
680.17        53.95848
680.60        54.14609
681.02        54.31672
681.45        54.43147
681.87        54.49566
682.30        54.48866
682.72        54.45345
683.15        54.52812
683.57        54.70304
684.00        54.75768
684.42        54.72905
684.85        54.85142
685.27        55.12061
685.70        55.40663
686.12        55.64347
686.54        55.80487
686.97        55.85894
687.39        55.82074
687.82        55.74531
688.24        55.61663
688.66        55.73332
689.09        55.83326
689.51        55.98374
689.94        56.12581
690.36        56.24971
690.78        56.36572
691.21        56.46791
691.63        56.53463
692.06        56.57425
692.48        56.60171
692.90        56.62851
693.33        56.66496
693.75        56.71293
694.17         56.7633
694.60        56.84244
695.02        56.96668
695.44        57.11653
695.87        57.42109
696.29        57.77521
696.71        57.69302
697.14        57.28701
697.56        57.35616
697.98        57.84359
698.41        58.06991
698.83        57.99944
699.25        58.05498
699.68        58.25158
700.10        58.40803
700.52        58.49593
700.94        58.78449
701.37        58.82454
701.79        58.88684
702.21        58.83095
702.64        58.69411
703.06        58.53302
703.48        58.46522
703.90        58.52872
704.33        58.68866
704.75        58.89613
705.17        59.04723
705.59        59.10452
706.01        59.06834
706.44        59.00768
706.86        59.09681
707.28        59.17505
707.70         59.4823
708.12         59.8577
708.55        59.76792
708.97        59.30661
709.39        59.46076
709.81        59.79181
710.23        59.99685
710.66        59.91502
711.08        59.96166
711.50        60.11944
711.92        60.19936
712.34         60.2017
712.76        60.17862
713.19        60.14478
713.61        60.16375
714.03        60.23296
714.45         60.3308
714.87        60.44611
715.29        60.56565
715.71        60.68003
716.13        60.79626
716.56        60.88863
716.98        60.96508
717.40        61.01201
717.82        61.06357
718.24        61.12514
718.66        61.18184
719.08        61.23428
719.50        61.29079
719.92        61.36114
720.34        61.44215
720.76        61.53479
721.19        61.65506
721.61        61.76328
722.03        61.74692
722.45        61.59535
722.87        61.35004
723.29        61.10765
723.71        61.01828
724.13        61.12066
724.55        61.37674
724.97        61.68864
725.39        61.89125
725.81        61.93932
726.23        61.87696
726.65        61.78651
727.07         61.8037
727.49        61.95598
727.91        62.18618
728.33        62.41817
728.75        62.52951
729.17        62.48757
729.59        62.34639
730.01        62.14763
730.43        61.95654
730.85        61.80491
731.27        61.66828
731.69        61.58701
732.10        61.63484
732.52        61.81415
732.94        62.10766
733.36        62.40549
733.78        62.57848
734.20        62.60936
734.62        62.34233
735.04        62.04887
735.46        62.20028
735.88        62.72854
736.30        62.74545
736.72        62.33252
737.13        62.40509
737.55        62.89213
737.97         63.2035
738.39        63.22911
738.81        62.89896
739.23        62.38997
739.65        62.47288
740.06        63.03586
740.48         63.2503
740.90        63.05749
741.32         63.0343
741.74        63.12961
742.16        63.21621
742.57        63.26699
742.99        63.36586
743.41        63.48214
743.83        63.45891
744.25        63.33271
744.67        63.31396
745.08         63.4245
745.50        63.48409
745.92         63.4977
746.34         63.5719
746.75        63.67801
747.17        63.69662
747.59        63.60928
748.01        63.48677
748.42        63.37516
748.84        63.21581
749.26        63.06874
749.68        63.23615
750.09        63.60421
750.51        63.58545
750.93         63.2594
751.35        63.31732
751.76        63.73517
752.18        63.92684
752.60        63.86187
753.01        63.89289
753.43        64.00591
753.85        63.99162
754.27        63.83277
754.68        63.87943
755.10        63.65136
755.52        63.66328
755.93        63.78129
756.35        63.98429
756.77        64.17184
757.18        64.34988
757.60        64.53397
758.02        64.38733
758.43        63.93096
758.85        64.62372
759.26          64.687
759.68        64.59681
760.10        63.94051
760.51        63.78712
760.93         64.4966
761.34        63.93383
761.76        64.95605
762.18        64.93617
762.59        64.77853
763.01        64.76237
763.42        64.96622
763.84        64.97103
764.26        64.79346
764.67        64.72829
765.09        64.79283
765.50        64.81077
765.92        64.78669
766.33        64.69545
766.75        64.55537
767.16        64.58921
767.58        64.76014
768.00        65.04569
768.41        65.36667
768.83        65.37264
769.24        65.10358
769.66         65.0639
770.07        65.20244
770.49        65.00439
770.90        64.57279
771.32        64.56123
771.73        64.94488
772.15        65.13696
772.56        65.11835
772.97        65.20124
773.39        65.35703
773.80        65.44025
774.22        65.43162
774.63        65.45344
775.05        65.49251
775.46        65.54864
775.88         65.5996
776.29        65.69141
776.70        65.79893
777.12        65.87539
777.53        65.92625
777.95        65.94426
778.36        65.94393
778.77        65.93179
779.19        65.91783
779.60        65.91418
780.02        65.90808
780.43        65.92836
780.84        65.96258
781.26        65.93205
781.67        65.92845
782.09        66.11941
782.50        66.29414
782.91        66.74988
783.33        65.83749
783.74        65.74304
784.15        65.99898
784.57        66.21604
784.98        66.33233
785.39        66.45158
785.81        66.56686
786.22        66.65988
786.63         66.7403
787.04        66.81855
787.46        66.91148
787.87        67.01988
788.28        67.09483
788.70        67.07899
789.11        66.95933
789.52        66.67481
789.93        66.35742
790.35        66.44138
790.76        66.87516
791.17        67.03053
791.58        66.88691
792.00        66.91699
792.41        67.13731
792.82         67.2154
793.23        67.18101
793.65        67.23945
794.06        67.40253
794.47        67.61925
794.88         67.8177
795.29        67.68018
795.71        67.60883
796.12        67.29952
796.53        66.97045
796.94        66.84825
797.35        66.96755
797.76        67.14959
798.18        67.34249
798.59        67.56276
799.00        67.78093
799.41         67.9453
799.82        68.03098
800.23        68.04573
800.64        67.99174
801.06        67.84306
801.47         67.6819
801.88        67.57584
802.29        67.55506
802.70        67.61693
803.11         67.7277
803.52        67.81802
803.93        67.86388
804.34        67.87489
804.75        67.89314
805.17         67.9636
805.58        68.11401
805.99        68.34253
806.40        68.56248
806.81        68.52113
807.22        68.24496
807.63        68.02908
808.04        67.92509
808.45        67.80554
808.86        67.69468
809.27        67.70402
809.68        67.81718
810.09        67.93208
810.50        68.02448
810.91        68.12199
811.32        68.20849
811.73        68.26202
812.14        68.27998
812.55        68.24109
812.96         68.1681
813.37        68.15726
813.78        68.20338
814.19        68.19286
814.60        68.14163
815.01        68.15921
815.42        68.25285
815.83        68.36951
816.24        68.48447
816.65        68.57997
817.05        68.64449
817.46        68.63977
817.87        68.63001
818.28        68.66919
818.69        68.77103
819.10        68.93015
819.51        69.09663
819.92        69.17736
820.33        69.15059
820.74        69.03881
821.14        68.92028
821.55         68.9552
821.96        69.14993
822.37        69.45684
822.78        69.76559
823.19        69.87689
823.60        69.73633
824.00        69.43607
824.41         69.0324
824.82        68.70383
825.23        68.51254
825.64        68.41487
826.04        68.44054
826.45        68.59666
826.86        68.87185
827.27        69.26798
827.68        69.67094
828.08        69.91445
828.49        69.89029
828.90        69.66639
829.31        69.38271
829.72        69.29239
830.12        69.47949
830.53        69.82587
830.94        70.20583
831.35        70.37358
831.75        70.27779
832.16        69.95234
832.57        69.52888
832.97        69.20106
833.38         69.0385
833.79         68.9981
834.20        69.02576
834.60        69.03325
835.01         69.0065
835.42        68.97218
835.82        68.98272
836.23        69.04502
836.64        69.18489
837.04        69.39765
837.45        69.59251
837.86        69.72662
838.26        69.79356
838.67        69.79191
839.08        69.76648
839.48        69.77908
839.89        69.84106
840.29          69.919
840.70        69.99498
841.11        70.04182
841.51        70.06916
841.92        70.07172
842.33        70.02708
842.73        69.88971
843.14        69.62326
843.54        69.27094
843.95         68.9642
844.35        68.93135
844.76        69.19925
845.17        69.69993
845.57        70.24504
845.98        70.48024
846.38        70.34286
846.79        69.91747
847.19        69.39576
847.60        69.05664
848.00        69.00978
848.41        69.12534
848.81        69.35393
849.22          69.544
849.62         69.6643
850.03        69.73812
850.43        69.74126
850.84        69.54388
851.24        69.18353
851.65        68.63483
852.05        68.09275
852.46        67.83301
852.86        67.93609
853.27        68.33434
853.67        68.78889
854.07        69.13306
854.48        69.28447
854.88        69.32762
855.29        69.24663
855.69        69.20487
856.10        69.15705
856.50         69.1199
856.90        69.03705
857.31        68.85911
857.71        68.63407
858.12        68.36041
858.52        68.11563
858.92        67.88655
859.33        67.67613
859.73        67.51595
860.13        67.44003
860.54        67.52614
860.94         67.7997
861.34        68.18243
861.75        68.52293
862.15        68.65732
862.55          68.515
862.96        68.16351
863.36        67.67656
863.76        67.17973
864.17        66.73507
864.57        66.33892
864.97        66.04905
865.38        65.92612
865.78        66.01761
866.18        66.30289
866.58        66.66141
866.99        66.87321
867.39        66.89851
867.79        66.75124
868.19        66.56051
868.60          66.507
869.00        66.61637
869.40        66.85122
869.80        67.10935
870.21        67.20979
870.61        67.16957
871.01        67.00954
871.41        66.80391
871.81        66.64597
872.22        66.54182
872.62        66.48352
873.02        66.49342
873.42        66.60195
873.82        66.80063
874.22        67.08485
874.63          67.384
875.03        67.57542
875.43         67.6451
875.83        67.60842
876.23        67.55516
876.63        67.64146
877.03        67.89722
877.44         68.2682
877.84         68.6265
878.24        68.73591
878.64        68.54426
879.04        68.12769
879.44        67.66208
879.84        67.39035
880.24        67.35873
880.64        67.50856
881.04        67.68479
881.44        67.61896
881.84        67.25202
882.24        66.67231
882.65        66.06506
883.05        65.83675
883.45          66.033
883.85        66.52077
884.25        67.07999
884.65        67.38924
885.05        67.36755
885.45        67.11423
885.85         66.7468
886.25        66.47103
886.65        66.36848
887.05        66.37966
887.45        66.45204
887.85        66.51138
888.25         66.5244
888.65        66.50984
889.04         66.4895
889.44        66.53358
889.84        66.62806
890.24        66.74933
890.64        66.81684
891.04        66.71311
891.44         66.4361
891.84        66.04932
892.24        65.67951
892.64        65.51899
893.04        65.61801
893.44        65.91945
893.83        66.36292
894.23        66.78044
894.63        67.12945
895.03        67.42168
895.43         67.6498
895.83        67.80872
896.23        67.89619
896.63        67.90573
897.02        67.82819
897.42        67.69083
897.82        67.50755
898.22        67.30973
898.62        67.14655
899.01        67.10109
899.41        67.17545
899.81        67.34486
900.21        67.59354
900.61        67.88895
901.00        68.18646
901.40        68.50099
901.80        68.73521
902.20        68.75774
902.59        68.56826
902.99        68.19473
903.39        67.79484
903.79        67.62116
904.18        67.72863
904.58        68.04189
904.98        68.41969
905.38         68.6552
905.77          68.679
906.17        68.54752
906.57        68.32288
906.96         68.1328
907.36        68.00201
907.76        67.92426
908.15        67.83856
908.55        67.57804
908.95        67.16346
909.34        66.64619
909.74        66.24541
910.14        66.22833
910.53        66.63937
910.93        67.36215
911.33        68.16431
911.72        68.64968
912.12        68.68742
912.52        68.42036
912.91        68.01101
913.31        67.71883
913.70        67.61518
914.10        67.60709
914.49        67.69373
914.89          67.824
915.29        67.97617
915.68        68.16442
916.08        68.33165
916.47        68.36779
916.87        68.27316
917.26        68.06266
917.66        67.80839
918.05        67.59853
918.45        67.45813
918.84        67.38696
919.24        67.36884
919.64        67.45344
920.03        67.65119
920.42        67.94621
920.82        68.25948
921.21        68.45541
921.61        68.49193
922.00        68.39744
922.40        68.28371
922.79        68.42232
923.19        68.82201
923.58        69.42634
923.98        69.97195
924.37        70.12576
924.77        69.81087
925.16        69.11498
925.55         68.3082
925.95        67.85586
926.34        67.88866
926.74        68.26701
927.13        68.75803
927.52        68.88503
927.92        68.56635
928.31        67.95443
928.70        67.31213
929.10        67.02594
929.49        67.18385
929.89        67.62096
930.28        68.19493
930.67          68.551
931.07        68.56107
931.46        68.36684
931.85        68.04173
932.24        67.73194
932.64        67.49551
933.03         67.2746
933.42        67.11845
933.82        67.10899
934.21        67.25956
934.60        67.58883
934.99        67.96544
935.39         68.1348
935.78        68.06612
936.17        67.78401
936.56        67.51127
936.96        67.62415
937.35        68.22487
937.74        69.13778
938.13        70.00868
938.53         70.3362
938.92        70.03294
939.31        69.23595
939.70        68.27755
940.09        67.74575
940.49        67.79203
940.88        68.27992
941.27        68.88227
941.66        69.09811
942.05        68.81618
942.44        68.21719
942.84        67.57619
943.23        67.26652
943.62        67.42825
944.01        67.92549
944.40        68.56413
944.79        69.01379
945.18        69.13799
945.57        69.00643
945.97        68.71053
946.36        68.46854
946.75        68.29382
947.14        68.12208
947.53        67.85153
947.92        67.32635
948.31        66.56232
948.70         65.6989
949.09        64.91016
949.48        64.42955
949.87        64.32352
950.26        64.51268
950.65        64.95287
951.04        65.57251
951.43        66.29872
951.82        67.11326
952.21        67.85683
952.60        68.26569
952.99         68.2636
953.38        67.89873
953.77        67.33776
954.16        66.86254
954.55        66.55467
954.94        66.35209
955.33        66.18561
955.72        65.92572
956.11        65.53776
956.50        65.09103
956.89         64.6323
957.28        64.22101
957.66        63.92422
958.05        63.72433
958.44        63.63129
958.83        63.65751
959.22        63.78476
959.61        63.96748
960.00        64.21249
960.39        64.53722
960.78        64.91187
961.16        65.34272
961.55        65.61803
961.94        65.48785
962.33        64.92958
962.72        64.07523
963.11        63.20656
963.49        62.73052
963.88        62.74409
964.27        63.14231
964.66        63.77338
965.04        64.36201
965.43        64.70638
965.82        64.90912
966.21         65.0088
966.60        65.08984
966.98        65.18087
967.37        65.18618
967.76        65.11874
968.15        65.00187
968.53         64.8788
968.92        64.82618
969.31        64.78956
969.69        64.64615
970.08        64.39626
970.47          64.072
970.86        63.99288
971.24        64.70396
971.63        66.14984
972.02         68.0611
972.40        69.90425
972.79        70.82488
973.17        70.78211
973.56        69.95496
973.95        68.77334
974.33        67.97947
974.72        67.83156
975.11         68.1096
975.49        68.55825
975.88        68.77522
976.26        68.62701
976.65        68.27234
977.04        67.77689
977.42         67.2105
977.81        66.58759
978.19         65.8233
978.58        65.18362
978.96        65.07195
979.35        65.53852
979.74        66.53279
980.12        67.63091
980.51        67.90393
980.89        67.26727
981.28        65.85964
981.66        64.31901
982.05        63.87544
982.43        64.82259
982.82        66.71768
983.20        68.83892
983.59        69.92213
983.97        69.75035
984.35        68.64284
984.74        67.09779
985.12        65.98908
985.51        65.64604
985.89        65.84453
986.28        66.33009
986.66         66.8373
987.04        67.20758
987.43         67.4763
987.81         67.7298
988.20        67.99583
988.58        68.28805
988.96        68.56042
989.35        68.47181
989.73        67.59682
990.12        65.82293
990.50        63.16764
990.88        60.32237
991.27        58.93331
991.65        59.56842
992.03        61.75255
992.42        64.17213
992.80        65.50404
993.18        65.38436
993.56         64.1288
993.95        62.33195
994.33        61.32539
994.71        61.82895
995.10         63.1227
995.48        64.57804
995.86        65.46944
996.24        65.71612
996.63        65.53573
997.01        65.20671
997.39        65.16537
997.77        65.58237
998.15        66.29181
998.54        66.87257
998.92        66.81331
999.30        66.03169
999.68        64.70001
1000.06          63.368
1000.45        62.98052
1000.83        63.84612
1001.21        65.58604
1001.59        67.51773
1001.97        68.65861
1002.35        68.77737
1002.73        68.14599
1003.12         67.0956
1003.50        66.22023
1003.88        65.88898
1004.26        65.84843
1004.64        66.04195
1005.02        66.40696
1005.40        66.89411
1005.78         67.6291
1006.16        68.31651
1006.54        68.38887
1006.92         67.7253
1007.30        66.41095
1007.69        65.12926
1008.07        64.91048
1008.45        66.03445
1008.83        68.17758
1009.21        70.39598
1009.59        71.32818
1009.97        70.62576
1010.35        68.43249
1010.73        65.59139
1011.11        64.29685
1011.49        65.47247
1011.86        68.50774
1012.24        71.63767
1012.62        72.66132
1013.00        71.25962
1013.38        68.31433
1013.76        64.92333
1014.14        62.89973
1014.52        62.84921
1014.90        64.08936
1015.28        66.39679
1015.66         69.2381
1016.04        72.02179
1016.41        74.93632
1016.79        76.77229
1017.17        76.14863
1017.55         73.0767
1017.93        68.06439
1018.31        62.80148
1018.69        59.99813
1019.06        60.45438
1019.44        63.73767
1019.82        68.65101
1020.20         72.3351
1020.58        73.48406
1020.95        72.73598
1021.33        71.25005
1021.71        70.60474
1022.09        71.08144
1022.46        72.01912
1022.84        72.71106
1023.22        71.83534
1023.60        68.91118
1023.97        64.08412
1024.35        58.31351
1024.73        53.54969
