SpectraSmart Spectrum 2.9.0.0
--------- Device Information -----------
Spectrum Name :  反射率_0
Saving Time :  2024/04/27 23:34:59
Spectro-Module Model Name : SE2030-DUVN
Spectro-Module Serial Number : OS361AC55029948
Wavelength Start : 200
Wavelength End : 1025
Wavelength Unit : Wavelength(nm)
Spectrum Unit : Reflectance(%)
-----------Spectrum Setting ------------
Integration Time : 20ms
Average : 10
Boxcar : 0
Background removal :  enabled
linearity correction :  enabled
SC :  disabled
Intensity correction :  disabled
DWT denoise :  enabled
savitzky-golay :  disabled
FFT :  disabled
Running average :  disabled
Kalman :  disabled
High pass :  disabled
---------------BEGIN--------------------
Wavelength(nm)             Reflectance(%)
200.29               0
200.75        33.45645
201.21        62.30581
201.67        82.69077
202.13        88.29563
202.58         84.5297
203.04        76.25624
203.50        68.74731
203.96        69.46717
204.42        77.65208
204.88        88.34686
205.34        97.97485
205.80        104.1119
206.26        106.9192
206.72        107.6286
207.18        104.3628
207.64        94.51542
208.10        83.16792
208.55        75.72861
209.01        71.05523
209.47        66.23705
209.93        58.41472
210.39        41.11282
210.85        -6.82613
211.31       -53.95936
211.77        22.84055
212.23        66.78368
212.69        81.00937
213.14        84.89709
213.60        83.46424
214.06        77.78822
214.52        65.98259
214.98        53.77341
215.44        51.93239
215.90        55.88787
216.36         61.0915
216.81        65.95382
217.27         70.4338
217.73        75.29298
218.19        79.38972
218.65        80.21873
219.11        76.93295
219.57        69.75252
220.02        59.43584
220.48        50.62376
220.94        45.90201
221.40        44.52965
221.86        45.85746
222.32        48.70404
222.77        52.19306
223.23        56.12325
223.69        59.19322
224.15        59.87637
224.61        58.24907
225.06        54.52627
225.52        50.47797
225.98        49.22802
226.44        50.98317
226.90         53.8462
227.36        56.09168
227.81        56.33154
228.27        54.65369
228.73        51.54155
229.19        47.46425
229.65        43.62678
230.10        40.73968
230.56        38.88392
231.02        37.75466
231.48        36.95922
231.93        36.27036
232.39        35.84487
232.85        35.88243
233.31        36.63902
233.77        38.01865
234.22        39.92508
234.68        41.51831
235.14        41.84098
235.60        40.76233
236.05        38.28612
236.51        35.67685
236.97        35.65189
237.43        39.10667
237.88        45.37316
238.34          51.736
238.80        55.38904
239.26        55.72205
239.71        52.46474
240.17        46.07748
240.63        43.46621
241.08        49.91806
241.54        59.89325
242.00        67.66442
242.46        71.48872
242.91        72.48325
243.37        71.03614
243.83        66.22413
244.28        59.71445
244.74        59.39052
245.20        65.26036
245.66        70.39922
246.11        71.87918
246.57        70.55999
247.03         67.3287
247.48        63.41888
247.94        65.45612
248.40          76.494
248.85        90.06763
249.31        101.1459
249.77        106.7758
250.22        107.8904
250.68        106.7029
251.14        104.0074
251.59        99.99149
252.05        94.26443
252.51        85.11284
252.96        72.33396
253.42        62.55267
253.88        60.91244
254.33        65.14141
254.79        69.59931
255.25        69.59159
255.70        65.88538
256.16        61.19426
256.62        57.50394
257.07        56.95363
257.53        59.04818
257.99        61.63784
258.44         63.2818
258.90        63.21167
259.35         61.3778
259.81        58.91865
260.27        56.15483
260.72         53.4955
261.18        51.42242
261.63        49.55621
262.09        48.07217
262.55        46.81531
263.00        45.65847
263.46        44.73402
263.91        43.90092
264.37        43.26611
264.83         42.7393
265.28        42.23775
265.74        41.75531
266.19        41.12516
266.65        40.38198
267.11        39.53675
267.56        38.58699
268.02        37.63096
268.47        36.67375
268.93        35.71619
269.38        34.82695
269.84        34.13137
270.30        33.62668
270.75         33.2651
271.21        32.89428
271.66        32.23576
272.12        31.26592
272.57         30.0555
273.03        28.80917
273.48        27.77122
273.94        27.06219
274.39        26.58011
274.85        26.25968
275.31        25.94556
275.76        25.57084
276.22        25.18338
276.67        24.79319
277.13        24.48581
277.58         24.2222
278.04        24.00449
278.49        23.70261
278.95        23.22735
279.40        22.54767
279.86        21.77975
280.31        21.03976
280.77        20.59097
281.22        20.43619
281.68        20.50936
282.13        20.66175
282.59        20.71174
283.04        20.61018
283.50        20.42912
283.95        20.22239
284.41        20.09552
284.86        20.06626
285.32        20.10604
285.77         20.1806
286.22        20.27203
286.68        20.38149
287.13        20.48678
287.59        20.60833
288.04        20.70726
288.50         20.8018
288.95        20.87437
289.41        20.93898
289.86        20.98112
290.32        21.02489
290.77         21.0797
291.22        21.17918
291.68        21.36511
292.13        21.64922
292.59        22.04629
293.04        22.55325
293.50        23.17988
293.95        23.91863
294.40        24.78083
294.86         25.7659
295.31        26.86285
295.77        28.07879
296.22        29.40444
296.68        30.84207
297.13        32.36364
297.58        33.95375
298.04        35.59839
298.49        37.29422
298.95        39.08231
299.40        40.96907
299.85        42.94903
300.31        45.01748
300.76        47.10013
301.21        49.17515
301.67         51.2726
302.12        53.34882
302.58        55.42336
303.03        57.48511
303.48        59.55423
303.94        61.73446
304.39         64.1007
304.84        66.67451
305.30        69.41825
305.75        72.16782
306.20         74.7636
306.66        77.18475
307.11        79.43171
307.57        81.60155
308.02        83.72554
308.47        85.83346
308.93        87.89243
309.38        89.85445
309.83        91.76254
310.29        93.64392
310.74        95.48395
311.19        97.24513
311.65        98.82664
312.10        100.1743
312.55        101.3177
313.00        102.3673
313.46        103.5129
313.91        104.7754
314.36        106.1168
314.82        107.3977
315.27        108.3812
315.72        109.0229
316.18        109.4277
316.63        109.7335
317.08        110.1997
317.53        110.8931
317.99         111.718
318.44        112.5957
318.89        113.3699
319.35        113.9814
319.80        114.4961
320.25        114.9046
320.70        115.1971
321.16         115.383
321.61        115.4811
322.06        115.5813
322.51        115.8484
322.97        116.2976
323.42        116.9307
323.87        117.6067
324.32        118.1055
324.78        118.3496
325.23        118.4377
325.68        118.4652
326.13        118.6296
326.59        118.9573
327.04        119.4374
327.49          119.96
327.94        120.3863
328.39        120.6781
328.85        120.8524
329.30        121.0403
329.75        121.2789
330.20        121.5957
330.66        121.9249
331.11        122.3348
331.56        122.8095
332.01        123.3495
332.46        123.9631
332.92         124.539
333.37        125.0541
333.82        125.4294
334.27        125.6842
334.72        125.9221
335.17        126.3254
335.63        126.9062
336.08        127.6712
336.53        128.4702
336.98        129.1013
337.43        129.5077
337.88        129.7515
338.34        129.9125
338.79        130.1874
339.24        130.6105
339.69        131.1332
340.14        131.6953
340.59        132.2017
341.05        132.6219
341.50         132.995
341.95        133.3489
342.40        133.7376
342.85        134.1754
343.30        134.6356
343.75        135.0818
344.20        135.4633
344.66        135.7686
345.11        136.0049
345.56         136.202
346.01        136.3992
346.46        136.6119
346.91        136.8399
347.36        137.0616
347.81        137.2411
348.26        137.3744
348.72        137.4726
349.17        137.5766
349.62        137.7768
350.07        138.0716
350.52        138.4184
350.97        138.7148
351.42        138.8018
351.87        138.6457
352.32        138.2987
352.77        137.8494
353.22        137.4386
353.67        137.1026
354.13        136.8069
354.58        136.4837
355.03        136.0912
355.48        135.6077
355.93        135.0587
356.38        134.4315
356.83        133.6993
357.28        132.8688
357.73        131.9554
358.18        131.0116
358.63        130.1165
359.08        129.2948
359.53         128.539
359.98          127.81
360.43        127.0416
360.88        126.2141
361.33        125.3361
361.78        124.4616
362.23        123.6696
362.68         122.967
363.13        122.3412
363.58        121.6988
364.03        120.7967
364.48        119.7716
364.93         118.564
365.38        117.3306
365.83        116.2395
366.28        115.3363
366.73        114.5618
367.18        113.8581
367.63        113.1349
368.08        112.3553
368.53        111.5499
368.98        110.7098
369.43        109.8153
369.88        108.8748
370.33        107.8952
370.78        106.9205
371.23        106.0302
371.68        105.2413
372.13        104.5264
372.58        103.8617
373.03        103.2047
373.48        102.5342
373.93        101.8645
374.38        101.1628
374.83        100.3743
375.28        99.49976
375.72        98.54276
376.17        97.61321
376.62        96.81403
377.07        96.16859
377.52        95.63229
377.97        95.15131
378.42        94.63971
378.87        94.07031
379.32        93.47853
379.77        92.85764
380.22        92.18934
380.67        91.48177
381.11        90.74416
381.56        90.03683
382.01        89.47817
382.46        89.09965
382.91        88.87046
383.36        88.71216
383.81        88.49579
384.26        88.17783
384.71        87.78185
385.15        87.33411
385.60        86.94212
386.05        86.60593
386.50        86.29623
386.95        85.96777
387.40        85.56199
387.85        85.07998
388.29        84.50833
388.74        83.99661
389.19        83.54984
389.64        83.16373
390.09        82.80292
390.54        82.44495
390.98        82.03964
391.43        81.63912
391.88        81.26257
392.33        80.87704
392.78         80.5129
393.23        80.20363
393.67        79.73436
394.12        79.23254
394.57        79.50537
395.02         79.2903
395.47        79.19617
395.91        78.87542
396.36        78.62963
396.81        78.48412
397.26         78.3144
397.71        78.07825
398.15        77.79216
398.60         77.5462
399.05        77.05585
399.50        76.51582
399.95        76.64645
400.39        77.24078
400.84        77.20457
401.29        76.50097
401.74        75.75494
402.18        75.19203
402.63         75.0049
403.08         75.1497
403.53        75.09906
403.97        74.82709
404.42        74.76971
404.87        74.86563
405.32        74.85134
405.76        74.69557
406.21        74.34641
406.66        73.93359
407.11        73.94222
407.55        74.27522
408.00        74.23455
408.45        73.78905
408.90        73.21437
409.34        72.68996
409.79        72.59628
410.24        72.84822
410.68        72.89334
411.13        72.69201
411.58        72.61683
412.03        72.67902
412.47        72.70935
412.92        72.67332
413.37        72.63759
413.81        72.59142
414.26        72.57372
414.71        72.57257
415.15        72.59606
415.60        72.61185
416.05        72.63107
416.49        72.65849
416.94        72.68043
417.39        72.70505
417.83        72.74268
418.28        72.78383
418.73        72.80444
419.17        72.80406
419.62        72.78735
420.07        72.76578
420.51        72.75069
420.96        72.71682
421.41         72.6185
421.85        72.43793
422.30        72.10709
422.74        71.76064
423.19        72.00047
423.64         72.7114
424.08        73.14907
424.53        73.12117
424.98        73.18797
425.42        73.36568
425.87        73.03721
426.31        72.42294
426.76         72.5968
427.21        73.41914
427.65        73.50729
428.10        72.86411
428.54        72.94328
428.99        73.15453
429.44        73.45805
429.88        73.57005
430.33        73.50852
430.77        73.29271
431.22        73.36501
431.66        73.71053
432.11        73.92647
432.56        74.06236
433.00        74.35062
433.45        74.49818
433.89        74.54412
434.34        74.62492
434.78        73.16022
435.23        73.05381
435.67        73.67561
436.12        74.46841
436.57        74.80338
437.01        74.48881
437.46        74.29169
437.90        74.65582
438.35        75.84721
438.79        75.34005
439.24        75.42884
439.68        75.39983
440.13        75.27399
440.57        75.12525
441.02        75.36855
441.46        75.88371
441.91        75.89973
442.35        75.47736
442.80         75.7549
443.24        76.53484
443.69        76.57005
444.13        75.92958
444.58        75.73766
445.02        76.00148
445.47        76.16979
445.91        76.20988
446.36        76.32491
446.80        76.47944
447.24        76.69244
447.69        76.91913
448.13        76.92497
448.58        76.77073
449.02        76.76111
449.47        76.92341
449.91        77.01444
450.36        77.05543
450.80        77.16133
451.25        77.32156
451.69        77.43291
452.13         77.4663
452.58        77.38512
453.02        77.21309
453.47        77.03045
453.91        76.85012
454.36        76.75475
454.80         76.6535
455.24        76.28019
455.69        75.79316
456.13        75.43449
456.58        75.30673
457.02         75.6338
457.46        76.06878
457.91        75.76907
458.35        75.09759
458.79        74.73306
459.24        74.82384
459.68        74.77848
460.13        74.60347
460.57        74.43813
461.01        74.66988
461.46        74.09514
461.90        74.47895
462.34        74.17375
462.79        74.51433
463.23        74.32081
463.68        73.95138
464.12        73.73312
464.56         73.7183
465.01        73.96668
465.45        74.20482
465.89        74.08118
466.34         73.7009
466.78        73.29899
467.22        72.91723
467.67        73.37777
468.11         72.8932
468.55        72.83791
468.99        72.69192
469.44        72.61137
469.88        72.58209
470.32        72.50818
470.77        72.39792
471.21         72.2972
471.65        72.21076
472.10        72.13933
472.54        72.05098
472.98        71.98024
473.42        71.93981
473.87          71.817
474.31        71.63351
474.75        71.82007
475.20        72.21701
475.64        72.08955
476.08        71.51564
476.52        71.30224
476.97        71.48837
477.41        71.65813
477.85        71.31753
478.29        71.71546
478.74        71.49056
479.18        70.73961
479.62        71.30943
480.06        71.21709
480.50        71.13832
480.95         71.0953
481.39        71.02777
481.83        71.24162
482.27        71.18864
482.72        70.78846
483.16          71.043
483.60        70.84102
484.04        70.80465
484.48        70.76482
484.93         70.9558
485.37        71.02538
485.81        70.64041
486.25        71.99037
486.69        72.48345
487.14        72.23454
487.58        70.99229
488.02        71.13048
488.46        71.21288
488.90        71.11304
489.34        70.49556
489.79        70.35793
490.23        70.54802
490.67        70.43342
491.11        70.03009
491.55         69.8984
491.99        70.01467
492.43        69.97292
492.88        69.76299
493.32        69.63091
493.76        69.59821
494.20         69.6488
494.64         69.7989
495.08        69.95287
495.52        70.09296
495.96        70.40559
496.41        70.74722
496.85        70.59834
497.29        70.07699
497.73        69.83036
498.17        69.84375
498.61        70.20319
499.05        70.63598
499.49        70.56036
499.93        70.04533
500.37        69.54901
500.82        69.19318
501.26        69.25117
501.70         69.7859
502.14        69.14501
502.58        69.75291
503.02        69.83392
503.46        69.80208
503.90        69.70581
504.34        69.52458
504.78        69.46784
505.22        69.50418
505.66         69.4923
506.10        69.45489
506.54        69.47817
506.98        69.47563
507.42        69.80113
507.86        69.37368
508.30         69.3485
508.74        69.42528
509.18        69.47144
509.62        69.44997
510.06        69.38084
510.50        69.27251
510.94        69.12102
511.38        68.96914
511.82        68.88091
512.26        68.86901
512.70        68.91321
513.14        68.99499
513.58         69.0584
514.02        69.08868
514.46        69.13483
514.90        69.18653
515.34        69.04042
515.78         69.1108
516.22        68.84544
516.66        68.82901
517.10        68.81271
517.54        68.93253
517.98        69.14143
518.42        69.36506
518.86         69.4837
519.30        69.46202
519.74        69.34368
520.18         69.1783
520.62        69.04467
521.06        68.97265
521.50        68.94135
521.93        68.94692
522.37        68.96965
522.81        69.00307
523.25        69.04713
523.69        69.09202
524.13        69.11887
524.57        69.12031
525.01        69.09949
525.45        69.04655
525.89        68.94891
526.32        68.80874
526.76          68.652
527.20        68.51198
527.64        68.44897
528.08        68.47306
528.52        68.55931
528.96        68.67859
529.40        68.78276
529.83        68.84618
530.27        68.89571
530.71        68.90958
531.15        68.86495
531.59        68.76824
532.03        68.62798
532.46         68.4911
532.90        68.45814
533.34        68.53742
533.78        68.69452
534.22        68.86951
534.66        68.96899
535.09         68.9604
535.53        68.89449
535.97        68.78378
536.41        68.66574
536.85        68.55942
537.28        68.45593
537.72        68.37577
538.16         68.3435
538.60        68.36299
539.04         68.4435
539.47        68.52931
539.91        68.57024
540.35        68.53729
540.79        68.46017
541.22        68.36285
541.66        68.29628
542.10        68.27122
542.54        68.26888
542.97        68.27359
543.41        68.30077
543.85        68.33363
544.29        68.37996
544.72        68.40564
545.16        68.39233
545.60        68.32417
546.04         68.2011
546.47        68.07324
546.91        68.03967
547.35        68.10797
547.79        68.23874
548.22        68.34304
548.66        68.35229
549.10        68.24438
549.53        68.06538
549.97         67.8939
550.41        67.86722
550.84         67.9854
551.28        68.12798
551.72        68.24437
552.15        68.30453
552.59        68.29071
553.03        68.27131
553.46        68.13314
553.90         68.0202
554.34        67.86426
554.77        67.94784
555.21        68.23609
555.65         67.5993
556.08        67.92885
556.52        67.82489
556.96         67.8407
557.39          67.952
557.83        68.11893
558.27        68.06765
558.70        67.83714
559.14        67.76344
559.57        67.84751
560.01          67.996
560.45        68.11384
560.88         68.0255
561.32        67.84009
561.75        67.74242
562.19        67.78217
562.63        67.97164
563.06        68.19482
563.50        68.02605
563.93        67.55927
564.37        67.49629
564.80        67.78852
565.24        67.90013
565.68        67.80186
566.11        67.79606
566.55        67.90202
566.98        67.93488
567.42         67.9162
567.85        67.91846
568.29        67.99698
568.72        67.97143
569.16        67.91895
569.60        68.05067
570.03        68.40334
570.47        68.17478
570.90        68.19907
571.34        68.78394
571.77        68.65514
572.21        68.43089
572.64        68.80875
573.08         68.4339
573.51         68.3615
573.95        68.38219
574.38        68.67804
574.82        68.63931
575.25         68.8489
575.69        68.66309
576.12        68.70686
576.56        68.58883
576.99        68.10378
577.42        68.41366
577.86        68.73992
578.29        68.97337
578.73        68.87294
579.16        68.75716
579.60        68.59592
580.03        68.40183
580.47        68.11561
580.90        68.81496
581.33        68.80965
581.77        68.90295
582.20        69.19273
582.64         69.0713
583.07        69.07436
583.51        68.70459
583.94        68.37366
584.37        68.22182
584.81        68.37458
585.24        68.50746
585.68        68.60651
586.11        68.72205
586.54        68.66061
586.98        68.57373
587.41        68.44174
587.85        68.05598
588.28        68.29882
588.71        68.27592
589.15        68.52022
589.58        67.84065
590.01        68.44176
590.45        68.36237
590.88        67.82473
591.31        67.65853
591.75        67.71133
592.18        67.65804
592.61        67.76538
593.05        67.78173
593.48        68.64861
593.91        68.66119
594.35        68.08335
594.78        68.12587
595.21        67.68012
595.65        67.64483
596.08        67.59558
596.51        68.04557
596.94        67.70775
597.38        67.79982
597.81         68.0134
598.24        67.71424
598.68        67.96369
599.11        67.57047
599.54        67.93011
599.97         67.7108
600.41        68.04694
600.84        68.07506
601.27        68.03622
601.70        67.71653
602.14        67.45074
602.57        67.67742
603.00        67.72565
603.43        67.88136
603.87        67.86471
604.30         67.6917
604.73        68.15218
605.16        67.73132
605.60        67.68124
606.03        67.72031
606.46         68.0733
606.89        68.03314
607.32        67.98685
607.76        67.92006
608.19        67.92118
608.62        67.76491
609.05        67.47854
609.48        67.47269
609.92        67.79314
610.35        67.27792
610.78        67.72389
611.21        67.43882
611.64        67.71355
612.07        67.51988
612.50        67.15472
612.94        67.04346
613.37        67.26328
613.80        67.01248
614.23        67.40953
614.66        67.32144
615.09        67.16943
615.52        67.19321
615.96        67.47256
616.39         67.0108
616.82        66.99419
617.25        67.21529
617.68        67.12901
618.11        67.09926
618.54        66.94547
618.97        67.03601
619.40        67.26086
619.84        67.47993
620.27        67.28233
620.70        67.08279
621.13        66.78163
621.56        66.91985
621.99         66.8848
622.42        66.70251
622.85        66.42753
623.28        66.83906
623.71        66.73122
624.14        66.75817
624.57        66.69312
625.00        67.23002
625.43        66.85558
625.86        66.86036
626.29        66.76164
626.72        67.07767
627.15        66.72076
627.58        66.76947
628.01        66.96344
628.44        66.58807
628.87        66.43657
629.30         66.5586
629.73        66.64948
630.16        66.04437
630.59          66.361
631.02        66.38708
631.45        66.57515
631.88        66.70563
632.31        66.78294
632.74        66.55543
633.17        66.64867
633.60        66.58212
634.03        66.54858
634.46        66.52843
634.89        66.52303
635.32        66.51161
635.75        66.48406
636.18        66.48746
636.61        66.51131
637.04        66.46032
637.47        66.36857
637.89        66.42099
638.32        66.57247
638.75        66.63408
639.18        66.59054
639.61        66.55126
640.04        66.51833
640.47         66.4632
640.90         66.3942
641.33        66.29224
641.76        66.16831
642.18        66.20502
642.61        66.14429
643.04         66.1841
643.47        66.22558
643.90        66.23436
644.33        66.19943
644.76        66.13748
645.18        66.06971
645.61        66.01585
646.04         65.9854
646.47        65.96533
646.90        65.96183
647.33        65.97958
647.75        66.02053
648.18        66.10627
648.61        66.19627
649.04         66.2111
649.47        66.15423
649.89        66.04089
650.32        65.93932
650.75        66.01807
651.18        66.22251
651.61        66.32296
652.03        66.27311
652.46        66.05183
652.89         65.7985
653.32        65.71938
653.74         66.2065
654.17        66.22443
654.60        66.00157
655.03        66.00797
655.46         65.9925
655.88        66.67284
656.31        68.41944
656.74        71.37479
657.16        70.64201
657.59        69.65275
658.02         67.4148
658.45        67.01467
658.87         67.2465
659.30         67.0185
659.73        66.17178
660.15        66.30849
660.58        66.28023
661.01        66.44032
661.44        66.34573
661.86        66.38315
662.29        66.46566
662.72        66.18213
663.14        65.69687
663.57        65.70422
664.00        66.15378
664.42        66.31989
664.85        66.16945
665.27        66.10738
665.70        66.15228
666.13        66.15987
666.55         66.1368
666.98        66.10442
667.41        66.08403
667.83         66.1166
668.26        66.19839
668.69        66.32082
669.11        66.44362
669.54        66.50853
669.96        66.50792
670.39        66.41566
670.82        66.29417
671.24        66.30726
671.67          66.434
672.09        66.49627
672.52        66.48321
672.94        66.40677
673.37        66.30807
673.80        66.28854
674.22        66.34709
674.65        66.32205
675.07         66.2279
675.50        66.14846
675.92        66.11647
676.35        66.12174
676.77        66.17492
677.20        66.28046
677.62        66.40845
678.05        66.49171
678.47        66.51388
678.90        66.49461
679.32        66.47279
679.75        66.52634
680.17        66.66762
680.60        66.87905
681.02        67.07586
681.45        67.13786
681.87         67.0575
682.30        66.76282
682.72        66.40167
683.15        66.44635
683.57        66.84023
684.00        66.92165
684.42        66.69241
684.85        66.68376
685.27        66.88528
685.70        66.97424
686.12        66.94631
686.54         66.9776
686.97        67.05056
687.39        67.11713
687.82        67.15826
688.24        67.01675
688.66        67.01305
689.09        66.88454
689.51        66.77299
689.94        66.70399
690.36        66.70026
690.78        66.74509
691.21        66.81448
691.63        66.86549
692.06        66.88447
692.48        66.87601
692.90        66.85092
693.33        66.81571
693.75        66.78389
694.17        66.76277
694.60        66.72739
695.02        66.70411
695.44        66.69411
695.87        66.58848
696.29        66.45523
696.71        66.66015
697.14        67.07282
697.56        67.06995
697.98         66.6992
698.41        66.60582
698.83        66.79067
699.25         66.9151
699.68        66.92989
700.10        66.97673
700.52        67.03926
700.94        67.08527
701.37        67.10119
701.79        67.10361
702.21         67.0764
702.64        67.03238
703.06        66.98639
703.48        66.97668
703.90        67.01804
704.33         67.1041
704.75        67.20001
705.17        67.22537
705.59        67.16159
706.01        66.99873
706.44        66.82731
706.86        66.89553
707.28        67.03364
707.70        67.40456
708.12        67.79944
708.55        67.81894
708.97        67.48569
709.39        67.23058
709.81        67.14903
710.23        67.07967
710.66        67.05591
711.08        67.24693
711.50        67.53426
711.92         67.6527
712.34        67.56019
712.76        67.33808
713.19        67.07788
713.61        66.97727
714.03        67.06548
714.45        67.27554
714.87        67.52277
715.29        67.68369
715.71        67.72279
716.13        67.68181
716.56         67.5861
716.98        67.54987
717.40        67.58108
717.82        67.65305
718.24         67.7499
718.66        67.85133
719.08        67.94363
719.50         68.0277
719.92        68.10236
720.34        68.16329
720.76        68.20461
721.19        68.21467
721.61        68.18894
722.03        68.09245
722.45        67.92906
722.87        67.72074
723.29         67.5147
723.71        67.38279
724.13        67.35016
724.55        67.40425
724.97        67.52138
725.39        67.65707
725.81        67.78795
726.23         67.9131
726.65        68.03173
727.07         68.1478
727.49        68.25626
727.91        68.34587
728.33        68.39331
728.75        68.36644
729.17        68.26695
729.59         68.1172
730.01        67.95748
730.43        67.85156
730.85        67.81618
731.27        67.82845
731.69        67.88482
732.10        67.97669
732.52        68.07941
732.94        68.24751
733.36        68.43563
733.78        68.46119
734.20        68.28743
734.62         68.4192
735.04        67.86981
735.46         68.0855
735.88        68.61007
736.30        68.60845
736.72        68.10554
737.13        67.94102
737.55        68.13766
737.97        68.16653
738.39        68.02975
738.81        68.05544
739.23        68.21369
739.65        68.26398
740.06        68.17332
740.48        68.13343
740.90        68.11401
741.32        68.09222
741.74        67.99545
742.16        68.01989
742.57        68.15161
742.99         68.3412
743.41         68.5292
743.83        68.60595
744.25        68.54868
744.67        68.38959
745.08        68.20931
745.50        68.09859
745.92        68.10674
746.34        68.21177
746.75        68.35357
747.17        68.43481
747.59        68.42529
748.01        68.32694
748.42        68.21964
748.84        68.22871
749.26        68.34351
749.68        68.55643
750.09        68.75662
750.51         68.5761
750.93        68.14732
751.35        68.15925
751.76        68.57111
752.18        68.71387
752.60        68.56406
753.01        68.52944
753.43        68.60828
753.85         68.6444
754.27        68.63254
754.68        68.60825
755.10        68.59366
755.52        68.62212
755.93        68.71583
756.35        68.86093
756.77        68.93805
757.18        69.03979
757.60        69.20026
758.02        68.84705
758.43        68.05231
758.85        69.33043
759.26        68.96267
759.68        69.42201
760.10         69.6561
760.51        68.68002
760.93        68.82452
761.34        68.81928
761.76        69.19543
762.18        69.38014
762.59        69.33019
763.01        69.19884
763.42        69.09905
763.84        69.11787
764.26        69.27155
764.67        69.40782
765.09        69.49458
765.50        69.43032
765.92        69.27228
766.33        69.17469
766.75        69.12486
767.16        69.06721
767.58        68.95137
768.00        69.00049
768.41        69.18787
768.83        69.03889
769.24        68.67225
769.66        68.83378
770.07        69.37317
770.49        69.44792
770.90        69.08212
771.32        68.96868
771.73        69.15894
772.15        69.22738
772.56        69.18343
772.97        69.29282
773.39        69.50569
773.80        69.55337
774.22        69.46297
774.63        69.66907
775.05        70.05814
775.46        70.17222
775.88        69.94394
776.29        69.66177
776.70        69.41807
777.12        69.27277
777.53        69.29024
777.95        69.43298
778.36        69.65912
778.77        69.87448
779.19        70.03954
779.60        70.18544
780.02         70.2913
780.43        70.34051
780.84        70.31091
781.26        70.23237
781.67        70.20596
782.09        70.14677
782.50        69.98866
782.91         70.6556
783.33        70.26565
783.74        70.34527
784.15        70.31699
784.57        70.16691
784.98        69.95473
785.39        69.90365
785.81        70.01958
786.22        70.08732
786.63        70.09274
787.04         70.1713
787.46        70.32764
787.87        70.47067
788.28        70.56126
788.70        70.60915
789.11        70.59689
789.52        70.41914
789.93         70.1873
790.35        70.32502
790.76        70.76936
791.17        70.87498
791.58        70.62505
792.00        70.53862
792.41        70.65199
792.82        70.57291
793.23        70.36791
793.65        70.48566
794.06        70.93059
794.47        71.24643
794.88        71.28532
795.29        71.67259
795.71        71.42113
796.12        71.15154
796.53        70.70007
796.94        70.66228
797.35        70.99124
797.76        70.98824
798.18        70.69082
798.59        70.66914
799.00        70.93822
799.41        71.15244
799.82        71.24097
800.23        71.27211
800.64        71.22565
801.06        71.05045
801.47        70.84886
801.88        70.71374
802.29        70.68764
802.70        70.78275
803.11        70.91902
803.52        70.94614
803.93        70.82082
804.34        70.56751
804.75        70.36788
805.17        70.41734
805.58        70.76509
805.99        71.58929
806.40        72.55383
806.81        72.42227
807.22        71.41304
807.63        71.17316
808.04        71.75334
808.45        71.89449
808.86        71.56773
809.27        71.60622
809.68        71.95721
810.09        72.08197
810.50        71.92939
810.91        71.66242
811.32        71.38485
811.73        71.27293
812.14        71.37755
812.55        71.58418
812.96        71.80355
813.37        72.00637
813.78        72.09775
814.19        71.88374
814.60        71.49007
815.01         71.3155
815.42         71.4132
815.83        71.59294
816.24        71.79858
816.65        71.99871
817.05        72.15184
817.46        72.23259
817.87        72.26454
818.28        72.23224
818.69        72.14198
819.10        71.99445
819.51        71.83185
819.92         71.7357
820.33        71.73414
820.74        71.81221
821.14        71.92203
821.55        72.01868
821.96        72.06357
822.37        72.06676
822.78         72.0494
823.19        72.04823
823.60        72.07691
824.00        72.15144
824.41        72.19119
824.82        72.15504
825.23        72.04076
825.64         71.8727
826.04        71.76391
826.45        71.85992
826.86        72.19215
827.27        72.69992
827.68        73.23878
828.08        73.60104
828.49        73.64993
828.90        73.47686
829.31        73.17894
829.72        72.93172
830.12        72.81821
830.53        72.74519
830.94        72.69167
831.35        72.58491
831.75        72.42889
832.16        72.22865
832.57         72.0342
832.97        71.88025
833.38        71.78397
833.79        71.74147
834.20        71.76509
834.60        71.87432
835.01        72.07148
835.42        72.32842
835.82        72.62678
836.23        72.85468
836.64        73.00127
837.04        73.10553
837.45        73.11697
837.86         73.0612
838.26        72.96643
838.67        72.81698
839.08        72.68771
839.48         72.6815
839.89        72.81812
840.29        73.07175
840.70          73.362
841.11        73.55747
841.51        73.63947
841.92        73.60204
842.33         73.5121
842.73        73.48207
843.14        73.49203
843.54        73.53156
843.95        73.55941
844.35         73.5306
844.76        73.42657
845.17         73.2824
845.57        73.12294
845.98        72.94486
846.38        72.78397
846.79        72.61362
847.19        72.48699
847.60        72.43905
848.00        72.49519
848.41        72.61519
848.81        72.76144
849.22        72.79375
849.62        72.72156
850.03        72.55946
850.43        72.40195
850.84        72.32099
851.24        72.39259
851.65        72.53651
852.05        72.78822
852.46        73.08324
852.86        73.36665
853.27        73.65038
853.67        73.81805
854.07        73.88978
854.48        73.82796
854.88        73.67212
855.29        73.37045
855.69        73.04915
856.10        72.67368
856.50        72.32732
856.90         72.0154
857.31        71.76316
857.71        71.62485
858.12          71.545
858.52        71.56226
858.92        71.60291
859.33        71.62899
859.73         71.6913
860.13        71.73244
860.54        71.68274
860.94        71.56896
861.34        71.36958
861.75        71.15198
862.15        71.09407
862.55        71.19453
862.96        71.41869
863.36        71.63696
863.76        71.62045
864.17        71.31354
864.57         70.8046
864.97        70.25861
865.38        69.91438
865.78        69.88607
866.18        70.09693
866.58        70.39548
866.99        70.52171
867.39         70.4292
867.79        70.16455
868.19        69.89314
868.60        69.82733
869.00        69.99665
869.40        70.35328
869.80        70.73674
870.21         70.8667
870.61         70.7372
871.01        70.39237
871.41        69.99725
871.81        69.77473
872.22        69.75546
872.62        69.90899
873.02        70.16143
873.42        70.36113
873.82        70.45287
874.22        70.48974
874.63        70.53951
875.03        70.67834
875.43        70.91953
875.83        71.19762
876.23        71.46566
876.63        71.65473
877.03        71.73366
877.44        71.73229
877.84        71.61909
878.24        71.31808
878.64        70.85514
879.04        70.27416
879.44        69.75874
879.84        69.55742
880.24        69.70148
880.64         70.1342
881.04        70.64389
881.44        70.85548
881.84        70.66562
882.24        70.16042
882.65        69.56207
883.05        69.35857
883.45        69.61653
883.85        70.18651
884.25        70.79369
884.65        71.03574
885.05        70.82766
885.45        70.30166
885.85        69.68217
886.25        69.34978
886.65        69.42152
887.05        69.77936
887.45        70.22723
887.85        70.47222
888.25        70.43204
888.65        70.18771
889.04        69.88139
889.44        69.78473
889.84        69.94096
890.24        70.26149
890.64        70.56651
891.04        70.58464
891.44        70.26976
891.84        69.73278
892.24         69.1729
892.64        68.89221
893.04         68.9676
893.44        69.30488
893.83        69.77667
894.23        70.11092
894.63        70.24842
895.03        70.24881
895.43        70.18621
895.83        70.18169
896.23        70.26619
896.63        70.38875
897.02        70.47849
897.42        70.47556
897.82         70.3625
898.22        70.18958
898.62         70.0206
899.01        69.96574
899.41        70.03219
899.81        70.18077
900.21        70.38538
900.61        70.59927
901.00        70.78745
901.40        70.99457
901.80        71.14127
902.20        71.11876
902.59        70.93258
902.99        70.58615
903.39        70.26913
903.79        70.28258
904.18        70.66374
904.58        71.31529
904.98        71.97004
905.38         72.2374
905.77        72.03403
906.17        71.48053
906.57        70.80964
906.96        70.44656
907.36        70.49226
907.76        70.84541
908.15        71.29568
908.55        71.41572
908.95        71.13175
909.34        70.56533
909.74        69.97958
910.14         69.7144
910.53        69.85739
910.93        70.27044
911.33          70.767
911.72         71.0413
912.12         70.9861
912.52        70.72833
912.91        70.38419
913.31        70.13587
913.70        70.03062
914.10        69.99837
914.49        70.03541
914.89        70.08536
915.29          70.141
915.68        70.21782
916.08        70.30394
916.47        70.36631
916.87         70.4095
917.26        70.40984
917.66        70.38359
918.05        70.32929
918.45        70.24171
918.84        70.14903
919.24        70.02952
919.64         69.9298
920.03        69.88254
920.42        69.88314
920.82        69.92632
921.21        69.98878
921.61        70.04858
922.00        70.10818
922.40        70.20577
922.79        70.47553
923.19        70.88309
923.58        71.41425
923.98        71.84843
924.37        71.92316
924.77        71.58231
925.16        70.87904
925.55        70.09624
925.95        69.72091
926.34        69.88432
926.74        70.46163
927.13          71.147
927.52        71.34129
927.92        70.95268
928.31        70.16277
928.70        69.37418
929.10        69.20031
929.49         69.7595
929.89        70.79952
930.28        71.99305
930.67        72.65108
931.07        72.54403
931.46        71.92848
931.85        71.02146
932.24        70.19318
932.64        69.59706
933.03        69.13275
933.42        68.86119
933.82        68.88011
934.21        69.18484
934.60        69.78207
934.99        70.49229
935.39        70.96587
935.78        71.12718
936.17        71.00593
936.56        70.77151
936.96        70.73508
937.35        71.01904
937.74        71.49082
938.13        71.93891
938.53        72.06623
938.92        71.81938
939.31        71.27682
939.70        70.66754
940.09        70.37981
940.49        70.49485
940.88        70.94147
941.27        71.42019
941.66        71.47749
942.05        71.03237
942.44        70.23802
942.84        69.43853
943.23        69.13275
943.62        69.47689
944.01        70.31085
944.40        71.31597
944.79        71.92289
945.18        71.94523
945.57        71.54918
945.97        70.96108
946.36        70.60444
946.75        70.55154
947.14         70.6599
947.53        70.81348
947.92        70.82232
948.31        70.63741
948.70        70.38609
949.09        70.09725
949.48        69.78676
949.87        69.49347
950.26        69.19634
950.65        69.03761
951.04        69.25652
951.43        69.86518
951.82        70.77368
952.21        71.69324
952.60        72.11987
952.99        71.91178
953.38        71.21441
953.77        70.29359
954.16        69.56853
954.55        69.16278
954.94         68.9631
955.33        68.86444
955.72         68.6902
956.11        68.37791
956.50         68.0036
956.89        67.61971
957.28        67.28592
957.66        67.07189
958.05         66.9668
958.44        66.93693
958.83        66.93449
959.22        66.93797
959.61        66.90367
960.00        66.96815
960.39        67.35508
960.78        68.05895
961.16        69.03104
961.55        69.81954
961.94        69.76073
962.33        68.74658
962.72          67.061
963.11         65.2976
963.49        64.31144
963.88        64.31333
964.27        65.09356
964.66         66.3009
965.04        67.29058
965.43        67.72342
965.82        67.78721
966.21        67.71072
966.60        67.87187
966.98        68.36208
967.37        68.99463
967.76        69.52254
968.15        69.50908
968.53        68.87941
968.92         67.8635
969.31        66.80347
969.69        66.15598
970.08        66.06024
970.47        66.41045
970.86        67.17459
971.24        68.27824
971.63        69.50244
972.02        70.77541
972.40        71.93295
972.79        72.63943
973.17        72.93016
973.56        72.80149
973.95         72.3503
974.33        71.74298
974.72        71.08022
975.11        70.35976
975.49        69.66277
975.88        69.13543
976.26        68.83801
976.65        68.77893
977.04         68.8805
977.42        68.95955
977.81         68.8949
978.19        68.65813
978.58        68.46149
978.96        68.60987
979.35        69.13314
979.74        69.99423
980.12        70.81561
980.51        70.77503
980.89        69.84852
981.28        68.15718
981.66         66.4645
982.05        66.19677
982.43        67.64865
982.82        70.28121
983.20        73.10741
983.59        74.45409
983.97        74.02643
984.35        72.28666
984.74        69.89405
985.12        68.05344
985.51        67.24561
985.89         67.1417
986.28        67.57367
986.66        68.38554
987.04        69.39161
987.43        70.64229
987.81        71.88808
988.20        72.53497
988.58        72.47219
988.96        71.80564
989.35        70.72912
989.73        69.69913
990.12        68.81992
990.50        67.91922
990.88        67.16945
991.27        66.94482
991.65        67.29906
992.03        68.19585
992.42        68.94602
992.80        68.88955
993.18        67.78902
993.56        65.70727
993.95        63.28382
994.33        62.07654
994.71        62.84784
995.10        64.81834
995.48        67.00975
995.86        68.32484
996.24        68.66989
996.63        68.32265
997.01        67.70415
997.39        67.59776
997.77        68.28252
998.15         69.4265
998.54        70.45544
998.92        70.65869
999.30        69.91115
999.68        68.48821
1000.06        66.90556
1000.45        66.05396
1000.83        66.29987
1001.21        67.29626
1001.59        68.61748
1001.97        69.63816
1002.35        70.21026
1002.73        70.60464
1003.12        70.81053
1003.50        70.66813
1003.88        70.24708
1004.26        69.43526
1004.64        68.76988
1005.02        68.98628
1005.40        70.12136
1005.78        72.09348
1006.16        73.93454
1006.54        73.87184
1006.92        71.52835
1007.30        67.41841
1007.69        63.20033
1008.07        61.57421
1008.45        63.21275
1008.83        67.16846
1009.21        71.63026
1009.59        73.99113
1009.97        73.55099
1010.35        70.85178
1010.73        66.77473
1011.11        63.77999
1011.49        63.24921
1011.86        64.58524
1012.24        66.72534
1012.62        68.43336
1013.00        69.35087
1013.38        69.98462
1013.76         70.5224
1014.14          71.155
1014.52        71.98036
1014.90        72.79914
1015.28        73.60246
1015.66        74.47104
1016.04        75.32451
1016.41        76.18024
1016.79        76.71053
1017.17        76.80515
1017.55        76.47567
1017.93        75.86911
1018.31         75.1201
1018.69         74.3868
1019.06        73.80986
1019.44         73.3901
1019.82        73.28916
1020.20        73.81375
1020.58        74.86617
1020.95        76.02802
1021.33        77.05768
1021.71        77.65022
1022.09        77.70888
1022.46        77.35661
1022.84        76.24169
1023.22        73.57687
1023.60        69.19273
1023.97        62.88925
1024.35        56.20436
1024.73        52.42928
