SpectraSmart Spectrum 2.9.0.0
--------- Device Information -----------
Spectrum Name :  反射率_0
Saving Time :  2024/04/28 00:00:50
Spectro-Module Model Name : SE2030-DUVN
Spectro-Module Serial Number : OS361AC55029948
Wavelength Start : 200
Wavelength End : 1025
Wavelength Unit : Wavelength(nm)
Spectrum Unit : Reflectance(%)
-----------Spectrum Setting ------------
Integration Time : 20ms
Average : 10
Boxcar : 0
Background removal :  enabled
linearity correction :  enabled
SC :  disabled
Intensity correction :  disabled
DWT denoise :  enabled
savitzky-golay :  disabled
FFT :  disabled
Running average :  disabled
Kalman :  disabled
High pass :  disabled
---------------BEGIN--------------------
Wavelength(nm)             Reflectance(%)
200.29               0
200.75        89.01955
201.21        99.61494
201.67        102.1198
202.13        95.92124
202.58        84.04282
203.04        68.99798
203.50        56.96945
203.96        57.27577
204.42        68.54542
204.88        84.48206
205.34        98.91966
205.80        107.2062
206.26        109.4035
206.72        106.3256
207.18        97.36293
207.64        88.19702
208.10        85.97942
208.55        88.44621
209.01        89.78385
209.47        86.59958
209.93        76.51286
210.39        50.12551
210.85        -31.3295
211.31       -141.0682
211.77       -32.17591
212.23        45.45526
212.69        73.21553
213.14        80.57516
213.60        77.34087
214.06        65.53814
214.52        41.90987
214.98        19.13704
215.44        17.98207
215.90        27.67524
216.36        37.98034
216.81        45.24618
217.27        50.05606
217.73        54.70789
218.19        58.56415
218.65        59.68634
219.11        57.62538
219.57        52.37695
220.02        45.26208
220.48        41.58024
220.94        42.98648
221.40        47.63814
221.86        53.25244
222.32        57.52605
222.77        60.14508
223.23        61.70343
223.69        62.51898
224.15        62.82291
224.61        62.72023
225.06        61.92933
225.52        60.60435
225.98        58.88685
226.44        57.16277
226.90        55.58267
227.36        54.15194
227.81        52.58759
228.27         50.7145
228.73        48.50583
229.19        45.81796
229.65        42.68427
230.10        39.45467
230.56         36.6723
231.02        34.72688
231.48        34.15404
231.93        34.79063
232.39        36.27594
232.85        38.27488
233.31        40.36251
233.77          42.303
234.22        44.28317
234.68        45.71636
235.14        45.94039
235.60        44.95478
236.05        42.73139
236.51        40.51575
236.97        40.97865
237.43        44.93684
237.88        51.64627
238.34        58.53733
238.80        63.14441
239.26        65.08154
239.71        64.54384
240.17        61.66056
240.63        60.05332
241.08        62.76796
241.54        67.05982
242.00        70.35444
242.46        71.67542
242.91        71.42325
243.37        69.52994
243.83        65.66462
244.28        63.21406
244.74        69.01145
245.20        78.76446
245.66        84.85513
246.11        86.59671
246.57         85.4687
247.03         81.3033
247.48        73.83588
247.94        67.63667
248.40        68.29856
248.85        73.61966
249.31        80.35339
249.77        85.48731
250.22         88.5493
250.68        90.53191
251.14        91.64778
251.59        92.10565
252.05        92.17572
252.51        91.45472
252.96        89.72496
253.42        88.17013
253.88        87.61898
254.33        88.16798
254.79        89.02218
255.25        88.70904
255.70        87.28558
256.16        85.76823
256.62        85.17854
257.07        86.61732
257.53        89.67503
257.99        92.74143
258.44        94.22094
258.90        93.39511
259.35        90.31284
259.81        86.49997
260.27        82.69469
260.72        79.84466
261.18        78.42364
261.63         77.5342
262.09        77.04899
262.55        76.30685
263.00        75.10513
263.46        73.83997
263.91        72.45711
264.37        71.34669
264.83        70.44933
265.28        69.60147
265.74        68.78632
266.19        67.67985
266.65         66.3557
267.11        64.84757
267.56        63.27474
268.02        61.94764
268.47        60.88187
268.93        60.01251
269.38        59.21538
269.84        58.34182
270.30        57.32779
270.75        56.21817
271.21        55.04323
271.66        53.77787
272.12        52.47645
272.57        51.12142
273.03        49.80665
273.48         48.5872
273.94        47.54634
274.39        46.60188
274.85        45.81415
275.31        45.14747
275.76        44.54083
276.22        44.03714
276.67        43.46876
277.13        42.73337
277.58        41.76975
278.04        40.69172
278.49        39.60113
278.95         38.7916
279.40        38.23858
279.86        37.91574
280.31        37.63008
280.77        37.24327
281.22        36.67341
281.68        36.05161
282.13        35.42106
282.59        34.90931
283.04        34.51534
283.50        34.22446
283.95        34.00295
284.41         33.8606
284.86        33.76634
285.32        33.74642
285.77        33.76007
286.22        33.79817
286.68        33.86659
287.13        33.91707
287.59        33.98071
288.04        34.02169
288.50        34.07039
288.95        34.10136
289.41        34.13791
289.86        34.15246
290.32         34.1839
290.77        34.24532
291.22        34.38233
291.68        34.64724
292.13        35.04995
292.59        35.60884
293.04        36.32482
293.50        37.22559
293.95        38.29112
294.40        39.51557
294.86        40.86582
295.31        42.28144
295.77        43.75117
296.22        45.26252
296.68        46.82604
297.13        48.42689
297.58        50.05831
298.04        51.71838
298.49        53.38853
298.95        55.10647
299.40        56.87751
299.85        58.70699
300.31        60.63369
300.76        62.64691
301.21         64.7216
301.67        66.85183
302.12        68.90829
302.58        70.81155
303.03        72.51867
303.48        74.10412
303.94        75.71752
304.39        77.48402
304.84        79.46583
305.30        81.62361
305.75        83.82018
306.20        85.95132
306.66        87.99837
307.11        89.93855
307.57        91.82227
308.02        93.59189
308.47        95.26088
308.93        96.82587
309.38        98.25965
309.83        99.64855
310.29        101.0313
310.74        102.3734
311.19        103.6494
311.65        104.7794
312.10        105.7179
312.55        106.5063
313.00        107.2243
313.46        108.0053
313.91          108.86
314.36        109.7597
314.82        110.6294
315.27        111.3406
315.72        111.8618
316.18        112.2566
316.63        112.5609
317.08        112.8725
317.53        113.2288
317.99         113.597
318.44         113.996
318.89        114.4277
319.35        114.8826
319.80        115.3757
320.25        115.8598
320.70        116.2636
321.16        116.5597
321.61        116.7766
322.06        116.9685
322.51        117.2427
322.97        117.5996
323.42        118.0417
323.87        118.4697
324.32        118.7441
324.78        118.8177
325.23        118.7883
325.68        118.7205
326.13        118.7515
326.59        118.9017
327.04        119.1858
327.49        119.5569
327.94        119.9763
328.39        120.4172
328.85        120.8482
329.30        121.3109
329.75         121.691
330.20         121.965
330.66        122.1118
331.11        122.2402
331.56        122.4056
332.01        122.6463
332.46        122.9505
332.92        123.2597
333.37          123.64
333.82        124.0263
334.27        124.4237
334.72        124.8356
335.17        125.2643
335.63        125.6802
336.08        126.1426
336.53        126.5956
336.98        127.0017
337.43        127.3578
337.88        127.6726
338.34         127.987
338.79        128.4341
339.24        129.0081
339.69        129.6687
340.14        130.3293
340.59        130.8459
341.05        131.1909
341.50        131.4363
341.95        131.6275
342.40        131.8571
342.85        132.1581
343.30        132.4753
343.75        132.8593
344.20        133.3918
344.66        134.0589
345.11        134.8309
345.56        135.5007
346.01        135.7326
346.46        135.4884
346.91        134.8926
347.36        134.2493
347.81        134.0293
348.26        134.3333
348.72        135.0138
349.17        135.8157
349.62        136.3501
350.07        136.4916
350.52        136.3509
350.97        136.0508
351.42        135.7877
351.87        135.6269
352.32        135.4994
352.77        135.3419
353.22        135.0711
353.67        134.6651
354.13        134.1721
354.58        133.6296
355.03        133.1528
355.48         132.755
355.93        132.3934
356.38        131.9683
356.83        131.3245
357.28        130.4441
357.73        129.4068
358.18        128.3172
358.63        127.3305
359.08        126.4982
359.53        125.7739
359.98        125.1397
360.43        124.5663
360.88        124.0178
361.33        123.4851
361.78        122.9114
362.23        122.1984
362.68        121.3234
363.13        120.3284
363.58        119.2564
364.03        118.0986
364.48        117.0323
364.93        115.9536
365.38        114.9195
365.83        113.9436
366.28        113.0299
366.73        112.1759
367.18        111.3818
367.63        110.6424
368.08        109.9491
368.53        109.3013
368.98        108.6595
369.43        107.9624
369.88        107.2021
370.33        106.3941
370.78        105.6007
371.23        104.9297
371.68        104.3964
372.13        103.9523
372.58        103.5308
373.03        103.0252
373.48        102.4013
373.93        101.6976
374.38        100.9225
374.83        100.0869
375.28        99.21316
375.72        98.28673
376.17        97.40676
376.62        96.65659
377.07        96.04955
377.52        95.55049
377.97        95.09344
378.42        94.56993
378.87        93.95486
379.32        93.29478
379.77        92.60772
380.22        91.91492
380.67        91.23331
381.11        90.55777
381.56        89.93807
382.01         89.4733
382.46        89.18182
382.91        89.03453
383.36        88.93739
383.81        88.73879
384.26        88.39528
384.71        87.93891
385.15        87.42181
385.60        86.99415
386.05        86.66768
386.50         86.4034
386.95        86.14426
387.40        85.80717
387.85        85.38909
388.29         84.8904
388.74        84.45574
389.19        84.08852
389.64        83.77905
390.09         83.4677
390.54        83.16273
390.98        82.86498
391.43        82.62595
391.88        82.45263
392.33        82.20453
392.78        81.78864
393.23        81.24711
393.67        80.33935
394.12        79.37946
394.57        79.62973
395.02        79.77867
395.47        79.91191
395.91        79.61423
396.36        79.49469
396.81        79.54686
397.26        79.41534
397.71         79.0955
398.15        78.78513
398.60        78.59766
399.05        78.18382
399.50        77.71006
399.95        77.90779
400.39        78.55624
400.84        78.45679
401.29        77.63327
401.74        76.99355
402.18        76.72118
402.63        76.64598
403.08        76.70279
403.53        76.62912
403.97        76.39058
404.42        76.23945
404.87        76.17879
405.32        76.09864
405.76        75.98641
406.21        75.86077
406.66        75.70903
407.11        75.61725
407.55        75.54035
408.00        75.29439
408.45        74.54106
408.90        74.37831
409.34        74.57246
409.79        74.37179
410.24        73.80388
410.68        73.52604
411.13        73.56573
411.58        73.55871
412.03        73.47647
412.47        73.45331
412.92        73.45527
413.37        73.45687
413.81        73.44867
414.26         73.4782
414.71        73.52712
415.15        73.60693
415.60         73.6658
416.05        73.67611
416.49        73.63544
416.94        73.54497
417.39        73.43795
417.83         73.3598
418.28         73.3158
418.73        73.28264
419.17        73.24885
419.62        73.19827
420.07        73.13728
420.51        73.07967
420.96        73.02477
421.41        72.96069
421.85        72.86755
422.30        72.66306
422.74        72.42302
423.19         72.6685
423.64        73.26379
424.08        73.48285
424.53        73.21473
424.98        73.10957
425.42        73.20483
425.87        72.96421
426.31        72.51262
426.76        72.51697
427.21         72.8839
427.65        72.86152
428.10        72.48029
428.54        72.37353
428.99        72.57925
429.44        72.81331
429.88        72.97716
430.33        72.89855
430.77        72.61722
431.22        72.71962
431.66        73.13099
432.11         73.2459
432.56        73.12675
433.00        73.17548
433.45        73.22726
433.89        73.33788
434.34        73.50639
434.78        72.25452
435.23        72.24322
435.67        72.00112
436.12        73.82132
436.57        73.92175
437.01        73.07706
437.46        72.60945
437.90        73.01214
438.35         74.1987
438.79        73.65596
439.24        73.77583
439.68        73.83383
440.13        73.79214
440.57         73.7088
441.02        73.95248
441.46        74.37291
441.91        74.29914
442.35        73.77611
442.80        73.67519
443.24        73.91609
443.69        73.89593
444.13        73.64487
444.58        73.62195
445.02        73.81403
445.47        74.05934
445.91        74.26968
446.36        74.36714
446.80        74.30295
447.24        74.14632
447.69        74.05092
448.13        73.81447
448.58        74.33338
449.02        74.36024
449.47         74.1838
449.91        74.12595
450.36        74.21194
450.80         74.1899
451.25        74.08231
451.69        74.04175
452.13        74.06613
452.58        74.05502
453.02        73.99979
453.47        73.92867
453.91        73.82652
454.36        73.78281
454.80        73.73398
455.24        73.41877
455.69        72.98541
456.13        72.77307
456.58        72.81161
457.02        72.97266
457.46        73.02753
457.91        72.76242
458.35        72.44255
458.79        72.25796
459.24        72.31003
459.68        72.34311
460.13        72.31979
460.57        72.15537
461.01        72.12611
461.46        71.68343
461.90         71.3595
462.34        71.43536
462.79        71.28704
463.23        71.28923
463.68        71.20412
464.12        71.20715
464.56        71.27676
465.01        71.29735
465.45        71.14812
465.89        71.09356
466.34        71.13833
466.78        70.65691
467.22        69.74841
467.67         70.2771
468.11        70.07964
468.55        70.20202
468.99        69.97708
469.44        69.90744
469.88        69.97535
470.32        69.92521
470.77        69.77966
471.21        69.66657
471.65        69.59504
472.10         69.5415
472.54        69.47197
472.98        69.39072
473.42        69.30595
473.87        69.18571
474.31        69.02797
474.75        69.08329
475.20        69.26166
475.64        69.13885
476.08        68.77763
476.52         68.6912
476.97        68.89616
477.41        69.06296
477.85        69.14682
478.29        69.29276
478.74        68.88407
479.18        68.48631
479.62        69.01357
480.06        69.00249
480.50        68.80453
480.95        68.66141
481.39        68.52734
481.83        68.58795
482.27        68.62113
482.72        68.04145
483.16         68.3858
483.60        68.30198
484.04        68.20158
484.48         68.3273
484.93        68.91385
485.37        68.40254
485.81        68.88255
486.25        69.49276
486.69        70.49272
487.14        69.23009
487.58        68.48095
488.02         68.8348
488.46        68.41644
488.90        69.22932
489.34         68.2903
489.79        67.55417
490.23        67.89847
490.67          67.771
491.11        67.61898
491.55        67.50131
491.99        67.45671
492.43        67.45226
492.88        67.47485
493.32        67.54591
493.76        67.61118
494.20        67.68572
494.64        67.78207
495.08        67.71872
495.52        67.56987
495.96        67.88339
496.41        68.48306
496.85        68.30549
497.29        67.49837
497.73        67.32597
498.17        67.68304
498.61        67.86398
499.05        67.74445
499.49        67.60712
499.93        67.50978
500.37        67.44791
500.82        67.40636
501.26        67.32484
501.70        67.65523
502.14        66.88275
502.58        67.50403
503.02        67.40056
503.46        67.25186
503.90        67.08672
504.34        66.95839
504.78        66.95371
505.22         67.0461
505.66        67.10455
506.10        67.11818
506.54        67.20784
506.98        67.36864
507.42        67.31256
507.86        67.57021
508.30        67.30608
508.74        67.35441
509.18        67.16451
509.62        66.98714
510.06        66.87793
510.50        66.85639
510.94        66.90443
511.38        66.97657
511.82        67.01522
512.26         66.9999
512.70        66.94584
513.14        66.87447
513.58        66.83405
514.02        66.84055
514.46        66.85649
514.90        66.84893
515.34        66.92081
515.78        66.83055
516.22        66.77814
516.66        66.73563
517.10        66.77354
517.54        66.89531
517.98        67.07307
518.42        67.24675
518.86        67.31378
519.30        67.25198
519.74        67.10153
520.18         66.9105
520.62        66.74572
521.06        66.64118
521.50        66.59856
521.93        66.61491
522.37        66.65594
522.81        66.71375
523.25        66.79304
523.69        66.88528
524.13        66.97071
524.57        67.03828
525.01        67.08733
525.45        67.09312
525.89        67.02199
526.32        66.87172
526.76        66.67294
527.20        66.47714
527.64        66.37321
528.08        66.38103
528.52        66.47366
528.96        66.60522
529.40        66.69967
529.83        66.72732
530.27         66.7219
530.71        66.69052
531.15        66.65547
531.59        66.62617
532.03        66.59099
532.46         66.5526
532.90        66.54047
533.34        66.55186
533.78        66.58473
534.22        66.61782
534.66        66.61638
535.09        66.56547
535.53        66.49188
535.97        66.41048
536.41        66.36114
536.85        66.35281
537.28        66.37759
537.72        66.40877
538.16        66.39353
538.60        66.32713
539.04        66.24428
539.47        66.16102
539.91        66.13816
540.35        66.16917
540.79        66.24647
541.22        66.33501
541.66        66.38871
542.10        66.38913
542.54        66.34754
542.97        66.27897
543.41        66.24435
543.85        66.24414
544.29        66.27206
544.72        66.28677
545.16        66.25875
545.60         66.1692
546.04        66.02901
546.47        65.89565
546.91        65.86067
547.35        65.92805
547.79        66.09485
548.22         66.2634
548.66        66.24906
549.10        66.07056
549.53        66.01077
549.97        66.08805
550.41         66.0969
550.84        66.03014
551.28        66.05979
551.72        66.17487
552.15        66.16267
552.59        66.00459
553.03        66.19539
553.46        65.93266
553.90         65.9436
554.34        65.98157
554.77        66.06851
555.21        66.14938
555.65        66.14367
556.08        66.01073
556.52        65.90094
556.96        65.83248
557.39        65.89762
557.83        66.05196
558.27        66.04547
558.70        65.82762
559.14        65.75623
559.57         65.8009
560.01        65.84647
560.45         65.8633
560.88        65.79173
561.32        65.71381
561.75        65.79516
562.19        66.00428
562.63        66.03149
563.06        65.86948
563.50        65.74673
563.93        65.69683
564.37        65.66682
564.80        65.71128
565.24        65.86132
565.68        66.06439
566.11        66.15984
566.55        66.15689
566.98        66.09841
567.42        66.03532
567.85        66.01556
568.29         66.0898
568.72        66.05891
569.16        65.96514
569.60        66.10449
570.03         66.4045
570.47        66.22823
570.90        66.39293
571.34        66.72392
571.77        66.74558
572.21        66.52911
572.64        67.06513
573.08         66.3474
573.51        66.30826
573.95        66.40795
574.38        66.97462
574.82        66.79196
575.25        66.57769
575.69        66.39173
576.12         66.4338
576.56        66.27563
576.99        66.51311
577.42          66.479
577.86        66.77377
578.29         66.8449
578.73        66.87472
579.16        66.85031
579.60        66.73842
580.03        66.62868
580.47         66.4556
580.90        66.75833
581.33        67.12376
581.77        66.85383
582.20        67.31972
582.64         67.1842
583.07        66.72446
583.51        66.46632
583.94        66.63063
584.37        66.67036
584.81        66.62212
585.24        66.74584
585.68        66.98826
586.11        66.98756
586.54        67.15073
586.98        66.37507
587.41        66.60473
587.85        66.51045
588.28          66.598
588.71        66.60496
589.15           66.66
589.58        66.18568
590.01        66.48381
590.45        66.25529
590.88        65.81741
591.31          65.721
591.75        65.90993
592.18        65.76744
592.61        65.58297
593.05        65.85435
593.48        67.13641
593.91        66.71502
594.35        66.57764
594.78        66.54253
595.21        66.05193
595.65        66.10359
596.08        66.26881
596.51        66.32478
596.94        65.97775
597.38        65.91908
597.81        66.13047
598.24        66.08778
598.68        66.34174
599.11        66.13419
599.54        66.38589
599.97        66.67786
600.41        66.45472
600.84        66.51146
601.27        66.40743
601.70        65.97018
602.14        65.48989
602.57         65.7225
603.00        65.99845
603.43        66.12624
603.87        66.21011
604.30        66.11523
604.73        65.78111
605.16        66.13806
605.60        66.01949
606.03        66.21642
606.46        66.26675
606.89        66.52847
607.32        66.22543
607.76        66.41434
608.19        66.27261
608.62        66.17986
609.05        65.98741
609.48        65.93221
609.92        66.10148
610.35        65.61461
610.78        66.64562
611.21        65.88508
611.64         66.2922
612.07        66.04577
612.50        65.90899
612.94        65.79779
613.37        65.74085
613.80        65.88873
614.23         65.8567
614.66        65.96149
615.09        66.01893
615.52        66.01029
615.96         66.0052
616.39         65.5094
616.82        65.72016
617.25        65.75648
617.68        65.75406
618.11        65.64706
618.54        65.48904
618.97        65.59303
619.40        65.82449
619.84        66.18251
620.27        65.91729
620.70        65.71075
621.13        65.37035
621.56         65.6845
621.99        65.34793
622.42         65.2457
622.85        65.67607
623.28          65.318
623.71            65.9
624.14        65.25378
624.57         65.5518
625.00        65.45707
625.43        65.18591
625.86        65.18859
626.29        65.40627
626.72        65.03093
627.15        65.26958
627.58        65.26304
628.01        65.41863
628.44        65.36066
628.87        65.08552
629.30        65.62903
629.73        65.55677
630.16        64.99151
630.59        65.25826
631.02         65.1667
631.45         65.1937
631.88        65.19598
632.31         65.2101
632.74        64.94512
633.17        65.05433
633.60        65.03966
634.03        65.09084
634.46        65.18494
634.89        65.29097
635.32        65.33394
635.75        65.29131
636.18        65.22327
636.61        65.14911
637.04        65.02768
637.47        64.90863
637.89        64.95821
638.32        65.12378
638.75        65.20459
639.18        65.17828
639.61        65.16062
640.04        65.14559
640.47        65.08949
640.90        65.00011
641.33         64.8622
641.76        64.70575
642.18        64.74268
642.61          64.728
643.04        64.84502
643.47        64.97623
643.90        65.05464
644.33        65.05733
644.76        65.00534
645.18        64.93204
645.61        64.87907
646.04        64.86196
646.47        64.86202
646.90        64.86933
647.33        64.86828
647.75        64.86263
648.18        64.87145
648.61        64.88413
649.04        64.91261
649.47        64.95124
649.89        64.88711
650.32        64.78708
650.75        64.95207
651.18         65.3099
651.61        65.43883
652.03        65.25275
652.46        65.03437
652.89        64.94299
653.32        64.60822
653.74        64.42219
654.17        65.22929
654.60        64.68703
655.03        64.78362
655.46        64.66216
655.88        65.19232
656.31         67.5471
656.74        70.51585
657.16        69.07929
657.59        67.48708
658.02        65.63197
658.45        65.78768
658.87        65.86006
659.30         65.3331
659.73        65.48138
660.15        65.13058
660.58        64.95287
661.01        65.11272
661.44        65.48435
661.86        65.50503
662.29        65.14955
662.72        64.86385
663.14        64.75668
663.57          64.835
664.00        65.04036
664.42        65.09761
664.85        64.98865
665.27        64.89797
665.70        64.85925
666.13        64.84534
666.55        64.86677
666.98        64.90914
667.41         64.9763
667.83        65.07529
668.26         65.1916
668.69        65.33571
669.11        65.44897
669.54        65.45557
669.96        65.35596
670.39        65.08997
670.82         64.7905
671.24        64.83507
671.67        65.17335
672.09        65.36652
672.52        65.37032
672.94        65.34512
673.37        65.31952
673.80        65.28091
674.22        65.25993
674.65        65.21641
675.07        65.17986
675.50        65.19272
675.92        65.24698
676.35        65.27113
676.77         65.2608
677.20        65.24704
677.62        65.23492
678.05        65.20773
678.47        65.17029
678.90         65.1353
679.32        65.12212
679.75        65.17499
680.17        65.29072
680.60        65.45795
681.02         65.6213
681.45        65.66586
681.87        65.58179
682.30        65.41167
682.72        65.23513
683.15        65.13313
683.57        65.16397
684.00        65.34309
684.42        65.60683
684.85        65.80231
685.27         65.8858
685.70         65.9197
686.12        65.91865
686.54        65.91782
686.97        65.90914
687.39        65.88213
687.82        65.84608
688.24        65.69324
688.66         65.7469
689.09        65.73154
689.51         65.7422
689.94        65.73544
690.36        65.71506
690.78        65.68142
691.21        65.65047
691.63        65.64458
692.06        65.67093
692.48        65.72098
692.90        65.77067
693.33        65.77071
693.75        65.71781
694.17        65.63367
694.60        65.54208
695.02        65.51489
695.44        65.55721
695.87        65.63468
696.29         65.7317
696.71        65.85127
697.14        65.94955
697.56        65.98501
697.98        65.94614
698.41        65.92017
698.83         65.8947
699.25        65.84168
699.68        65.77406
700.10          65.786
700.52         65.8785
700.94        66.03348
701.37        66.18808
701.79        66.27296
702.21        66.24885
702.64          66.147
703.06        66.02009
703.48        65.97198
703.90        66.03127
704.33        66.16474
704.75        66.31385
705.17        66.36126
705.59        66.28252
706.01        66.09251
706.44        65.88609
706.86        65.92857
707.28        66.06189
707.70        66.39147
708.12         66.7496
708.55        66.89697
708.97        66.81247
709.39        66.69387
709.81        66.59332
710.23        66.47682
710.66        66.37641
711.08        66.36418
711.50        66.39934
711.92        66.39996
712.34        66.35491
712.76        66.29245
713.19        66.24175
713.61        66.29038
714.03        66.42787
714.45        66.61963
714.87        66.80654
715.29        66.90321
715.71        66.88996
716.13        66.79508
716.56        66.64406
716.98        66.55563
717.40        66.54113
717.82        66.58001
718.24        66.66068
718.66        66.76336
719.08        66.87164
719.50         66.9836
719.92        67.08686
720.34        67.15936
720.76        67.19266
721.19        67.18216
721.61        67.13183
722.03         67.0235
722.45        66.86494
722.87        66.66768
723.29        66.48449
723.71        66.39521
724.13        66.42301
724.55        66.55807
724.97        66.74212
725.39        66.87439
725.81        66.92546
726.23        66.91014
726.65        66.89384
727.07        66.98647
727.49        67.20312
727.91        67.50183
728.33        67.77826
728.75        67.86275
729.17        67.72026
729.59        67.41397
730.01        67.06211
730.43        66.85316
730.85        66.83977
731.27        66.96423
731.69        67.16186
732.10        67.32958
732.52        67.41428
732.94        67.49609
733.36        67.58708
733.78         67.5776
734.20        67.44878
734.62        67.73769
735.04        67.38236
735.46        67.54314
735.88        67.80861
736.30        67.71851
736.72        67.33038
737.13        67.19614
737.55         67.3327
737.97        67.46764
738.39        67.54244
738.81        67.51103
739.23        67.39799
739.65        67.43653
740.06        67.56515
740.48        67.56384
740.90        67.39483
741.32        67.26719
741.74        67.13507
742.16        67.11906
742.57          67.216
742.99        67.40317
743.41         67.6228
743.83        67.76671
744.25         67.8065
744.67        67.75867
745.08          67.692
745.50        67.68567
745.92        67.77499
746.34        67.92898
746.75        68.07207
747.17        68.09834
747.59         67.9907
748.01        67.73928
748.42        67.44942
748.84        67.39604
749.26        67.55851
749.68        67.64046
750.09        67.60797
750.51        67.60598
750.93        67.64932
751.35         67.7495
751.76        67.88945
752.18        67.96269
752.60        67.96278
753.01        67.96295
753.43        67.96397
753.85        67.96787
754.27        67.98127
754.68        68.01263
755.10        68.04602
755.52        68.05004
755.93        68.03069
756.35        68.00247
756.77        67.97419
757.18        68.05771
757.60        68.28098
758.02        68.36827
758.43        68.28801
758.85        68.82549
759.26        68.85665
759.68         68.6599
760.10         68.6964
760.51        67.62181
760.93        67.96096
761.34        68.07035
761.76        68.82616
762.18        69.13684
762.59        69.06614
763.01        68.92895
763.42        68.85653
763.84        68.76884
764.26         68.7364
764.67        68.87009
765.09        69.10396
765.50        69.07792
765.92        68.84787
766.33        68.73222
766.75        68.70621
767.16        68.64544
767.58        68.51177
768.00        68.44043
768.41        68.45834
768.83        68.50255
769.24        68.55968
769.66        68.60997
770.07        68.63165
770.49        68.70147
770.90        68.81616
771.32        68.88853
771.73        68.91949
772.15        68.91542
772.56        68.88507
772.97        68.88107
773.39        68.87709
773.80        68.74767
774.22        68.54955
774.63        68.68371
775.05        69.06228
775.46        69.26616
775.88        69.22054
776.29        69.19524
776.70        69.21445
777.12        69.22121
777.53        69.24622
777.95        69.28084
778.36        69.32945
778.77        69.38169
779.19        69.43911
779.60        69.51909
780.02        69.60127
780.43        69.69846
780.84        69.79053
781.26        69.80635
781.67        69.84396
782.09        70.04407
782.50        70.20149
782.91        70.72229
783.33        69.82928
783.74        69.68668
784.15        69.78375
784.57        69.83218
784.98         69.8008
785.39        69.71595
785.81        69.64378
786.22        69.81982
786.63        70.16788
787.04        70.33765
787.46        70.31645
787.87        70.28216
788.28        70.25647
788.70         70.2276
789.11        70.19996
789.52        70.08074
789.93        69.94053
790.35         70.1321
790.76        70.57388
791.17        70.63576
791.58        70.34138
792.00        70.26588
792.41        70.45062
792.82        70.51133
793.23        70.47636
793.65        70.57808
794.06        70.81586
794.47        71.09628
794.88        71.32412
795.29        71.20419
795.71        71.16125
796.12        70.75783
796.53        70.26721
796.94        70.23707
797.35        70.63326
797.76        70.75626
798.18        70.57694
798.59        70.59826
799.00        70.81891
799.41        70.91439
799.82        70.87278
800.23         70.8616
800.64        70.88945
801.06        70.87538
801.47        70.87267
801.88        70.89825
802.29        70.95645
802.70        71.05645
803.11        71.15199
803.52        71.15472
803.93        71.05116
804.34        70.86611
804.75        70.68979
805.17        70.65874
805.58        70.83289
805.99         71.1523
806.40        71.50681
806.81        71.70033
807.22        71.67807
807.63        71.51062
808.04        71.30558
808.45        71.23228
808.86        71.33783
809.27        71.56882
809.68        71.82727
810.09        71.93973
810.50        71.85858
810.91        71.64674
811.32        71.38689
811.73        71.21426
812.14        71.17413
812.55        71.21408
812.96        71.30547
813.37        71.42142
813.78        71.52684
814.19        71.59104
814.60        71.60775
815.01        71.61385
815.42        71.61214
815.83        71.55669
816.24        71.48978
816.65        71.51414
817.05         71.6496
817.46        71.83691
817.87         72.0053
818.28        71.99213
818.69        71.77275
819.10         71.3985
819.51        71.00571
819.92        70.83967
820.33        70.97307
820.74        71.32801
821.14        71.76254
821.55        72.09386
821.96        72.24366
822.37        72.26169
822.78        72.20563
823.19        72.18012
823.60        72.22221
824.00        72.31262
824.41        72.36651
824.82        72.34287
825.23        72.23182
825.64        72.06864
826.04        71.93159
826.45        71.90037
826.86        72.00543
827.27        72.21693
827.68         72.4636
828.08        72.65865
828.49        72.69975
828.90        72.64356
829.31         72.5407
829.72        72.48289
830.12         72.5171
830.53        72.56988
830.94        72.61028
831.35        72.55323
831.75        72.40547
832.16        72.16496
832.57        71.91759
832.97        71.76857
833.38        71.74919
833.79         71.8346
834.20        71.99201
834.60        72.17113
835.01        72.35648
835.42        72.53869
835.82        72.72595
836.23        72.85247
836.64        72.92869
837.04        72.99023
837.45         72.9725
837.86        72.87444
838.26        72.72545
838.67        72.52754
839.08        72.39213
839.48        72.47838
839.89        72.80603
840.29        73.30839
840.70        73.85606
841.11        74.24624
841.51        74.43237
841.92        74.42895
842.33         74.2923
842.73        74.11995
843.14        73.91493
843.54        73.69203
843.95        73.48488
844.35        73.36903
844.76         73.3476
845.17        73.40712
845.57        73.52522
845.98        73.60999
846.38         73.6547
846.79        73.66244
847.19        73.61734
847.60        73.44822
848.00         73.1823
848.41        72.80261
848.81        72.45895
849.22         72.3254
849.62        72.47159
850.03        72.82284
850.43        73.23396
850.84        73.38297
851.24        73.24326
851.65        72.83894
852.05        72.40196
852.46        72.25517
852.86        72.48012
853.27        72.95621
853.67        73.41811
854.07        73.69167
854.48        73.69221
854.88        73.53328
855.29        73.19627
855.69         72.8531
856.10        72.49616
856.50        72.18069
856.90        71.92193
857.31        71.77604
857.71         71.7962
858.12        71.91429
858.52        72.14035
858.92        72.35287
859.33        72.48964
859.73        72.60085
860.13        72.62122
860.54        72.47477
860.94        72.19938
861.34        71.79472
861.75        71.34719
862.15        71.05589
862.55        70.94439
862.96        70.99429
863.36        71.12559
863.76        71.18089
864.17        71.10806
864.57         70.9556
864.97        70.81475
865.38         70.8156
865.78        71.02397
866.18        71.36427
866.58        71.68342
866.99        71.73322
867.39         71.4889
867.79        71.01949
868.19        70.50358
868.60        70.16129
869.00        70.04331
869.40         70.1172
869.80        70.31713
870.21        70.52029
870.61        70.73184
871.01        70.90967
871.41        71.05262
871.81        71.16341
872.22        71.21626
872.62        71.22645
873.02        71.17331
873.42        71.03053
873.82        70.81711
874.22        70.57603
874.63        70.38958
875.03        70.33823
875.43         70.4399
875.83        70.65826
876.23        70.95281
876.63        71.24589
877.03        71.50087
877.44        71.73316
877.84        71.90169
878.24         71.9206
878.64        71.78045
879.04        71.48599
879.44        71.18955
879.84        71.11117
880.24        71.28359
880.64        71.67506
881.04        72.07121
881.44        72.09348
881.84        71.66209
882.24        70.87807
882.65        70.05562
883.05        69.82817
883.45        70.27863
883.85        71.19923
884.25        72.18114
884.65         72.6217
885.05        72.38808
885.45        71.66898
885.85        70.75896
886.25        70.16908
886.65        70.07378
887.05        70.32371
887.45        70.71687
887.85           70.95
888.25        70.92773
888.65        70.73707
889.04        70.50448
889.44        70.46452
889.84        70.64738
890.24        70.97031
890.64        71.24173
891.04        71.18076
891.44         70.7466
891.84        70.05004
892.24        69.34132
892.64        69.00304
893.04        69.12469
893.44        69.59534
893.83        70.21283
894.23        70.57792
894.63        70.61287
895.03        70.42879
895.43        70.19258
895.83        70.17434
896.23        70.43866
896.63        70.87138
897.02        71.33489
897.42        71.68027
897.82        71.84978
898.22         71.9043
898.62        71.89378
899.01        71.90655
899.41        71.94585
899.81        71.97638
900.21        71.97839
900.61        71.92988
901.00        71.81371
901.40        71.67581
901.80        71.49573
902.20        71.23974
902.59        70.93473
902.99        70.59922
903.39        70.32868
903.79        70.25896
904.18        70.41624
904.58        70.75878
904.98        71.19769
905.38        71.61625
905.77        71.95382
906.17        72.20888
906.57        72.39492
906.96        72.56426
907.36        72.69418
907.76        72.79462
908.15        72.76707
908.55        72.38581
908.95        71.68488
909.34        70.74828
909.74        69.90858
910.14        69.60616
910.53        69.93163
910.93        70.73404
911.33         71.7095
911.72        72.32205
912.12        72.39833
912.52         72.1264
912.91        71.69833
913.31        71.42549
913.70        71.39078
914.10         71.4684
914.49        71.66391
914.89        71.93588
915.29        72.25198
915.68        72.62124
916.08         72.9329
916.47        72.99339
916.87        72.79583
917.26        72.38466
917.66        71.90472
918.05        71.56161
918.45        71.40537
918.84        71.39406
919.24        71.46629
919.64        71.59241
920.03        71.76042
920.42        71.99732
920.82        72.21168
921.21        72.24586
921.61        72.06235
922.00          71.676
922.40        71.30054
922.79        71.39673
923.19        71.99495
923.58        72.97865
923.98        73.87945
924.37        74.04397
924.77        73.34064
925.16        71.96259
925.55        70.39725
925.95         69.4966
926.34        69.51616
926.74        70.19907
927.13        71.16495
927.52        71.69423
927.92        71.61993
928.31        71.16929
928.70        70.62726
929.10          70.412
929.49        70.63218
929.89        71.08517
930.28        71.66812
930.67        72.10792
931.07        72.28368
931.46         72.3175
931.85        72.20518
932.24        71.96349
932.64        71.63463
933.03         71.2182
933.42        70.83382
933.82        70.67822
934.21        70.79897
934.60        71.16341
934.99        71.64432
935.39        71.98913
935.78        72.15099
936.17        72.16875
936.56        72.13994
936.96        72.23022
937.35        72.51798
937.74        72.89153
938.13        73.23411
938.53        73.39394
938.92        73.34354
939.31        73.12788
939.70        72.83117
940.09        72.59745
940.49        72.45363
940.88        72.39687
941.27        72.36171
941.66        72.24625
942.05        72.03881
942.44         71.8081
942.84        71.61633
943.23        71.49495
943.62        71.49026
944.01        71.56461
944.40        71.74413
944.79         72.0777
945.18        72.51893
945.57        72.99583
945.97        73.33599
946.36        73.36814
946.75        73.03156
947.14        72.40368
947.53        71.58703
947.92        70.78036
948.31        70.10769
948.70        69.56653
949.09        69.22832
949.48        69.17393
949.87        69.39352
950.26        69.86129
950.65        70.44948
951.04         70.9445
951.43        71.27221
951.82         71.4502
952.21        71.51506
952.60        71.56328
952.99        71.61702
953.38        71.62492
953.77        71.56554
954.16        71.41503
954.55        71.16767
954.94        70.85154
955.33        70.47136
955.72        70.02336
956.11        69.52187
956.50        68.98277
956.89        68.45667
957.28        68.02187
957.66        67.74559
958.05        67.62479
958.44        67.62549
958.83        67.67521
959.22        67.73537
959.61        67.76812
960.00        67.84879
960.39        68.10779
960.78        68.53928
961.16        69.13126
961.55        69.56744
961.94        69.41987
962.33        68.64009
962.72        67.43157
963.11         66.2351
963.49        65.69479
963.88        65.94181
964.27        66.77408
964.66        67.90334
965.04        68.79993
965.43        69.17022
965.82        69.22337
966.21        69.03431
966.60        68.73325
966.98        68.40305
967.37        67.92474
967.76        67.48092
968.15        67.41921
968.53        67.82066
968.92        68.61224
969.31        69.45144
969.69        69.76907
970.08        69.46146
970.47        68.73399
970.86        67.97588
971.24        67.89005
971.63        68.58434
972.02        69.77475
972.40        71.20135
972.79        72.40202
973.17        73.32381
973.56        74.00657
973.95        74.43265
974.33        74.50866
974.72        74.22562
975.11         73.5989
975.49        72.72269
975.88        71.82355
976.26        71.02538
976.65        70.32096
977.04        69.79163
977.42         69.5097
977.81        69.42912
978.19        69.51633
978.58        69.78613
978.96        70.15694
979.35        70.54092
979.74        70.97771
980.12        71.33188
980.51        71.18437
980.89        70.60452
981.28        69.60291
981.66        68.65336
982.05        68.65547
982.43        69.77511
982.82        71.66336
983.20        73.69968
983.59        74.76238
983.97        74.68153
984.35        73.72855
984.74        72.30502
985.12        71.15459
985.51        70.57668
985.89        70.38627
986.28         70.5046
986.66        70.89501
987.04        71.43957
987.43        72.13717
987.81        72.82789
988.20        73.10355
988.58        72.89857
988.96        72.29354
989.35        71.35544
989.73         70.3009
990.12        69.17475
990.50        67.88474
990.88        66.68811
991.27        66.18128
991.65        66.53733
992.03        67.62679
992.42        68.76023
992.80        69.33647
993.18        69.13456
993.56        68.26958
993.95        67.15922
994.33         66.6765
994.71        67.27398
995.10        68.45731
995.48        69.71807
995.86        70.46296
996.24        70.64389
996.63        70.38051
997.01        70.01305
997.39        70.10989
997.77        70.84909
998.15        72.03112
998.54        73.03748
998.92        73.06622
999.30        71.99606
999.68         70.0494
1000.06        67.98434
1000.45        67.17561
1000.83        68.04996
1001.21        70.07186
1001.59        72.30344
1001.97        73.36127
1002.35          72.917
1002.73        71.39745
1003.12        69.25018
1003.50        67.40205
1003.88        66.44447
1004.26        66.02002
1004.64        66.19263
1005.02        67.05314
1005.40        68.50073
1005.78        70.65189
1006.16        72.76319
1006.54        73.41183
1006.92        72.27853
1007.30        69.69028
1007.69        66.98093
1008.07         66.3487
1008.45        68.32516
1008.83        72.10723
1009.21         76.2188
1009.59        78.57191
1009.97        78.62087
1010.35        76.81003
1010.73        73.81159
1011.11        71.49622
1011.49          70.909
1011.86        71.60677
1012.24        72.76999
1012.62        73.47341
1013.00        73.46483
1013.38        73.19986
1013.76        72.83062
1014.14        72.50138
1014.52        72.30814
1014.90        72.06508
1015.28        71.95235
1015.66        72.40324
1016.04        73.41915
1016.41        74.90878
1016.79        76.14537
1017.17        76.41299
1017.55        75.63345
1017.93        74.16628
1018.31        72.48836
1018.69        71.32698
1019.06        70.97506
1019.44        71.22529
1019.82        72.14349
1020.20        73.74833
1020.58        75.69237
1020.95        77.64051
1021.33        79.05029
1021.71        79.23464
1022.09        78.12514
1022.46        75.88278
1022.84        72.79609
1023.22        69.26855
1023.60        65.54456
1023.97        61.38955
1024.35        57.49015
1024.73        54.88514
