SpectraSmart Spectrum 2.9.0.0
--------- Device Information -----------
Spectrum Name :  反射率_0
Saving Time :  2024/04/27 23:39:18
Spectro-Module Model Name : SE2030-DUVN
Spectro-Module Serial Number : OS361AC55029948
Wavelength Start : 200
Wavelength End : 1025
Wavelength Unit : Wavelength(nm)
Spectrum Unit : Reflectance(%)
-----------Spectrum Setting ------------
Integration Time : 20ms
Average : 10
Boxcar : 0
Background removal :  enabled
linearity correction :  enabled
SC :  disabled
Intensity correction :  disabled
DWT denoise :  enabled
savitzky-golay :  disabled
FFT :  disabled
Running average :  disabled
Kalman :  disabled
High pass :  disabled
---------------BEGIN--------------------
Wavelength(nm)             Reflectance(%)
200.29               0
200.75        64.81108
201.21        75.49796
201.67         83.4884
202.13        84.95848
202.58        81.80999
203.04        76.16035
203.50         71.8297
203.96        74.10757
204.42        81.87569
204.88        91.64537
205.34        99.35124
205.80        101.3742
206.26        97.19202
206.72        85.83345
207.18        66.71587
207.64        53.17887
208.10        56.99623
208.55        69.57156
209.01        78.89061
209.47        81.16118
209.93        76.24677
210.39        58.75007
210.85       0.6304185
211.31       -81.75919
211.77       -5.817011
212.23        50.23588
212.69        70.53158
213.14        76.10372
213.60        73.84876
214.06        65.57882
214.52        49.98362
214.98          37.943
215.44        41.99244
215.90        51.88673
216.36          59.902
216.81        63.69348
217.27        64.27091
217.73        63.48539
218.19        61.44494
218.65        57.85147
219.11        52.90778
219.57        46.43164
220.02        39.56157
220.48        36.88961
220.94        39.40644
221.40        45.05111
221.86        51.63112
222.32         57.0354
222.77        60.75885
223.23        63.21094
223.69        64.03986
224.15        62.64843
224.61        59.24781
225.06        53.95834
225.52        48.35001
225.98        45.46139
226.44        45.87459
226.90         47.8802
227.36         49.9295
227.81        50.79381
228.27        50.39659
228.73        49.07671
229.19        46.81638
229.65        43.77035
230.10         40.2824
230.56         36.8331
231.02        33.68583
231.48        31.21939
231.93        29.47421
232.39        28.43623
232.85        28.31791
233.31        29.37165
233.77        31.40615
234.22         34.2739
234.68        36.94795
235.14        38.25733
235.60        38.03229
236.05        36.31808
236.51        34.36415
236.97        34.80326
237.43        38.46513
237.88        44.65874
238.34        50.80441
238.80        54.31567
239.26        54.65358
239.71        51.56402
240.17        45.55923
240.63        43.31556
241.08        49.81167
241.54        59.61595
242.00        67.18243
242.46        70.84543
242.91        71.69804
243.37        70.06947
243.83        64.92747
244.28        57.89402
244.74        57.30495
245.20        63.31506
245.66        68.83186
246.11        70.92862
246.57        70.47694
247.03        68.35207
247.48        65.50294
247.94        66.85992
248.40        74.75388
248.85        84.74771
249.31        92.52457
249.77        95.29549
250.22        94.33187
250.68        91.74487
251.14        88.95088
251.59         86.9827
252.05        85.71579
252.51        84.02274
252.96        81.34448
253.42        78.56581
253.88        76.46936
254.33        75.73557
254.79        74.91889
255.25        71.75934
255.70        66.80359
256.16        61.73154
256.62        58.47578
257.07        59.15366
257.53        62.81962
257.99         67.0418
258.44        69.87994
258.90         70.1803
259.35        68.03547
259.81        64.93903
260.27        61.52775
260.72        58.57357
261.18        56.60102
261.63        55.04301
262.09        53.94233
262.55        52.97962
263.00          51.993
263.46        51.16801
263.91        50.42743
264.37        49.98856
264.83        49.74036
265.28        49.54639
265.74        49.27699
266.19         48.5743
266.65        47.48885
267.11        46.09541
267.56        44.59167
268.02        43.39058
268.47        42.55311
268.93        41.99214
269.38        41.54335
269.84        40.97173
270.30        40.19906
270.75         39.2906
271.21        38.33583
271.66        37.41943
272.12        36.58983
272.57        35.78305
273.03        34.96869
273.48        34.03184
273.94        33.02645
274.39        31.97873
274.85        31.04149
275.31        30.34554
275.76        29.87704
276.22          29.591
276.67        29.33861
277.13        28.99738
277.58        28.49586
278.04         27.9344
278.49        27.31515
278.95        26.74479
279.40        26.20955
279.86        25.73572
280.31        25.31969
280.77        25.06672
281.22        24.93985
281.68        24.94742
282.13         24.9803
282.59        24.92609
283.04        24.75014
283.50        24.49392
283.95        24.23751
284.41        24.13806
284.86        24.20659
285.32        24.41297
285.77        24.62623
286.22        24.69226
286.68        24.60531
287.13        24.38698
287.59        24.19663
288.04        24.20185
288.50        24.45264
288.95         24.8497
289.41         25.2625
289.86        25.45198
290.32        25.40145
290.77        25.19902
291.22        24.99327
291.68        24.99474
292.13         25.2589
292.59        25.74892
293.04        26.40282
293.50        27.14381
293.95        27.93675
294.40        28.82463
294.86        29.83554
295.31        30.99746
295.77        32.32162
296.22        33.76703
296.68        35.30244
297.13        36.85554
297.58        38.39267
298.04        39.90965
298.49        41.41234
298.95        42.95938
299.40        44.56214
299.85        46.21585
300.31        47.91061
300.76        49.56921
301.21        51.17598
301.67        52.76337
302.12         54.3133
302.58        55.88102
303.03        57.44931
303.48        59.02202
303.94        60.64749
304.39        62.31843
304.84        64.05082
305.30        65.84465
305.75        67.59872
306.20        69.24412
306.66        70.78044
307.11        72.17877
307.57        73.52016
308.02        74.82011
308.47        76.10275
308.93        77.35674
309.38        78.50561
309.83        79.52416
310.29        80.43182
310.74        81.23112
311.19        81.97555
311.65        82.72309
312.10        83.45697
312.55        84.16341
313.00        84.83394
313.46        85.46129
313.91        86.03098
314.36        86.57059
314.82        87.05074
315.27         87.4186
315.72        87.67222
316.18        87.83348
316.63        87.97667
317.08        88.25594
317.53        88.69762
317.99        89.25603
318.44         89.8126
318.89        90.14769
319.35        90.21669
319.80        90.09819
320.25        89.93536
320.70        89.96837
321.16        90.24563
321.61        90.70266
322.06        91.22195
322.51        91.61983
322.97        91.82574
323.42        91.93448
323.87        91.97556
324.32        92.01701
324.78        92.07745
325.23        92.15496
325.68        92.26812
326.13        92.47857
326.59        92.76615
327.04        93.16615
327.49        93.57331
327.94         93.8393
328.39        93.92895
328.85        93.84604
329.30         93.7543
329.75        93.80859
330.20        94.06693
330.66        94.46651
331.11        94.95364
331.56        95.32911
332.01        95.55104
332.46        95.66238
332.92        95.74724
333.37        96.08218
333.82        96.66837
334.27         97.4234
334.72        98.17652
335.17        98.65678
335.63        98.77617
336.08        98.67744
336.53         98.4881
336.98        98.45893
337.43        98.68333
337.88        99.10065
338.34        99.64217
338.79        100.2371
339.24        100.8203
339.69        101.4063
340.14        101.9873
340.59        102.5421
341.05        103.0668
341.50        103.5777
341.95        104.0255
342.40        104.3626
342.85        104.6002
343.30        104.7437
343.75        104.9479
344.20        105.4583
344.66        106.2995
345.11        107.3776
345.56        108.4166
346.01        108.9716
346.46        108.9584
346.91        108.5317
347.36        107.9816
347.81        107.7592
348.26        107.9787
348.72        108.5004
349.17        109.1416
349.62        109.6256
350.07        109.8579
350.52        109.9325
350.97          109.91
351.42        109.8776
351.87        109.8718
352.32        109.8521
352.77        109.8143
353.22          109.77
353.67        109.7157
354.13        109.6656
354.58        109.5871
355.03        109.4821
355.48        109.3393
355.93        109.1532
356.38        108.8959
356.83        108.5262
357.28        108.0451
357.73        107.4787
358.18         106.872
358.63        106.2906
359.08        105.7602
359.53         105.273
359.98        104.8193
360.43        104.3809
360.88        103.9425
361.33        103.4948
361.78         103.036
362.23        102.5643
362.68        102.0711
363.13        101.5547
363.58        100.9759
364.03        100.2733
364.48        99.45754
364.93        98.56637
365.38        97.67878
365.83          96.915
366.28        96.30248
366.73        95.79997
367.18        95.36588
367.63        94.92756
368.08        94.45483
368.53        93.97154
368.98        93.44949
369.43        92.84505
369.88        92.15868
370.33        91.39402
370.78        90.63201
371.23        90.01065
371.68         89.5566
372.13        89.23438
372.58        88.94018
373.03        88.49927
373.48        87.87387
373.93        87.12504
374.38        86.35581
374.83        85.72339
375.28        85.26971
375.72        84.92862
376.17        84.66037
376.62        84.34013
377.07        83.92773
377.52        83.43832
377.97         82.9263
378.42        82.47616
378.87        82.10308
379.32        81.78986
379.77        81.43627
380.22        80.88776
380.67        80.13158
381.11        79.23041
381.56        78.35768
382.01          77.806
382.46         77.6429
382.91        77.77618
383.36        78.00578
383.81        78.01636
384.26        77.72591
384.71        77.22542
385.15        76.64175
385.60        76.23461
386.05        76.04634
386.50        75.99074
386.95        75.96677
387.40        75.83035
387.85        75.54797
388.29        75.13497
388.74        74.73864
389.19        74.38418
389.64        74.07502
390.09        73.76579
390.54        73.43951
390.98        73.06223
391.43        72.68918
391.88        72.34705
392.33        71.99805
392.78        71.67439
393.23        71.41073
393.67        70.95481
394.12        70.45905
394.57        70.83582
395.02        70.90464
395.47        70.87243
395.91        70.44946
396.36        70.24346
396.81        70.28326
397.26        70.24355
397.71        70.09793
398.15        69.94096
398.60        69.84323
399.05         69.6068
399.50        69.32462
399.95        69.35407
400.39        69.58891
400.84        69.47681
401.29        69.00585
401.74        68.45116
402.18         67.9704
402.63        67.78288
403.08        67.86768
403.53        67.84251
403.97        67.67934
404.42        67.66235
404.87        67.76062
405.32        67.80354
405.76        67.76398
406.21        67.65913
406.66         67.5021
407.11        67.41617
407.55        67.38913
408.00        67.16637
408.45        66.81129
408.90        66.56419
409.34        66.46232
409.79         66.4772
410.24        66.55853
410.68        66.62356
411.13        66.64468
411.58        66.66912
412.03        66.69968
412.47        66.73054
412.92        66.73682
413.37        66.73169
413.81        66.70473
414.26        66.69614
414.71        66.69592
415.15        66.72021
415.60        66.74023
416.05        66.76035
416.49        66.78591
416.94        66.80666
417.39        66.83762
417.83        66.90026
418.28        66.98593
418.73        67.06645
419.17        67.12856
419.62        67.15689
420.07        67.15991
420.51        67.15562
420.96        67.12782
421.41        67.06386
421.85        66.95582
422.30        66.67854
422.74        66.36464
423.19        66.71226
423.64        67.55347
424.08        67.89276
424.53        67.61559
424.98         67.5959
425.42          67.881
425.87        67.80963
426.31        67.50072
426.76        67.67348
427.21        68.23934
427.65        68.45186
428.10         68.3224
428.54        68.34573
428.99         68.5383
429.44        68.93649
429.88        69.32549
430.33        68.75708
430.77        67.61208
431.22        67.71084
431.66        68.88884
432.11         69.3818
432.56        69.15996
433.00        69.46869
433.45        70.02437
433.89        70.18318
434.34        70.13805
434.78        68.72632
435.23        68.59235
435.67        69.82584
436.12        70.61928
436.57        70.89772
437.01         70.1899
437.46        69.91019
437.90        70.53584
438.35        71.34791
438.79        71.12059
439.24        71.21202
439.68        71.29183
440.13        71.29809
440.57        71.26444
441.02        71.57247
441.46        72.07294
441.91        71.90639
442.35        71.24555
442.80        71.53654
443.24        72.54509
443.69        72.62787
444.13        71.85567
444.58        71.74264
445.02        72.16363
445.47         72.4364
445.91        72.45937
446.36        72.55874
446.80        72.70461
447.24        72.81272
447.69        72.76923
448.13        72.91043
448.58        73.12043
449.02        72.97816
449.47        72.60196
449.91         72.4976
450.36        72.72313
450.80        72.98348
451.25        73.21734
451.69        73.42325
452.13        73.55427
452.58        73.54419
453.02         73.4363
453.47        73.34074
453.91        73.27215
454.36        73.30737
454.80        73.34076
455.24        73.02443
455.69        72.49644
456.13        72.13101
456.58        72.09422
457.02        72.15856
457.46         72.8587
457.91        72.71702
458.35        72.28437
458.79        72.08606
459.24        72.24102
459.68        72.26357
460.13        72.15416
460.57        71.93641
461.01        71.97209
461.46        71.65012
461.90        71.55973
462.34        71.55615
462.79        72.00715
463.23        71.91129
463.68        71.56178
464.12        71.35355
464.56        71.38488
465.01        71.60076
465.45        71.75134
465.89        71.57865
466.34        71.19591
466.78        70.75186
467.22         70.3065
467.67        70.90203
468.11        70.55086
468.55        70.65783
468.99         70.6283
469.44        70.68957
469.88        70.82027
470.32        70.87695
470.77        70.84933
471.21        70.78026
471.65        70.66907
472.10        70.51167
472.54        70.32637
472.98        70.19383
473.42        70.13537
473.87        70.12231
474.31        70.09534
474.75        70.15409
475.20        70.24187
475.64        70.09445
476.08        69.74426
476.52        69.70634
476.97        70.02763
477.41         69.8848
477.85        69.92656
478.29        70.52504
478.74         69.7934
479.18        69.73211
479.62        69.82349
480.06        69.86624
480.50        69.88412
480.95        69.93324
481.39        69.90363
481.83        70.24916
482.27        69.93367
482.72        69.69907
483.16        69.60468
483.60        69.48612
484.04        69.43163
484.48        69.55541
484.93        69.94736
485.37         69.7582
485.81        70.22209
486.25         70.2262
486.69        70.50793
487.14        69.98767
487.58        70.00821
488.02        70.11347
488.46        70.44536
488.90        70.43577
489.34        69.49274
489.79        68.71259
490.23        69.39629
490.67          69.492
491.11        69.36263
491.55        69.25861
491.99        69.21574
492.43        69.22713
492.88        69.26988
493.32        69.27989
493.76        69.25381
494.20        69.29651
494.64        69.41688
495.08        69.56565
495.52        69.70892
495.96        69.79361
496.41        69.80276
496.85        69.75369
497.29        69.64795
497.73        69.61571
498.17        69.56215
498.61         69.5729
499.05        69.58788
499.49        69.57789
499.93        69.58031
500.37        69.53111
500.82        69.40159
501.26        69.52261
501.70        69.95486
502.14        69.10309
502.58        69.48925
503.02        69.41436
503.46        69.33562
503.90        69.33389
504.34        69.33224
504.78        69.38024
505.22        69.41148
505.66        69.36862
506.10        69.29546
506.54        69.22089
506.98        69.12541
507.42        69.40945
507.86        69.39386
508.30        69.23632
508.74        69.39223
509.18        69.34812
509.62        69.30392
510.06        69.26086
510.50        69.23483
510.94        69.20666
511.38        69.17757
511.82        69.16586
512.26        69.16948
512.70        69.18987
513.14        69.21468
513.58        69.19564
514.02        69.12586
514.46         69.0679
514.90        69.05836
515.34        68.91245
515.78        69.03447
516.22        69.08397
516.66        69.16239
517.10        69.23215
517.54        69.28285
517.98        69.32101
518.42        69.32446
518.86        69.26917
519.30        69.15924
519.74        69.00709
520.18        68.86654
520.62        68.82065
521.06        68.88692
521.50        69.04358
521.93        69.23708
522.37        69.36306
522.81         69.3966
523.25        69.35688
523.69        69.28754
524.13        69.26084
524.57        69.29158
525.01         69.3542
525.45        69.40189
525.89        69.36255
526.32        69.22202
526.76        69.02991
527.20        68.83695
527.64        68.72979
528.08        68.73038
528.52        68.80002
528.96        68.91132
529.40        69.03461
529.83        69.13551
530.27        69.20732
530.71        69.22964
531.15         69.2085
531.59        69.14549
532.03        69.02524
532.46        68.88428
532.90        68.81537
533.34        68.83009
533.78        68.90963
534.22        68.99994
534.66        69.01591
535.09        68.93166
535.53        68.79081
535.97         68.6405
536.41        68.57094
536.85        68.60133
537.28        68.70666
537.72         68.8235
538.16        68.84119
538.60        68.74249
539.04        68.58221
539.47        68.41347
539.91        68.35414
540.35        68.40903
540.79         68.5527
541.22        68.71938
541.66        68.81185
542.10        68.80315
542.54        68.72977
542.97        68.62697
543.41        68.58868
543.85        68.61624
544.29        68.67723
544.72        68.73998
545.16        68.76959
545.60        68.73948
546.04        68.74013
546.47        68.75204
546.91        68.59354
547.35        68.35194
547.79        68.37498
548.22        68.59602
548.66        68.72672
549.10        68.69784
549.53        68.57619
549.97        68.42194
550.41        68.36391
550.84        68.42117
551.28        68.50517
551.72        68.57573
552.15        68.60307
552.59        68.59314
553.03        68.54779
553.46        68.47021
553.90        68.42861
554.34        68.41803
554.77        68.40057
555.21        68.38667
555.65        68.46465
556.08        68.52366
556.52        68.59011
556.96        68.59858
557.39        68.58666
557.83        68.54596
558.27        68.35049
558.70        68.08704
559.14        67.97483
559.57        68.02751
560.01        68.26911
560.45        68.57438
560.88        68.57772
561.32        68.37404
561.75        68.37291
562.19        68.57976
562.63        68.60895
563.06        68.45753
563.50        68.36049
563.93        68.32255
564.37        68.31557
564.80        68.31348
565.24        68.33208
565.68        68.34349
566.11        68.35583
566.55        68.39317
566.98        68.34205
567.42        68.26212
567.85        68.38038
568.29        68.67162
568.72        68.64156
569.16        68.37917
569.60        68.40251
570.03         68.7302
570.47        68.54557
570.90        68.72319
571.34        68.82625
571.77         68.9926
572.21        68.66541
572.64        69.11526
573.08        68.57654
573.51        68.34933
573.95        68.62267
574.38        68.80723
574.82        68.70579
575.25        68.94787
575.69        68.82182
576.12        68.45441
576.56        68.85974
576.99        68.69878
577.42        68.86331
577.86         68.7692
578.29        68.99912
578.73        69.03506
579.16        69.02733
579.60        68.79295
580.03        68.69545
580.47        68.67274
580.90        68.98265
581.33        68.92428
581.77        69.34074
582.20        69.04134
582.64        69.40574
583.07        68.86409
583.51        68.63607
583.94        68.60197
584.37        68.57755
584.81        68.61835
585.24        68.70974
585.68         68.8602
586.11        68.86814
586.54        68.70542
586.98        68.57228
587.41        68.92424
587.85        68.65301
588.28         68.6452
588.71        68.22047
589.15        68.73942
589.58        68.46981
590.01        68.72511
590.45         68.9407
590.88        68.31095
591.31        68.33231
591.75        68.66353
592.18        68.49837
592.61        68.00114
593.05        68.58832
593.48        69.23196
593.91        68.44801
594.35        68.72092
594.78        68.72746
595.21        68.11542
595.65        68.31084
596.08        68.33936
596.51        68.64924
596.94         68.1863
597.38        68.18766
597.81        68.50957
598.24        68.16528
598.68        68.56763
599.11        68.20405
599.54        68.72964
599.97        68.34547
600.41        68.94064
600.84        68.91933
601.27        68.70103
601.70        68.63428
602.14        68.07357
602.57        68.33994
603.00        68.44804
603.43         68.5516
603.87        68.70793
604.30        68.44283
604.73        68.72145
605.16        68.65555
605.60        68.39795
606.03        68.59075
606.46        69.10026
606.89        68.99928
607.32        68.80412
607.76        69.04828
608.19         68.8707
608.62        68.82657
609.05        68.66525
609.48        68.64336
609.92        68.73636
610.35        68.64765
610.78        68.87495
611.21         68.4096
611.64        68.80917
612.07        68.67413
612.50        68.48106
612.94        68.38256
613.37        68.41933
613.80        68.60226
614.23        68.63781
614.66        68.66016
615.09        68.60838
615.52        68.56164
615.96        68.51398
616.39        68.45916
616.82        68.52378
617.25        68.20456
617.68        68.37922
618.11        68.33752
618.54        68.38834
618.97        68.54902
619.40         68.6879
619.84        69.06282
620.27        68.90088
620.70        68.64812
621.13        68.11288
621.56        68.59936
621.99        68.57341
622.42        68.35191
622.85        68.18717
623.28        68.27118
623.71        68.42778
624.14        68.00162
624.57        68.27599
625.00        68.48194
625.43        68.16454
625.86        68.16869
626.29        68.22414
626.72        68.29213
627.15        68.15668
627.58        68.10998
628.01        68.16051
628.44         68.0456
628.87         68.0588
629.30        68.39433
629.73         67.9764
630.16        67.86353
630.59        67.89886
631.02        68.00688
631.45        68.15483
631.88        68.24358
632.31        68.27872
632.74        67.96627
633.17        68.02766
633.60        67.94975
634.03        67.94455
634.46        68.02014
634.89         68.1227
635.32        68.06413
635.75        67.85477
636.18        67.73822
636.61        67.73917
637.04        67.67314
637.47        67.58533
637.89        67.73252
638.32        68.03836
638.75        68.21354
639.18        68.21903
639.61        68.19147
640.04         68.1446
640.47        68.06557
640.90        67.97398
641.33         67.8513
641.76        67.70773
642.18        67.71626
642.61        67.64004
643.04        67.65405
643.47        67.68824
643.90        67.74092
644.33        67.80014
644.76        67.87382
645.18        67.91676
645.61         67.8429
646.04         67.6482
646.47        67.35529
646.90        67.07198
647.33        66.97091
647.75        67.09216
648.18        67.40276
648.61         67.7678
649.04        67.95218
649.47        67.91667
649.89        67.73525
650.32        67.52477
650.75        67.51466
651.18        67.69258
651.61        67.82777
652.03         67.8369
652.46        67.71075
652.89        67.58286
653.32        67.41235
653.74        67.51669
654.17        67.80122
654.60        67.86658
655.03        67.27671
655.46        66.91868
655.88        68.51154
656.31        69.42097
656.74        70.54049
657.16        69.48241
657.59          68.866
658.02        67.86253
658.45        68.20729
658.87        68.28625
659.30         67.9967
659.73        68.21729
660.15        68.28446
660.58        68.13079
661.01        68.23689
661.44        68.39315
661.86        68.21598
662.29        67.76954
662.72        67.51608
663.14        67.54916
663.57        67.75932
664.00        68.04215
664.42        68.15866
664.85        68.07053
665.27        67.90128
665.70        67.71738
666.13        67.58945
666.55        67.55093
666.98        67.56458
667.41        67.61529
667.83        67.67923
668.26         67.7377
668.69        67.81948
669.11        67.89717
669.54        67.93937
669.96        67.95107
670.39        67.84593
670.82        67.71371
671.24        67.87358
671.67        68.25054
672.09        68.40412
672.52        68.32025
672.94        68.21852
673.37        68.14504
673.80        68.07365
674.22        68.02636
674.65        67.94408
675.07        67.85661
675.50        67.82426
675.92        67.84846
676.35        67.86475
676.77        67.87148
677.20        67.89204
677.62         67.9309
678.05         67.9725
678.47        68.01028
678.90        68.04676
679.32        68.08488
679.75        68.13297
680.17        68.18761
680.60        68.29619
681.02        68.40484
681.45        68.33543
681.87        68.14702
682.30        67.99374
682.72        67.93587
683.15        68.09782
683.57        68.38163
684.00        68.28269
684.42        67.89452
684.85        67.83442
685.27        68.11909
685.70        68.39163
686.12        68.55889
686.54        68.66877
686.97        68.67892
687.39         68.5713
687.82        68.40514
688.24         68.1897
688.66        68.29661
689.09        68.26064
689.51        68.41525
689.94        68.46879
690.36        68.48997
690.78        68.47156
691.21        68.43946
691.63        68.46551
692.06         68.5369
692.48        68.54535
692.90        68.49046
693.33        68.44691
693.75          68.423
694.17        68.37904
694.60        68.31455
695.02        68.30249
695.44        68.34478
695.87          68.367
696.29        68.37871
696.71        68.53765
697.14        68.75459
697.56        68.71066
697.98        68.45835
698.41         68.4079
698.83        68.55974
699.25        68.71951
699.68        68.82104
700.10        68.90448
700.52        68.94051
700.94        68.92291
701.37        68.86063
701.79        68.80734
702.21        68.76049
702.64        68.72666
703.06        68.69436
703.48        68.66495
703.90          68.645
704.33        68.63177
704.75        68.64037
705.17        68.67175
705.59        68.72364
706.01        68.76454
706.44        68.79159
706.86        68.92668
707.28        68.97215
707.70        69.07768
708.12        69.16552
708.55        69.17938
708.97        69.11286
709.39        69.01524
709.81        68.92666
710.23        68.89335
710.66        68.93035
711.08        69.04852
711.50        69.18155
711.92        69.23794
712.34        69.20026
712.76        69.09867
713.19        68.97153
713.61        68.93172
714.03         68.9854
714.45        69.09846
714.87        69.24007
715.29        69.36417
715.71        69.45238
716.13        69.51969
716.56        69.54211
716.98        69.55393
717.40        69.53786
717.82        69.49219
718.24        69.44257
718.66        69.43373
719.08        69.47363
719.50        69.54884
719.92        69.63165
720.34        69.67444
720.76        69.66283
721.19        69.60221
721.61        69.52211
722.03        69.43897
722.45        69.36562
722.87        69.30234
723.29        69.25388
723.71        69.22601
724.13        69.22421
724.55        69.25237
724.97        69.31699
725.39        69.42471
725.81        69.56792
726.23        69.73129
726.65        69.89382
727.07        70.02827
727.49        70.12202
727.91        70.17574
728.33        70.18505
728.75        70.14728
729.17        70.06989
729.59        69.96288
730.01        69.84583
730.43        69.74952
730.85        69.68526
731.27        69.64722
731.69        69.64609
732.10        69.69392
732.52        69.77236
732.94        69.92722
733.36        70.12473
733.78        70.18855
734.20        70.07616
734.62        70.32944
735.04        69.88644
735.46        70.09486
735.88        70.49636
736.30        70.40582
736.72        69.88793
737.13        69.67236
737.55        69.81445
737.97        70.01717
738.39         70.1931
738.81        70.25023
739.23        70.17864
739.65        70.15992
740.06         70.1835
740.48        70.17236
740.90        70.10001
741.32        70.10476
741.74        70.08858
742.16        70.12501
742.57        70.18919
742.99        70.27913
743.41        70.37286
743.83         70.4137
744.25        70.39379
744.67        70.32066
745.08        70.26085
745.50        70.28252
745.92        70.40855
746.34        70.61256
746.75        70.81175
747.17        70.83763
747.59        70.65138
748.01        70.38999
748.42        70.14991
748.84        69.82238
749.26        69.54171
749.68        69.88339
750.09        70.62183
750.51        70.67957
750.93        70.13181
751.35        70.04436
751.76        70.40997
752.18        70.46491
752.60        70.20184
753.01           70.05
753.43        70.05244
753.85        70.09745
754.27        70.18365
754.68        70.47853
755.10        70.65334
755.52        70.79697
755.93        70.81094
756.35        70.73128
756.77        70.61599
757.18        70.59789
757.60        70.71537
758.02        70.84373
758.43        70.96313
758.85        71.17151
759.26        71.34053
759.68        71.29554
760.10        71.20926
760.51        70.34384
760.93        70.89884
761.34        70.91492
761.76        70.62077
762.18        70.67726
762.59        70.97403
763.01        71.16856
763.42        71.25528
763.84        71.32149
764.26        71.40402
764.67        71.48313
765.09        71.56601
765.50        71.54951
765.92        71.44904
766.33        71.26594
766.75        71.03998
767.16        70.95075
767.58        70.97267
768.00        71.27036
768.41        71.68774
768.83        71.46758
769.24        70.78757
769.66         70.6803
770.07        71.10761
770.49        71.35606
770.90        71.36919
771.32        71.40372
771.73        71.45404
772.15        71.50584
772.56        71.58214
772.97        71.46762
773.39        71.19635
773.80        71.49821
774.22        71.77315
774.63        71.94222
775.05        71.80845
775.46        71.80972
775.88        71.92059
776.29        71.92922
776.70        71.83942
777.12        71.78472
777.53        71.79841
777.95        71.81819
778.36        71.85677
778.77        71.91187
779.19        71.98325
779.60        72.10023
780.02        72.21535
780.43        72.28777
780.84        72.30316
781.26        72.20421
781.67        72.11964
782.09        72.31091
782.50        72.53072
782.91        72.97007
783.33         71.8192
783.74        71.61402
784.15        71.85993
784.57        71.97794
784.98        71.95755
785.39        72.19464
785.81        72.62528
786.22        72.86091
786.63        72.88228
787.04        72.94946
787.46        73.07168
787.87        73.07846
788.28        72.99395
788.70        72.92122
789.11        72.85571
789.52        72.80206
789.93        72.77884
790.35        72.75124
790.76        72.76241
791.17        72.89906
791.58        73.09818
792.00        73.15981
792.41        73.08023
792.82        72.94477
793.23        72.85892
793.65         72.8848
794.06        73.08493
794.47        73.58705
794.88        74.19714
795.29        74.27505
795.71        74.22777
796.12        73.81287
796.53        73.31396
796.94        73.07421
797.35        73.14345
797.76        73.20892
798.18         73.2207
798.59        73.30094
799.00        73.42533
799.41        73.49188
799.82        73.49483
800.23         73.4978
800.64        73.50344
801.06        73.45602
801.47        73.40872
801.88        73.37849
802.29        73.37749
802.70        73.41785
803.11        73.46951
803.52        73.47361
803.93        73.42027
804.34        73.31727
804.75        73.24484
805.17        73.32013
805.58         73.5863
805.99        73.99013
806.40        74.38717
806.81        74.50491
807.22        74.30168
807.63        73.92018
808.04        73.50713
808.45        73.27213
808.86        73.29615
809.27        73.53651
809.68        73.87298
810.09        74.07764
810.50        74.08188
810.91        73.95285
811.32         73.7821
811.73        73.73286
812.14        73.85052
812.55        74.03217
812.96        74.20136
813.37        74.34879
813.78        74.38857
814.19         74.1207
814.60        73.67679
815.01        73.46246
815.42        73.52943
815.83        73.68985
816.24        73.87207
816.65        74.01598
817.05        74.08193
817.46        74.06115
817.87        74.01317
818.28        73.97569
818.69        73.96458
819.10        73.95854
819.51        73.97852
819.92        74.06333
820.33        74.21185
820.74        74.41234
821.14        74.59474
821.55        74.68443
821.96        74.64585
822.37        74.49925
822.78        74.30999
823.19        74.19991
823.60        74.20957
824.00        74.33132
824.41        74.45592
824.82        74.49104
825.23        74.40985
825.64        74.25141
826.04        74.10614
826.45         74.0815
826.86        74.21279
827.27        74.45362
827.68        74.72433
828.08        74.92522
828.49         74.9545
828.90        74.89169
829.31        74.78208
829.72        74.70473
830.12        74.71212
830.53         74.7241
830.94        74.76827
831.35         74.8596
831.75        75.00809
832.16        75.16463
832.57        75.28388
832.97        75.24541
833.38        75.03153
833.79        74.71136
834.20        74.37904
834.60        74.16774
835.01        74.12653
835.42        74.20013
835.82        74.40512
836.23        74.68403
836.64        75.01865
837.04        75.42577
837.45        75.75213
837.86        75.85075
838.26        75.70824
838.67        75.35654
839.08        74.93999
839.48        74.69167
839.89        74.67883
840.29        74.83056
840.70         75.0863
841.11        75.34263
841.51        75.56992
841.92        75.76971
842.33        75.90092
842.73        75.88618
843.14        75.67638
843.54        75.31844
843.95        74.94015
844.35        74.78033
844.76        74.88058
845.17        75.17934
845.57        75.54805
845.98        75.72205
846.38        75.65626
846.79        75.40964
847.19        75.09387
847.60        74.84161
848.00        74.73093
848.41        74.67913
848.81        74.70811
849.22        74.78256
849.62        74.91278
850.03        75.08283
850.43        75.25381
850.84        75.27032
851.24        75.15716
851.65        74.89392
852.05        74.63251
852.46        74.54362
852.86        74.67371
853.27        74.96854
853.67        75.25879
854.07        75.49744
854.48        75.61398
854.88        75.67213
855.29        75.58023
855.69        75.37803
856.10        75.00307
856.50        74.56195
856.90        74.10354
857.31         73.7402
857.71         73.5595
858.12        73.47852
858.52        73.55825
858.92        73.75749
859.33        74.02449
859.73        74.39763
860.13        74.71978
860.54        74.74358
860.94         74.4529
861.34        73.87777
861.75        73.20076
862.15        72.78117
862.55        72.68589
862.96        72.85739
863.36        73.12598
863.76        73.18716
864.17        72.95419
864.57        72.52045
864.97        72.09797
865.38        71.99975
865.78        72.33704
866.18        72.99681
866.58        73.67119
866.99        73.83787
867.39        73.40517
867.79        72.51863
868.19        71.58016
868.60        71.14449
869.00        71.32588
869.40        71.99805
869.80        72.85345
870.21        73.31775
870.61        73.27764
871.01        72.85741
871.41        72.32928
871.81        72.07852
872.22        72.16477
872.62        72.47874
873.02        72.87109
873.42        73.06747
873.82        72.98341
874.22        72.75784
874.63        72.49908
875.03        72.31329
875.43        72.25165
875.83        72.25076
876.23        72.35755
876.63        72.66155
877.03        73.13982
877.44        73.74194
877.84        74.28267
878.24        74.42007
878.64        74.09277
879.04        73.42825
879.44        72.66074
879.84        72.11642
880.24        71.88174
880.64        71.88652
881.04        72.03738
881.44        72.16665
881.84        72.21049
882.24         72.2003
882.65        72.18704
883.05        72.35171
883.45        72.66433
883.85          73.057
884.25        73.36143
884.65        73.34339
885.05         72.9805
885.45        72.36453
885.85        71.71622
886.25        71.41445
886.65        71.56727
887.05        72.05924
887.45        72.68969
887.85        73.15069
888.25        73.33921
888.65        73.31826
889.04        73.16996
889.44        73.07755
889.84        73.07021
890.24        73.09108
890.64        73.04104
891.04        72.77629
891.44        72.29964
891.84        71.71231
892.24        71.17719
892.64        70.92706
893.04          71.022
893.44        71.38644
893.83        71.93909
894.23        72.47917
894.63        72.94497
895.03        73.34811
895.43        73.66501
895.83        73.86835
896.23        73.95374
896.63        73.91982
897.02        73.77781
897.42         73.5961
897.82        73.39458
898.22        73.19291
898.62        73.03333
899.01        72.98518
899.41         73.0434
899.81        73.19734
900.21         73.4165
900.61        73.64316
901.00        73.83395
901.40         74.0071
901.80         74.1157
902.20        74.10872
902.59         73.9953
902.99        73.77647
903.39        73.53762
903.79        73.40795
904.18         73.4229
904.58        73.56845
904.98        73.77058
905.38        73.92314
905.77        73.98403
906.17        73.96733
906.57        73.93334
906.96         74.0078
907.36        74.18404
907.76        74.44883
908.15         74.6526
908.55        74.47863
908.95        73.92044
909.34        73.06924
909.74        72.26083
910.14        71.95088
910.53        72.24082
910.93        72.97409
911.33        73.85078
911.72        74.35287
912.12        74.31264
912.52         73.9073
912.91        73.34983
913.31        72.97511
913.70        72.85986
914.10        72.88454
914.49        72.98287
914.89        72.98646
915.29        72.86761
915.68        72.70385
916.08        72.55269
916.47        72.47606
916.87        72.51306
917.26        72.61449
917.66        72.78199
918.05        72.98923
918.45         73.2119
918.84        73.47816
919.24        73.73294
919.64         73.9705
920.03        74.19247
920.42        74.37151
920.82        74.52258
921.21        74.67117
921.61        74.80077
922.00        74.90949
922.40        74.96827
922.79        75.00771
923.19        74.99728
923.58        74.99257
923.98        74.91379
924.37        74.69009
924.77        74.31118
925.16        73.78608
925.55        73.29893
925.95        73.15578
926.34        73.41925
926.74        73.99221
927.13        74.62632
927.52        74.82407
927.92        74.50888
928.31        73.81115
928.70        73.06384
929.10        72.77632
929.49        73.05844
929.89        73.71984
930.28        74.51657
930.67        74.89536
931.07        74.68735
931.46        74.11323
931.85        73.38949
932.24        72.87904
932.64        72.69985
933.03        72.73433
933.42        72.93292
933.82         73.2225
934.21        73.55157
934.60         73.9461
934.99        74.34123
935.39        74.58936
935.78        74.68867
936.17        74.65273
936.56         74.5312
936.96        74.42467
937.35        74.42315
937.74         74.4645
938.13         74.5616
938.53        74.73682
938.92         74.9754
939.31        75.25489
939.70        75.49001
940.09        75.52302
940.49        75.29343
940.88        74.89551
941.27        74.40052
941.66        73.92261
942.05        73.52075
942.44        73.19989
942.84        73.00674
943.23        72.94741
943.62         73.0461
944.01        73.29024
944.40        73.65463
944.79        74.07895
945.18        74.49714
945.57        74.86606
945.97        75.08666
946.36        75.11314
946.75        74.90869
947.14        74.49412
947.53        73.93906
947.92        73.37996
948.31        72.89945
948.70        72.51936
949.09        72.24544
949.48        72.05441
949.87        71.94838
950.26        71.94954
950.65        72.08913
951.04        72.40925
951.43        72.89196
951.82        73.47707
952.21        74.06129
952.60        74.48488
952.99        74.66763
953.38        74.61763
953.77        74.36285
954.16        73.96149
954.55        73.45275
954.94        72.85273
955.33        72.18884
955.72        71.50033
956.11        70.82735
956.50        70.20084
956.89        69.70522
957.28        69.45293
957.66        69.49966
958.05        69.80923
958.44        70.26346
958.83        70.66212
959.22        70.92931
959.61        71.05106
960.00        71.13828
960.39        71.39738
960.78        71.84185
961.16        72.41734
961.55        72.82413
961.94        72.66893
962.33         71.9032
962.72        70.75301
963.11         69.5611
963.49        68.80187
963.88        68.60887
964.27        68.85304
964.66        69.45576
965.04        70.26755
965.43        71.07818
965.82        71.92992
966.21        72.68476
966.60        73.17385
966.98         73.3699
967.37        73.21532
967.76        72.83821
968.15         72.4978
968.53        72.32165
968.92        72.31361
969.31        72.33634
969.69        72.12853
970.08        71.65592
970.47        71.02252
970.86        70.60664
971.24        71.03934
971.63        72.32148
972.02        74.17334
972.40        76.04278
972.79        77.07405
973.17        77.19435
973.56        76.53488
973.95        75.54155
974.33        74.98014
974.72        75.07842
975.11        75.62978
975.49        76.18507
975.88        76.01508
976.26        74.96842
976.65        73.30661
977.04        71.53909
977.42        70.48383
977.81        70.34571
978.19        70.85311
978.58        71.80164
978.96        72.73034
979.35        73.38868
979.74        73.96886
980.12        74.34928
980.51        74.10934
980.89        73.34447
981.28        71.99865
981.66        70.68164
982.05        70.57254
982.43        71.89287
982.82        74.23077
983.20        76.70229
983.59        77.75872
983.97        77.15539
984.35        75.30185
984.74        72.89296
985.12        71.20376
985.51        70.69198
985.89        70.99341
986.28        71.79626
986.66        72.72365
987.04          73.573
987.43        74.47546
987.81        75.31662
988.20        75.74796
988.58        75.73865
988.96        75.29488
989.35         74.5765
989.73        73.99977
990.12        73.62779
990.50        73.33926
990.88        73.11288
991.27        72.89619
991.65        72.66838
992.03        72.56845
992.42        72.31902
992.80        71.71194
993.18        70.57978
993.56        68.89318
993.95        67.14987
994.33        66.48643
994.71        67.40133
995.10        69.25288
995.48        71.20049
995.86        72.31579
996.24        72.53525
996.63        72.06362
997.01        71.29157
997.39        70.96919
997.77        71.39504
998.15        72.29559
998.54        73.17867
998.92        73.40998
999.30        72.87658
999.68        71.83688
1000.06        70.71387
1000.45        70.21706
1000.83        70.63007
1001.21        71.60323
1001.59        72.81053
1001.97        73.79816
1002.35        74.44604
1002.73        74.98456
1003.12        75.23471
1003.50        74.73929
1003.88        73.57109
1004.26        71.86011
1004.64        70.42823
1005.02        70.32128
1005.40        71.60859
1005.78        74.06893
1006.16        76.68967
1006.54        77.59076
1006.92        76.26991
1007.30        73.25144
1007.69        69.89668
1008.07        68.43319
1008.45        69.47276
1008.83        72.20217
1009.21        75.31589
1009.59        76.95181
1009.97        76.58292
1010.35        74.64848
1010.73         71.6721
1011.11        69.15414
1011.49         68.0734
1011.86        68.18214
1012.24        68.98567
1012.62        69.99731
1013.00        71.02616
1013.38        72.32629
1013.76        73.84539
1014.14        75.41573
1014.52        76.95925
1014.90        78.33276
1015.28        79.56606
1015.66        80.77138
1016.04        81.87451
1016.41        82.90441
1016.79        83.35031
1017.17        82.86148
1017.55        81.50481
1017.93        79.54085
1018.31         77.6752
1018.69        76.96778
1019.06        77.74322
1019.44         79.7928
1019.82        82.49396
1020.20        84.40715
1020.58        84.83215
1020.95        83.98445
1021.33         82.5286
1021.71        81.28158
1022.09        80.41235
1022.46        79.69989
1022.84        78.71793
1023.22        76.57919
1023.60        73.05466
1023.97        68.14317
1024.35        63.13116
1024.73         60.5843
