SpectraSmart Spectrum 2.9.0.0
--------- Device Information -----------
Spectrum Name :  反射率_0
Saving Time :  2024/04/28 00:08:06
Spectro-Module Model Name : SE2030-DUVN
Spectro-Module Serial Number : OS361AC55029948
Wavelength Start : 200
Wavelength End : 1025
Wavelength Unit : Wavelength(nm)
Spectrum Unit : Reflectance(%)
-----------Spectrum Setting ------------
Integration Time : 20ms
Average : 10
Boxcar : 0
Background removal :  enabled
linearity correction :  enabled
SC :  disabled
Intensity correction :  disabled
DWT denoise :  enabled
savitzky-golay :  disabled
FFT :  disabled
Running average :  disabled
Kalman :  disabled
High pass :  disabled
---------------BEGIN--------------------
Wavelength(nm)             Reflectance(%)
200.29               0
200.75        67.18716
201.21         54.2844
201.67        48.56047
202.13        47.88943
202.58         49.8881
203.04        54.24924
203.50         61.5112
203.96        71.33668
204.42         81.3923
204.88        90.11151
205.34        96.28446
205.80        99.28903
206.26        99.27686
206.72        95.89317
207.18        86.40666
207.64         70.9996
208.10        58.59434
208.55        53.82882
209.01        51.63808
209.47        47.19612
209.93         37.4127
210.39         13.8295
210.85       -52.98365
211.31       -117.8393
211.77       -8.922255
212.23        52.84771
212.69         73.2657
213.14        80.06807
213.60        81.06662
214.06        78.45287
214.52        71.44601
214.98        64.31632
215.44        63.73455
215.90        66.32467
216.36        69.32938
216.81        71.77972
217.27        73.62347
217.73         75.3875
218.19        76.23799
218.65        74.34477
219.11         69.2001
219.57        61.06388
220.02        50.72401
220.48        42.70134
220.94        39.32966
221.40        39.56758
221.86        42.76702
222.32        47.93547
222.77        53.87126
223.23        59.91795
223.69        64.35785
224.15        65.24075
224.61        62.71897
225.06         57.3885
225.52        51.17688
225.98        47.84714
226.44        48.23618
226.90        50.33669
227.36        52.52305
227.81        53.53692
228.27        53.31644
228.73        52.27633
229.19        50.38286
229.65        47.67401
230.10        44.45071
230.56        41.21521
231.02        38.28701
231.48        36.14653
231.93        34.83225
232.39        34.26128
232.85        34.58218
233.31        35.98724
233.77        38.24314
234.22        41.19035
234.68        43.83879
235.14        45.02539
235.60        44.60104
236.05        42.67818
236.51        40.39658
236.97        40.25317
237.43        43.12658
237.88        48.39902
238.34        53.89813
238.80        57.56669
239.26        59.09754
239.71        58.75295
240.17        57.08685
240.63        57.72997
241.08        62.64083
241.54        68.20323
242.00         72.1572
242.46        74.44138
242.91        75.94054
243.37        77.14899
243.83        78.70094
244.28        80.97691
244.74        82.15679
245.20        81.63099
245.66        79.85675
246.11        76.71491
246.57        71.53875
247.03        63.08516
247.48        51.48683
247.94        45.61608
248.40        53.32179
248.85        68.36755
249.31         82.9435
249.77        91.09516
250.22        93.53394
250.68         93.2902
251.14        91.80271
251.59        90.12487
252.05        88.45054
252.51        85.64726
252.96        82.18449
253.42        81.79077
253.88        85.25631
254.33        90.30639
254.79          93.541
255.25        92.24048
255.70         87.4877
256.16        81.69272
256.62        77.12309
257.07        76.25911
257.53        78.57387
257.99         81.6848
258.44        83.60256
258.90        83.21471
259.35        80.52827
259.81        77.08978
260.27          73.576
260.72        70.83256
261.18        69.31831
261.63        68.23084
262.09        67.51234
262.55        66.65146
263.00        65.46146
263.46        64.26364
263.91        62.96474
264.37        61.84254
264.83        60.85009
265.28        59.88705
265.74        58.96629
266.19        57.84837
266.65        56.59703
267.11        55.21918
267.56        53.81329
268.02          52.649
268.47        51.72732
268.93         50.9867
269.38        50.28883
269.84         49.4537
270.30        48.42351
270.75        47.26129
271.21        46.03095
271.66        44.77054
272.12        43.54631
272.57         42.3263
273.03        41.19174
273.48        40.18225
273.94        39.36102
274.39        38.66203
274.85        38.10144
275.31        37.60314
275.76        37.10906
276.22        36.65814
276.67        36.15825
277.13        35.59378
277.58        34.91849
278.04        34.20553
278.49        33.46965
278.95        32.85663
279.40        32.33812
279.86        31.94076
280.31         31.5855
280.77        31.28197
281.22        30.97313
281.68        30.70775
282.13        30.45121
282.59        30.21274
283.04         29.9693
283.50        29.73875
283.95        29.51532
284.41         29.3377
284.86        29.19986
285.32         29.1239
285.77        29.08106
286.22        29.07224
286.68        29.10651
287.13        29.13676
287.59         29.2089
288.04        29.31273
288.50        29.46939
288.95        29.64573
289.41        29.80768
289.86        29.84938
290.32        29.79982
290.77        29.70583
291.22        29.67969
291.68        29.87905
292.13        30.33383
292.59        31.01817
293.04        31.88578
293.50        32.88305
293.95        33.97247
294.40        35.18922
294.86        36.50523
295.31        37.86749
295.77        39.28012
296.22        40.72231
296.68        42.27086
297.13        44.01996
297.58        45.96361
298.04        48.05183
298.49        50.14266
298.95        52.08414
299.40        53.85229
299.85        55.51902
300.31        57.23544
300.76        59.17032
301.21        61.35436
301.67        63.73122
302.12        66.11382
302.58        68.33192
303.03         70.3112
303.48        72.13869
303.94        73.98669
304.39        76.01622
304.84        78.28139
305.30        80.71344
305.75        83.11604
306.20        85.30231
306.66         87.2517
307.11        88.98872
307.57         90.6429
308.02        92.27446
308.47         93.9351
308.93        95.59602
309.38        97.19581
309.83        98.76411
310.29         100.316
310.74        101.8226
311.19        103.2648
311.65        104.5724
312.10          105.69
312.55        106.6409
313.00         107.466
313.46        108.2466
313.91         108.994
314.36        109.7092
314.82        110.3747
315.27        110.9531
315.72        111.4397
316.18        111.8722
316.63        112.2622
317.08        112.6641
317.53        113.0944
317.99        113.5329
318.44         113.977
318.89         114.394
319.35        114.7727
319.80         115.134
320.25        115.4748
320.70           115.8
321.16        116.0995
321.61        116.3828
322.06        116.6621
322.51        116.9724
322.97         117.296
323.42        117.6615
323.87        117.9989
324.32        118.2179
324.78        118.2856
325.23        118.2752
325.68         118.247
326.13        118.3325
326.59        118.5434
327.04         118.903
327.49        119.3314
327.94        119.7316
328.39        120.0741
328.85        120.3484
329.30        120.6675
329.75        121.0432
330.20        121.4826
330.66        121.9219
331.11        122.4012
331.56         122.862
332.01         123.303
332.46        123.7445
332.92        124.1313
333.37        124.5412
333.82        124.9245
334.27        125.2751
334.72        125.6478
335.17         126.137
335.63        126.7254
336.08        127.4453
336.53        128.1651
336.98        128.7122
337.43        129.0506
337.88        129.2412
338.34        129.3731
338.79         129.663
339.24        130.1439
339.69        130.7497
340.14        131.4328
340.59        132.1098
341.05        132.7463
341.50        133.3949
341.95        133.9902
342.40         134.445
342.85        134.7582
343.30        134.9261
343.75        135.1151
344.20        135.6033
344.66        136.4263
345.11        137.4882
345.56        138.5006
346.01        138.9964
346.46        138.8948
346.91        138.3678
347.36        137.7413
347.81        137.5164
348.26        137.8135
348.72        138.4712
349.17        139.2599
349.62        139.8403
350.07         140.089
350.52        140.1011
350.97          139.96
351.42        139.7912
351.87        139.6484
352.32        139.4993
352.77        139.2977
353.22         138.989
353.67        138.5679
354.13        138.0642
354.58        137.5673
355.03        137.2752
355.48        137.1971
355.93        137.2579
356.38        137.2281
356.83        136.7503
357.28        135.7749
357.73        134.4496
358.18        133.0284
358.63        131.9005
359.08        131.1777
359.53        130.7487
359.98        130.4838
360.43        130.1769
360.88        129.7382
361.33        129.2031
361.78        128.5981
362.23        127.9512
362.68        127.2676
363.13        126.5534
363.58        125.7463
364.03        124.6486
364.48        123.4629
364.93        122.1065
365.38        120.8016
365.83        119.7929
366.28        119.1275
366.73        118.7222
367.18        118.4123
367.63         117.932
368.08        117.2009
368.53        116.2905
368.98        115.2866
369.43        114.3342
369.88        113.4829
370.33        112.6844
370.78        111.9114
371.23        111.1261
371.68        110.3161
372.13        109.5084
372.58        108.7221
373.03        107.9763
373.48        107.2809
373.93        106.6317
374.38        106.0077
374.83        105.3778
375.28        104.7285
375.72        104.0374
376.17        103.3702
376.62        102.7566
377.07        102.1995
377.52        101.6818
377.97         101.148
378.42        100.5138
378.87        99.77766
379.32        98.98735
379.77        98.21529
380.22        97.56259
380.67         97.0482
381.11        96.63661
381.56        96.28887
382.01        95.95473
382.46        95.61536
382.91        95.29078
383.36         94.9558
383.81        94.56783
384.26        94.12486
384.71        93.63531
385.15        93.14147
385.60        92.77962
386.05        92.54536
386.50        92.39552
386.95        92.26199
387.40        92.04101
387.85         91.7121
388.29        91.26514
388.74        90.82757
389.19        90.36852
389.64        89.88494
390.09        89.34019
390.54        88.79434
390.98        88.33166
391.43        88.03645
391.88         87.8913
392.33        87.72708
392.78        87.42388
393.23        87.00521
393.67        86.17824
394.12        85.25561
394.57        85.62847
395.02        85.85066
395.47        85.86923
395.91        85.28806
396.36        84.99113
396.81        84.99969
397.26        84.82497
397.71        84.45485
398.15        84.10126
398.60        83.87237
399.05        83.46494
399.50        83.02045
399.95        83.11812
400.39        83.58356
400.84        83.49032
401.29        82.84685
401.74        82.26142
402.18        81.91766
402.63        81.88223
403.08        82.07787
403.53        82.05494
403.97        81.77641
404.42        81.59833
404.87        81.51357
405.32        81.38612
405.76        81.20276
406.21        80.91647
406.66        80.60349
407.11        80.55807
407.55         80.7065
408.00        80.63615
408.45        80.31286
408.90        79.70291
409.34        79.01717
409.79        78.94197
410.24        79.35855
410.68        79.45033
411.13        79.16048
411.58        78.99518
412.03        78.98139
412.47        78.93002
412.92        78.81877
413.37        78.71982
413.81        78.63293
414.26         78.6192
414.71        78.66151
415.15        78.75684
415.60        78.84147
416.05        78.87922
416.49        78.86044
416.94        78.78562
417.39        78.68096
417.83        78.58495
418.28        78.50433
418.73        78.41412
419.17        78.32841
419.62        78.27589
420.07        78.26756
420.51        78.29753
420.96        78.32928
421.41        78.29865
421.85        78.18085
422.30        77.89845
422.74        77.55052
423.19        77.77487
423.64        78.40993
424.08          78.517
424.53        78.05561
424.98        77.99056
425.42         78.3412
425.87        78.36473
426.31        78.07087
426.76        77.98075
427.21        78.06109
427.65        77.90336
428.10         77.5642
428.54        77.53658
428.99        77.60899
429.44        77.88645
429.88        78.14985
430.33        78.11443
430.77        77.76241
431.22         77.6352
431.66        77.74146
432.11        77.65805
432.56         77.5419
433.00         77.9218
433.45        78.45322
433.89        78.75312
434.34        78.86268
434.78        77.52066
435.23        77.15993
435.67        78.00035
436.12        77.95582
436.57        78.27833
437.01        78.22248
437.46        78.32246
437.90        78.23585
438.35        79.31551
438.79        78.76693
439.24        78.86308
439.68         78.8524
440.13        78.81982
440.57        78.80811
441.02        79.00155
441.46        79.25227
441.91        79.14649
442.35        78.84721
442.80        78.41998
443.24        79.59012
443.69        79.65167
444.13        79.17152
444.58        79.09869
445.02        79.39049
445.47        79.43083
445.91         79.2289
446.36        79.17809
446.80        79.25826
447.24        79.60812
447.69        79.57778
448.13        79.86343
448.58        80.18356
449.02        80.16202
449.47        79.87399
449.91        79.73785
450.36        79.81318
450.80        79.83605
451.25        79.80674
451.69        79.81049
452.13        79.82841
452.58        79.77361
453.02        79.65695
453.47        79.54266
453.91        79.42898
454.36        79.38644
454.80        79.32333
455.24        78.97309
455.69        78.45753
456.13        78.01279
456.58        77.81518
457.02        77.83765
457.46         78.4164
457.91        78.28997
458.35        77.91435
458.79        77.67738
459.24        77.68978
459.68        77.52875
460.13        77.26983
460.57        76.98765
461.01         76.8512
461.46        76.72581
461.90         76.9065
462.34        76.41791
462.79        76.83708
463.23        76.78412
463.68        76.68137
464.12        76.49682
464.56        76.29558
465.01        76.18275
465.45        76.05579
465.89        76.07306
466.34        76.23217
466.78        76.02863
467.22        75.47117
467.67        76.08789
468.11        75.78318
468.55        75.69275
468.99        75.27299
469.44        75.07726
469.88        75.12589
470.32         75.1793
470.77        75.18881
471.21         75.1395
471.65        75.00938
472.10        74.82803
472.54        74.61911
472.98        74.47637
473.42        74.42527
473.87        74.38768
474.31        74.31966
474.75        74.43573
475.20        74.63793
475.64        74.47408
476.08        74.00568
476.52        73.86526
476.97         74.1071
477.41        73.91634
477.85        74.04767
478.29        74.11884
478.74        74.09069
479.18        73.47826
479.62        73.92173
480.06        73.87523
480.50        73.86433
480.95        73.87094
481.39        73.80056
481.83        73.95165
482.27        74.05486
482.72        73.25813
483.16        73.70946
483.60        73.38924
484.04        73.35593
484.48        73.38905
484.93        73.85947
485.37        73.55464
485.81        73.79173
486.25         74.6944
486.69        75.03941
487.14        73.90394
487.58        73.50842
488.02        73.46744
488.46        73.59049
488.90         73.5596
489.34        73.08026
489.79        72.43961
490.23        73.27996
490.67        73.24447
491.11         72.8727
491.55        72.73483
491.99        72.84193
492.43        72.80999
492.88        72.61863
493.32        72.49522
493.76         72.4398
494.20        72.45347
494.64        72.55396
495.08        72.59995
495.52        72.62701
495.96        72.99284
496.41        73.51229
496.85        73.51202
497.29        72.81733
497.73         72.6096
498.17        72.73521
498.61        72.88317
499.05        72.92594
499.49        72.78819
499.93        72.52944
500.37        72.51372
500.82        72.69573
501.26        72.59535
501.70        72.51147
502.14        72.19648
502.58        72.86556
503.02        73.07777
503.46        72.85912
503.90        72.72089
504.34        72.63165
504.78        72.59299
505.22        72.57368
505.66        72.51263
506.10        72.44713
506.54        72.41018
506.98        72.37404
507.42        72.78362
507.86        72.67921
508.30        72.73784
508.74        72.67394
509.18        72.52596
509.62        72.33733
510.06        72.20059
510.50         72.1523
510.94        72.16262
511.38        72.20912
511.82        72.25161
512.26        72.27202
512.70        72.28094
513.14        72.29269
513.58        72.30111
514.02        72.30343
514.46        72.34702
514.90        72.41901
515.34        72.24589
515.78        72.24256
516.22        72.08776
516.66        71.95683
517.10        71.91814
517.54        71.98727
517.98        72.13414
518.42         72.2916
518.86        72.36138
519.30        72.31808
519.74        72.19431
520.18        72.04333
520.62        71.94828
521.06        71.93462
521.50         71.9791
521.93        72.05554
522.37        72.10773
522.81        72.12383
523.25        72.11562
523.69        72.10249
524.13        72.11305
524.57        72.15041
525.01        72.20064
525.45        72.23232
525.89         72.1989
526.32        72.08928
526.76        71.93821
527.20         71.7819
527.64         71.6853
528.08        71.66422
528.52        71.69573
528.96        71.75508
529.40        71.80206
529.83        71.81477
530.27        71.81933
530.71        71.80278
531.15        71.75478
531.59        71.67928
532.03        71.57848
532.46        71.47476
532.90        71.42953
533.34        71.44691
533.78        71.51121
534.22        71.58949
534.66        71.62935
535.09        71.60981
535.53        71.56883
535.97        71.51465
536.41        71.47758
536.85        71.46777
537.28        71.47624
537.72        71.50114
538.16        71.53064
538.60         71.5613
539.04        71.61006
539.47        71.64703
539.91        71.66733
540.35         71.6501
540.79        71.61203
541.22        71.55621
541.66        71.49721
542.10        71.44105
542.54        71.39141
542.97        71.34389
543.41        71.33106
543.85         71.3398
544.29        71.36444
544.72        71.39066
545.16        71.41978
545.60        71.43024
546.04        71.45499
546.47         71.4753
546.91        71.38793
547.35        71.22897
547.79        71.20201
548.22        71.26236
548.66        71.21674
549.10        71.06147
549.53        70.98728
549.97        71.00838
550.41        71.00893
550.84         70.9718
551.28        71.00684
551.72        71.10905
552.15         71.0723
552.59        70.87206
553.03         71.1765
553.46        70.84434
553.90        70.87418
554.34        70.91837
554.77         71.0058
555.21        71.07762
555.65        71.06994
556.08        70.91674
556.52        70.79749
556.96        70.71899
557.39        70.78868
557.83        70.96082
558.27        70.91376
558.70        70.69082
559.14        70.64976
559.57        70.79057
560.01        70.94088
560.45        71.03172
560.88        71.06083
561.32        71.07934
561.75         70.9921
562.19        70.87618
562.63        70.99886
563.06        71.25827
563.50        71.09938
563.93        70.61218
564.37        70.53493
564.80        70.82732
565.24        70.98525
565.68        70.96251
566.11        70.99544
566.55        71.09519
566.98        71.10543
567.42        71.04892
567.85        71.01062
568.29        71.06249
568.72        70.99207
569.16        70.80287
569.60        71.04556
570.03        71.24452
570.47        70.91725
570.90        70.79524
571.34        71.55096
571.77         71.4487
572.21          71.272
572.64        71.75147
573.08        71.60061
573.51        71.30434
573.95        71.32947
574.38        71.67609
574.82        71.64603
575.25        71.63844
575.69        71.59631
576.12        71.33673
576.56        71.21257
576.99        71.15812
577.42        71.42184
577.86        71.72318
578.29        71.92114
578.73        71.54102
579.16        71.56332
579.60        71.74641
580.03        71.73322
580.47        71.40923
580.90          71.592
581.33        71.59108
581.77        71.75867
582.20        72.07082
582.64        71.89143
583.07        71.50961
583.51        71.18369
583.94        71.25783
584.37        71.26785
584.81        71.25393
585.24        71.24544
585.68        71.28754
586.11        71.30251
586.54        71.64446
586.98        71.17329
587.41        71.54402
587.85        71.40356
588.28        71.47164
588.71        71.23214
589.15        71.77043
589.58         70.9769
590.01        71.13989
590.45        71.54762
590.88        70.83781
591.31        70.87665
591.75        71.07682
592.18        70.95261
592.61        70.65862
593.05         71.3192
593.48         71.6828
593.91        71.24464
594.35         71.4189
594.78        71.29136
595.21        70.90025
595.65        70.94702
596.08        70.95155
596.51        71.27168
596.94        70.76073
597.38        70.76509
597.81        71.07062
598.24        70.82854
598.68        71.04119
599.11        71.03922
599.54        71.11886
599.97        71.11044
600.41        71.26604
600.84        71.22406
601.27        71.01089
601.70        70.95409
602.14        70.54811
602.57        70.63818
603.00        70.31625
603.43        70.73518
603.87        70.87804
604.30        70.76134
604.73        71.05654
605.16        70.84344
605.60        70.46741
606.03        70.71709
606.46         71.5132
606.89        71.21212
607.32        70.96933
607.76        71.33179
608.19        71.00987
608.62         70.9622
609.05        70.81474
609.48         70.7369
609.92         70.6328
610.35        70.99258
610.78        71.31424
611.21        70.34999
611.64        71.05634
612.07        70.98573
612.50        71.00301
612.94        71.00171
613.37        71.05478
613.80        70.62405
614.23        70.69939
614.66        70.65007
615.09        70.71896
615.52        70.85782
615.96         71.0599
616.39         70.6572
616.82        70.89532
617.25        70.66318
617.68        70.50116
618.11         70.3269
618.54         70.2896
618.97        70.44685
619.40        70.63327
619.84        71.03443
620.27        70.83035
620.70         70.5914
621.13        70.14269
621.56        70.56297
621.99        70.39783
622.42        70.51185
622.85        70.24654
623.28        70.30381
623.71        70.26559
624.14        70.20037
624.57        70.31271
625.00        70.70582
625.43        70.23715
625.86        70.30382
626.29        70.57533
626.72        70.17769
627.15        70.26669
627.58        70.04723
628.01        70.22321
628.44        69.79943
628.87        69.84531
629.30        70.53922
629.73        70.27045
630.16        69.78049
630.59         70.2309
631.02        70.03271
631.45        70.18903
631.88        70.22148
632.31        70.33234
632.74        70.15871
633.17        70.36758
633.60        70.33425
634.03        70.24688
634.46          70.155
634.89        70.08415
635.32        69.96538
635.75        69.84028
636.18        69.92741
636.61         70.1649
637.04        70.20961
637.47        70.07374
637.89        70.08132
638.32         70.2099
638.75        70.24997
639.18         70.1964
639.61        70.15982
640.04        70.14511
640.47        70.12851
640.90        70.11526
641.33         70.0854
641.76        70.02114
642.18        70.06711
642.61         69.9437
643.04        69.87478
643.47        69.80295
643.90        69.77099
644.33        69.78358
644.76        69.83085
645.18         69.8902
645.61        69.91032
646.04        69.88047
646.47        69.80878
646.90        69.72362
647.33        69.67528
647.75        69.68649
648.18        69.74313
648.61        69.80479
649.04        69.86862
649.47        69.90989
649.89        69.76106
650.32        69.52809
650.75        69.66586
651.18        70.07837
651.61        70.19886
652.03        69.96489
652.46        69.69111
652.89        69.53764
653.32        69.50589
653.74        69.15632
654.17        69.88282
654.60        70.21401
655.03         69.5452
655.46        69.64337
655.88        70.31758
656.31        72.15858
656.74        74.12868
657.16        72.79528
657.59        71.74615
658.02        70.55691
658.45        70.68521
658.87        71.01174
659.30        70.61496
659.73        69.83463
660.15        69.77525
660.58        69.92442
661.01        70.19653
661.44        70.25066
661.86         70.1859
662.29        70.00232
662.72        69.78622
663.14        69.64685
663.57        69.72475
664.00        69.96817
664.42        70.06253
664.85        69.98706
665.27         69.9319
665.70        69.90722
666.13        69.84978
666.55        69.77197
666.98        69.67905
667.41        69.61262
667.83        69.64352
668.26        69.77155
668.69        69.97969
669.11        70.19778
669.54        70.32866
669.96        70.35696
670.39        70.23137
670.82        70.03385
671.24        70.06787
671.67        70.28362
672.09        70.24164
672.52        69.99426
672.94        69.92525
673.37        70.04393
673.80        70.09248
674.22         70.0661
674.65        70.04935
675.07        70.06072
675.50        70.04496
675.92        70.02486
676.35        70.03902
676.77        70.09661
677.20        70.18205
677.62        70.28278
678.05        70.35854
678.47        70.39652
678.90        70.41795
679.32        70.42089
679.75        70.41446
680.17        70.40358
680.60        70.39873
681.02        70.38623
681.45        70.34241
681.87        70.28238
682.30        70.14933
682.72        70.01737
683.15         70.1265
683.57        70.43821
684.00        70.57354
684.42        70.51882
684.85        70.55597
685.27        70.67175
685.70        70.69148
686.12        70.62514
686.54        70.60548
686.97        70.62444
687.39        70.65785
687.82        70.69971
688.24        70.59788
688.66        70.68706
689.09        70.67876
689.51        70.68978
689.94        70.69753
690.36        70.71014
690.78        70.72099
691.21        70.71889
691.63        70.68553
692.06        70.62245
692.48         70.5357
692.90        70.44457
693.33        70.36451
693.75        70.31123
694.17        70.29495
694.60         70.2924
695.02         70.3155
695.44        70.35424
695.87        70.34052
696.29        70.32381
696.71        70.53335
697.14        70.88398
697.56        71.01399
697.98         70.9002
698.41         70.8717
698.83        70.91372
699.25         70.8506
699.68        70.70341
700.10        70.66271
700.52        70.73726
700.94        70.87992
701.37        71.01851
701.79        71.06979
702.21        70.99265
702.64        70.83913
703.06        70.66022
703.48        70.55354
703.90        70.55087
704.33        70.61364
704.75        70.71869
705.17        70.80706
705.59        70.85661
706.01        70.85817
706.44        70.82826
706.86        70.91704
707.28         70.9323
707.70        71.02962
708.12        71.12492
708.55         71.1311
708.97        71.05077
709.39        70.99428
709.81        70.98888
710.23         71.0007
710.66        71.03611
711.08        71.14899
711.50        71.27952
711.92        71.33231
712.34         71.2947
712.76        71.19468
713.19        71.08118
713.61        71.08643
714.03        71.21362
714.45        71.41924
714.87        71.64205
715.29        71.79014
715.71        71.83692
716.13        71.81184
716.56        71.72057
716.98        71.65257
717.40        71.60976
717.82        71.57934
718.24        71.57085
718.66        71.60085
719.08         71.6666
719.50        71.76163
719.92        71.86609
720.34        71.94321
720.76        71.98039
721.19        71.97786
721.61        71.94892
722.03        71.88618
722.45        71.79791
722.87          71.689
723.29        71.59299
723.71        71.56275
724.13        71.61157
724.55        71.72887
724.97        71.87831
725.39         71.9969
725.81        72.06264
726.23        72.08395
726.65         72.0874
727.07        72.11935
727.49        72.18889
727.91        72.27997
728.33        72.35458
728.75        72.35202
729.17        72.26374
729.59        72.11664
730.01        71.96242
730.43        71.88414
730.85         71.8976
731.27        71.96684
731.69        72.06475
732.10        72.14856
732.52        72.19001
732.94        72.26156
733.36        72.33434
733.78        72.28168
734.20        72.08942
734.62         72.2156
735.04         71.5965
735.46        72.04783
735.88        72.53619
736.30        72.63625
736.72        72.20332
737.13        72.02997
737.55        72.15034
737.97         72.2573
738.39        72.31979
738.81        72.23817
739.23        72.08575
739.65        72.30833
740.06        72.75788
740.48        72.90867
740.90         72.6971
741.32        72.48357
741.74        72.25119
742.16        72.13942
742.57        72.16866
742.99        72.30499
743.41        72.50826
743.83        72.69958
744.25         72.8438
744.67        72.94395
745.08        73.00221
745.50        73.00907
745.92        72.99145
746.34        72.90515
746.75        72.72321
747.17        72.72586
747.59          72.438
748.01        72.19858
748.42        71.97724
748.84        72.04259
749.26        72.33764
749.68        72.66397
750.09        72.88731
750.51        72.73281
750.93        72.33251
751.35        72.32835
751.76        72.68537
752.18        72.76384
752.60        72.55109
753.01        72.45621
753.43        72.49989
753.85        72.54952
754.27        72.60802
754.68        72.72321
755.10        72.85989
755.52        72.95194
755.93        72.99191
756.35        72.99726
756.77        73.00513
757.18        73.09366
757.60        73.27125
758.02        73.44875
758.43        73.58785
758.85        73.72913
759.26        73.80623
759.68        73.80619
760.10        73.74934
760.51        73.22707
760.93        72.85365
761.34        72.91412
761.76        73.06097
762.18        73.42615
762.59         73.7353
763.01        73.58969
763.42        73.15305
763.84        73.01363
764.26        73.28132
764.67        73.64893
765.09        73.97568
765.50         74.0037
765.92        73.74931
766.33        73.40577
766.75        73.08343
767.16        72.93973
767.58        72.97543
768.00        73.42867
768.41        74.08883
768.83        73.97073
769.24        73.24816
769.66        73.19757
770.07        73.74535
770.49        73.90969
770.90        73.66181
771.32         73.5396
771.73        73.60528
772.15        73.65186
772.56        73.68992
772.97        73.82072
773.39        73.97475
773.80        73.96238
774.22        73.81496
774.63        73.93526
775.05        74.24454
775.46        74.36768
775.88        74.24444
776.29        74.13102
776.70        74.07738
777.12         74.0715
777.53        74.15262
777.95        74.30636
778.36         74.4855
778.77          74.587
779.19        74.58461
779.60        74.51759
780.02        74.43129
780.43        74.39875
780.84        74.40958
781.26        74.51606
781.67        74.74574
782.09        74.73733
782.50        74.44708
782.91        75.18441
783.33        74.92527
783.74        75.02398
784.15        74.86285
784.57        74.54207
784.98          74.199
785.39        74.22298
785.81        74.58677
786.22        74.81089
786.63        74.83489
787.04        74.94173
787.46        75.12688
787.87        75.18282
788.28        75.13251
788.70        75.15323
789.11         75.2476
789.52         75.2489
789.93        75.20765
790.35        75.46918
790.76        75.93786
791.17         75.9582
791.58        75.56125
792.00        75.38632
792.41        75.49416
792.82        75.41506
793.23         75.2171
793.65        75.36035
794.06        75.78352
794.47         76.0246
794.88        76.03939
795.29        75.89704
795.71        76.06431
796.12        75.83232
796.53        75.44375
796.94        75.58381
797.35        76.15349
797.76        76.19326
798.18        75.73665
798.59         75.6126
799.00        75.85368
799.41        75.97682
799.82        75.93432
800.23        75.89807
800.64        75.86484
801.06        75.76555
801.47         75.6713
801.88         75.6171
802.29        75.61911
802.70        75.68156
803.11        75.77306
803.52        75.82913
803.93        75.83504
804.34        75.80499
804.75        75.79066
805.17        75.86343
805.58        76.06454
805.99         76.3454
806.40        76.62205
806.81        76.74584
807.22        76.67991
807.63        76.48434
808.04        76.25317
808.45        76.13289
808.86        76.16723
809.27        76.31638
809.68        76.49815
810.09        76.56329
810.50        76.47546
810.91        76.29277
811.32        76.08388
811.73        75.97331
812.14        75.99976
812.55        76.07034
812.96        76.17001
813.37         76.3892
813.78        76.64835
814.19        76.69737
814.60        76.54735
815.01        76.43887
815.42           76.39
815.83        76.25119
816.24        76.06501
816.65        75.99613
817.05        76.08121
817.46        76.24821
817.87        76.45544
818.28        76.57919
818.69        76.59388
819.10        76.53719
819.51        76.47838
819.92        76.53802
820.33        76.74338
820.74        77.03649
821.14        77.34006
821.55        77.58236
821.96        77.71272
822.37        77.74995
822.78        77.70238
823.19        77.58593
823.60        77.42256
824.00         77.2477
824.41        77.03048
824.82        76.81046
825.23        76.61133
825.64        76.44807
826.04        76.39981
826.45         76.5442
826.86        76.88702
827.27         77.3727
827.68        77.87943
828.08        78.24049
828.49        78.32526
828.90        78.21784
829.31        77.96484
829.72         77.6618
830.12        77.38602
830.53        77.07155
830.94        76.80157
831.35        76.67147
831.75         76.7236
832.16        76.90591
832.57        77.14714
832.97         77.2667
833.38        77.20789
833.79        77.02579
834.20        76.81735
834.60        76.73112
835.01        76.81461
835.42        77.00888
835.82        77.27271
836.23        77.45258
836.64        77.53179
837.04         77.5745
837.45        77.56795
837.86        77.58939
838.26        77.67359
838.67        77.77998
839.08        77.91354
839.48        78.06971
839.89        78.23466
840.29        78.39941
840.70        78.55762
841.11        78.70205
841.51        78.84263
841.92        78.94195
842.33        78.97585
842.73        78.90366
843.14        78.67787
843.54         78.3511
843.95        78.00681
844.35        77.79926
844.76        77.75482
845.17        77.84196
845.57        77.98271
845.98         77.9976
846.38        77.86969
846.79         77.6297
847.19        77.37298
847.60        77.20014
848.00        77.17311
848.41         77.2215
848.81        77.34525
849.22        77.46831
849.62         77.5995
850.03         77.7309
850.43        77.87223
850.84        77.95108
851.24        78.01224
851.65        78.00638
852.05        78.03562
852.46        78.15864
852.86        78.37601
853.27        78.66496
853.67        78.88509
854.07        79.03841
854.48        79.07092
854.88        79.03867
855.29         78.8544
855.69        78.58577
856.10         78.1718
856.50        77.71143
856.90        77.25146
857.31        76.89588
857.71        76.72246
858.12        76.65381
858.52        76.70058
858.92        76.73746
859.33        76.70525
859.73        76.67118
860.13        76.59251
860.54        76.42678
860.94        76.21942
861.34        75.94688
861.75        75.65795
862.15        75.49953
862.55        75.46755
862.96        75.53608
863.36        75.63078
863.76        75.60566
864.17        75.42112
864.57         75.1452
864.97        74.85131
865.38        74.63589
865.78        74.57677
866.18        74.61355
866.58        74.70763
866.99        74.80314
867.39        74.90388
867.79        74.99867
868.19        75.07178
868.60        75.06377
869.00        74.95754
869.40        74.78168
869.80        74.60178
870.21        74.55122
870.61        74.73943
871.01         75.0692
871.41         75.4211
871.81        75.62659
872.22        75.62115
872.62        75.46366
873.02         75.2812
873.42        75.29612
873.82         75.5612
874.22        76.01367
874.63         76.4631
875.03        76.60561
875.43        76.40553
875.83        75.93698
876.23        75.44739
876.63        75.35007
877.03        75.73003
877.44         76.4487
877.84         77.1903
878.24        77.39086
878.64        76.94301
879.04        76.07655
879.44        75.13939
879.84        74.61532
880.24        74.60241
880.64        74.92493
881.04        75.42241
881.44        75.81918
881.84        75.99938
882.24        76.05962
882.65        75.95306
883.05        75.70469
883.45        75.32276
883.85         74.8229
884.25        74.37069
884.65        74.22474
885.05        74.42175
885.45        74.88154
885.85        75.45087
886.25        75.84864
886.65        75.97569
887.05        75.91342
887.45        75.71091
887.85          75.449
888.25        75.17479
888.65         74.8643
889.04        74.57931
889.44        74.47557
889.84        74.55573
890.24        74.77304
890.64        75.03769
891.04        75.19228
891.44        75.19572
891.84        75.11533
892.24         74.9501
892.64        74.70105
893.04        74.40559
893.44        74.06577
893.83        73.85332
894.23        73.97931
894.63        74.48431
895.03        75.27251
895.43        76.10276
895.83        76.57073
896.23         76.5789
896.63        76.26555
897.02        75.78935
897.42        75.43974
897.82        75.28802
898.22        75.24584
898.62        75.31411
899.01        75.50905
899.41        75.77767
899.81        76.13574
900.21        76.45872
900.61        76.52599
901.00        76.29251
901.40        75.84682
901.80        75.33189
902.20        74.99819
902.59        74.92825
902.99        75.03107
903.39        75.26603
903.79        75.54219
904.18        75.79945
904.58         76.0722
904.98        76.29248
905.38         76.3663
905.77        76.27655
906.17        76.03979
906.57        75.75468
906.96        75.62716
907.36        75.68665
907.76         75.9138
908.15        76.18921
908.55        76.22615
908.95         75.9999
909.34        75.57621
909.74        75.18371
910.14         75.1149
910.53        75.43987
910.93        76.04837
911.33         76.7293
911.72        77.12563
912.12        77.12104
912.52        76.83739
912.91        76.45891
913.31         76.2869
913.70        76.37873
914.10        76.63369
914.49        76.93427
914.89        77.00789
915.29         76.7977
915.68        76.38646
916.08        75.92323
916.47        75.62491
916.87        75.56631
917.26        75.67094
917.66         75.8242
918.05        75.80968
918.45        75.57424
918.84        75.21241
919.24        74.84849
919.64        74.76424
920.03        75.03866
920.42        75.57829
920.82        76.19044
921.21        76.57565
921.61         76.6358
922.00        76.43495
922.40        76.17603
922.79        76.29527
923.19        76.83476
923.58        77.69665
923.98        78.45569
924.37         78.5304
924.77        77.81548
925.16        76.48617
925.55        75.06043
925.95        74.42879
926.34        74.82481
926.74         75.9567
927.13        77.31429
927.52        77.97852
927.92        77.75037
928.31         76.9218
928.70        75.91445
929.10        75.35919
929.49        75.43275
929.89        75.88484
930.28        76.56271
930.67        77.08714
931.07        77.29517
931.46        77.34047
931.85        77.23876
932.24         77.0378
932.64         76.7754
933.03        76.41534
933.42        76.03918
933.82        75.79194
934.21        75.71837
934.60        75.82408
934.99        76.01037
935.39        76.06673
935.78        75.98024
936.17        75.78294
936.56          75.636
936.96        75.80251
937.35        76.35855
937.74        77.14591
938.13        77.90816
938.53        78.29404
938.92        78.23457
939.31        77.82383
939.70        77.25826
940.09        76.88602
940.49        76.80478
940.88        76.96287
941.27        77.19378
941.66        77.24643
942.05        77.06295
942.44        76.73051
942.84        76.41486
943.23        76.31918
943.62        76.51601
944.01        76.92735
944.40        77.36836
944.79        77.52328
945.18        77.30869
945.57        76.82759
945.97        76.25285
946.36         75.9157
946.75        75.85342
947.14        75.95851
947.53        76.11678
947.92        76.12857
948.31        75.94325
948.70        75.68089
949.09        75.36864
949.48        75.02822
949.87        74.71043
950.26        74.40546
950.65        74.27444
951.04        74.58815
951.43        75.35554
951.82        76.45212
952.21        77.58063
952.60        78.21912
952.99        78.19842
953.38        77.66908
953.77        76.80735
954.16        75.89942
954.55        75.07127
954.94        74.26142
955.33        73.55732
955.72        73.09975
956.11         72.9125
956.50        73.00463
956.89        73.23345
957.28        73.29652
957.66        73.14617
958.05        72.85544
958.44        72.56105
958.83        72.49902
959.22        72.71117
959.61         73.0406
960.00        73.47846
960.39        74.02988
960.78        74.63958
961.16        75.36067
961.55        75.83172
961.94        75.54646
962.33        74.46931
962.72        72.83559
963.11        71.23904
963.49        70.54717
963.88        70.94228
964.27        72.18841
964.66        73.84563
965.04         75.0978
965.43        75.54248
965.82        75.42889
966.21        75.02257
966.60          74.758
966.98         74.7806
967.37        74.90064
967.76        75.01191
968.15        74.92765
968.53        74.62621
968.92        74.24017
969.31         73.8989
969.69        73.74008
970.08        73.78403
970.47         73.9585
970.86        74.28474
971.24        74.81538
971.63        75.43443
972.02        76.12111
972.40        76.68882
972.79        76.74661
973.17        76.34065
973.56        75.49697
973.95        74.54885
974.33        74.06122
974.72        74.19715
975.11        74.81631
975.49         75.5718
975.88        75.89013
976.26        75.62412
976.65        74.92549
977.04        74.08758
977.42        73.60225
977.81        73.57316
978.19        73.81642
978.58        74.28548
978.96        74.83133
979.35        75.32365
979.74         75.8746
980.12         76.3343
980.51        76.21787
980.89        75.58701
981.28        74.44341
981.66        73.30709
982.05         73.1636
982.43        74.21686
982.82        76.10939
983.20        78.16389
983.59        79.16261
983.97        78.92008
984.35        77.73466
984.74        76.10886
985.12        74.96304
985.51        74.62684
985.89        74.84502
986.28         75.3864
986.66        75.99567
987.04        76.51704
987.43        77.00719
987.81        77.44129
988.20        77.63359
988.58        77.59637
988.96        77.35913
989.35         76.8477
989.73        76.07726
990.12        75.01602
990.50        73.57253
990.88        72.15848
991.27        71.70331
991.65        72.45606
992.03        74.16103
992.42        75.71717
992.80        75.96766
993.18        74.61387
993.56        71.81136
993.95        68.48029
994.33        66.96738
994.71         68.2682
995.10        71.23022
995.48        74.34895
995.86        76.05135
996.24        76.20432
996.63        75.22114
997.01         73.6694
997.39        72.68409
997.77        72.80336
998.15        73.65863
998.54        74.61498
998.92        74.84402
999.30        74.15636
999.68        72.82983
1000.06        71.44852
1000.45        70.98067
1000.83        71.75565
1001.21        73.36431
1001.59        75.04867
1001.97        75.72514
1002.35        75.14367
1002.73        73.59047
1003.12        71.61703
1003.50        70.31306
1003.88        70.19292
1004.26        70.83414
1004.64        71.80598
1005.02        72.57362
1005.40        73.00813
1005.78        73.36291
1006.16        73.55006
1006.54        73.37427
1006.92        72.85803
1007.30        72.00088
1007.69        71.29158
1008.07        71.45468
1008.45        72.64825
1008.83        74.56367
1009.21        76.52417
1009.59        77.57302
1009.97        77.44366
1010.35        76.27835
1010.73         74.3834
1011.11         72.6986
1011.49        71.85953
1011.86        71.87223
1012.24        72.25882
1012.62        72.51141
1013.00        72.51564
1013.38        72.46808
1013.76         72.7258
1014.14        73.85086
1014.52        75.91616
1014.90        78.65045
1015.28        81.40928
1015.66        82.94557
1016.04        82.80059
1016.41        81.45448
1016.79        79.28707
1017.17        77.26502
1017.55        75.71999
1017.93        74.45433
1018.31        73.64342
1018.69        73.49946
1019.06        74.08562
1019.44        75.54302
1019.82        77.36156
1020.20        78.37281
1020.58        78.13713
1020.95        76.73909
1021.33         75.1853
1021.71        74.83556
1022.09        75.79939
1022.46        77.65981
1022.84        79.30113
1023.22         78.5226
1023.60        74.61839
1023.97        67.78654
1024.35        59.71327
1024.73        54.33118
