SpectraSmart Spectrum 2.9.0.0
--------- Device Information -----------
Spectrum Name :  反射率_0
Saving Time :  2024/04/27 23:35:16
Spectro-Module Model Name : SE2030-DUVN
Spectro-Module Serial Number : OS361AC55029948
Wavelength Start : 200
Wavelength End : 1025
Wavelength Unit : Wavelength(nm)
Spectrum Unit : Reflectance(%)
-----------Spectrum Setting ------------
Integration Time : 20ms
Average : 10
Boxcar : 0
Background removal :  enabled
linearity correction :  enabled
SC :  disabled
Intensity correction :  disabled
DWT denoise :  enabled
savitzky-golay :  disabled
FFT :  disabled
Running average :  disabled
Kalman :  disabled
High pass :  disabled
---------------BEGIN--------------------
Wavelength(nm)             Reflectance(%)
200.29               0
200.75        42.72799
201.21        65.39317
201.67        80.72022
202.13        83.09072
202.58        77.19125
203.04        67.69366
203.50        59.93392
203.96        61.41023
204.42        71.21667
204.88        84.05713
205.34        96.27126
205.80        105.9958
206.26        114.0037
206.72        122.5294
207.18        130.4463
207.64         128.767
208.10        116.0775
208.55        102.1196
209.01        91.41785
209.47        82.08688
209.93         69.5563
210.39        42.99791
210.85       -31.17503
211.31       -112.6795
211.77      -0.8279223
212.23        68.59171
212.69        91.86346
213.14          97.468
213.60        94.01279
214.06        82.47301
214.52        59.98682
214.98        39.93369
215.44        41.43303
215.90        52.72736
216.36         63.9164
216.81        71.80351
217.27        77.29389
217.73        82.46547
218.19        86.24778
218.65        85.96761
219.11        80.90626
219.57        71.07012
220.02        58.46521
220.48        50.59925
220.94        50.40759
221.40        55.42051
221.86        62.33841
222.32        67.60373
222.77        70.56452
223.23        72.23907
223.69        72.73059
224.15         71.9567
224.61        70.09709
225.06        66.95298
225.52        63.43355
225.98        61.27678
226.44        60.92793
226.90        61.51405
227.36        62.17661
227.81        62.10498
228.27        61.24237
228.73        59.74611
229.19           57.56
229.65        54.79619
230.10        51.73629
230.56        48.81701
231.02        46.30508
231.48        44.58646
231.93        43.61982
232.39        43.34403
232.85        43.68532
233.31        44.55784
233.77         45.7915
234.22        47.38632
234.68        48.74905
235.14        49.21911
235.60        48.71999
236.05        47.24855
236.51        45.66167
236.97        45.79683
237.43        48.25707
237.88        52.63368
238.34        57.06811
238.80        59.85139
239.26        60.66535
239.71         59.4726
240.17        56.62695
240.63         56.0247
241.08        60.28277
241.54        66.00995
242.00        70.14074
242.46        71.73264
242.91        71.34137
243.37        68.68832
243.83        62.66788
244.28        56.07462
244.74        58.46156
245.20        67.76638
245.66        75.24001
246.11        78.61259
246.57        79.52476
247.03        79.26596
247.48        77.62173
247.94        75.13779
248.40        73.49254
248.85        72.29578
249.31        73.74027
249.77        79.48496
250.22        87.38834
250.68        95.54328
251.14        101.5857
251.59        103.7318
252.05        102.1312
252.51        96.25819
252.96        86.16674
253.42        77.73126
253.88        75.51306
254.33         77.7291
254.79        79.78185
255.25        77.39973
255.70        71.53863
256.16        65.10126
256.62         60.6158
257.07        60.72895
257.53        64.46288
257.99        68.97101
258.44        72.16291
258.90        72.82976
259.35        71.00092
259.81        68.18845
260.27        64.95071
260.72        61.96875
261.18        59.79184
261.63          57.878
262.09        56.36795
262.55        55.01914
263.00        53.67816
263.46        52.53729
263.91        51.45833
264.37        50.58558
264.83        49.84643
265.28        49.17365
265.74        48.55059
266.19        47.76214
266.65        46.84949
267.11        45.80144
267.56        44.70913
268.02        43.82726
268.47        43.14989
268.93        42.61578
269.38        42.07116
269.84        41.30076
270.30        40.26449
270.75        39.06456
271.21        37.81656
271.66        36.64448
272.12        35.62754
272.57        34.69502
273.03        33.91658
273.48         33.3168
273.94        32.91789
274.39        32.65421
274.85        32.43215
275.31        32.04306
275.76        31.43405
276.22        30.68846
276.67         29.8878
277.13        29.24399
277.58        28.75354
278.04        28.41278
278.49        28.07165
278.95        27.61776
279.40        26.99239
279.86        26.30267
280.31        25.65878
280.77        25.32557
281.22        25.28444
281.68         25.4719
282.13        25.66847
282.59        25.61483
283.04        25.26297
283.50        24.72637
283.95        24.17717
284.41        23.91288
284.86        23.97172
285.32        24.25452
285.77        24.58846
286.22        24.76196
286.68        24.74125
287.13        24.57301
287.59        24.36961
288.04        24.22321
288.50        24.19586
288.95        24.22636
289.41        24.29944
289.86        24.35244
290.32        24.39623
290.77        24.45645
291.22        24.57531
291.68        24.80199
292.13        25.14356
292.59        25.60271
293.04        26.16491
293.50        26.82915
293.95        27.58702
294.40        28.46301
294.86        29.45689
295.31        30.55754
295.77        31.77594
296.22        33.09497
296.68        34.54998
297.13        36.16323
297.58        37.91811
298.04        39.78452
298.49        41.67932
298.95        43.52883
299.40        45.32559
299.85        47.10847
300.31        48.97151
300.76        50.99783
301.21        53.19686
301.67         55.5387
302.12        57.89228
302.58        60.15485
303.03        62.27811
303.48        64.32816
303.94        66.43975
304.39        68.72581
304.84        71.23135
305.30        73.90844
305.75        76.60255
306.20        79.18029
306.66        81.61835
307.11        83.90047
307.57        86.10801
308.02        88.23811
308.47        90.31037
308.93        92.30618
309.38        94.15594
309.83        95.87825
310.29        97.50365
310.74        99.02026
311.19        100.4589
311.65        101.8279
312.10         103.095
312.55        104.2693
313.00        105.3631
313.46        106.4063
313.91         107.394
314.36        108.3401
314.82        109.2308
315.27        110.0342
315.72        110.7437
316.18        111.3837
316.63        111.9623
317.08        112.5364
317.53        113.1196
317.99        113.6876
318.44        114.2313
318.89        114.7068
319.35        115.1025
319.80        115.4489
320.25        115.7487
320.70        116.0148
321.16         116.246
321.61        116.4557
322.06        116.6745
322.51        116.9629
322.97        117.3098
323.42        117.7414
323.87        118.1658
324.32         118.452
324.78        118.5582
325.23        118.5688
325.68        118.5681
326.13        118.7291
326.59         119.071
327.04        119.5951
327.49        120.1973
327.94         120.747
328.39        121.1963
328.85        121.5366
329.30        121.8751
329.75        122.2137
330.20        122.5653
330.66         122.879
331.11        123.2106
331.56         123.524
332.01        123.8337
332.46        124.1628
332.92        124.4868
333.37        124.9295
333.82        125.4421
334.27        125.9977
334.72        126.5904
335.17        127.2139
335.63        127.8233
336.08        128.4803
336.53        129.0861
336.98        129.5326
337.43        129.8093
337.88         129.951
338.34        130.0709
338.79        130.4221
339.24        131.0369
339.69        131.8513
340.14        132.7289
340.59        133.4387
341.05        133.9186
341.50        134.2512
341.95        134.5128
342.40        134.8465
342.85        135.2947
343.30        135.7897
343.75        136.3187
344.20        136.8668
344.66        137.4147
345.11        137.9732
345.56        138.4575
346.01        138.7206
346.46         138.757
346.91        138.6245
347.36        138.4893
347.81          138.61
348.26        139.0338
348.72        139.6725
349.17         140.366
349.62        140.8832
350.07        141.1394
350.52        141.1918
350.97        141.0948
351.42        140.9384
351.87        140.7662
352.32        140.5615
352.77        140.3138
353.22        140.0152
353.67        139.6629
354.13        139.2688
354.58        138.8578
355.03        138.5266
355.48        138.2729
355.93        138.0653
356.38        137.7565
356.83        137.1179
357.28        136.1264
357.73        134.8765
358.18        133.5721
358.63        132.5256
359.08        131.8153
359.53        131.3541
359.98        130.9949
360.43        130.4991
360.88        129.7946
361.33        128.9472
361.78         128.049
362.23        127.2367
362.68        126.5411
363.13        125.9217
363.58         125.299
364.03        124.4449
364.48        123.5197
364.93        122.4366
365.38        121.3161
365.83        120.2481
366.28        119.2689
366.73        118.3526
367.18        117.4884
367.63         116.664
368.08        115.8677
368.53        115.1034
368.98        114.3566
369.43        113.5971
369.88         112.817
370.33        112.0236
370.78        111.2153
371.23        110.3953
371.68        109.5695
372.13        108.7326
372.58        107.9214
373.03        107.1989
373.48         106.571
373.93         106.016
374.38        105.4633
374.83        104.7951
375.28        103.9883
375.72        103.0669
376.17        102.1315
376.62        101.2682
377.07        100.5059
377.52        99.80211
377.97        99.15047
378.42        98.54135
378.87        97.96393
379.32        97.43987
379.77        96.90418
380.22        96.24574
380.67        95.45478
381.11        94.56483
381.56        93.70648
382.01        93.11395
382.46        92.84136
382.91        92.81876
383.36        92.87773
383.81        92.75153
384.26        92.37099
384.71        91.80814
385.15        91.17834
385.60        90.73023
386.05        90.49419
386.50        90.38659
386.95        90.28999
387.40        90.03738
387.85        89.59503
388.29        88.98009
388.74        88.38527
389.19        87.86199
389.64        87.42973
390.09         87.0481
390.54        86.67136
390.98        86.24271
391.43        85.81398
391.88        85.32288
392.33        84.80824
392.78        84.55502
393.23        84.49381
393.67        84.06981
394.12        83.41484
394.57        83.46404
395.02        83.01248
395.47        83.04877
395.91         83.1329
396.36        83.06401
396.81        82.81904
397.26        82.56655
397.71        82.31574
398.15        81.98005
398.60        81.66649
399.05         81.2308
399.50        80.79442
399.95        80.74904
400.39        80.99072
400.84        80.94305
401.29        80.57783
401.74        80.11695
402.18        79.71152
402.63        79.64447
403.08        79.83605
403.53        79.74796
403.97        79.34256
404.42        78.98293
404.87        78.74435
405.32        78.58182
405.76        78.48898
406.21        78.52093
406.66        78.59058
407.11        78.43593
407.55        78.08125
408.00        77.87296
408.45        77.82025
408.90        77.37144
409.34         76.6842
409.79        76.61241
410.24        77.05159
410.68        77.20873
411.13         77.0248
411.58        76.92988
412.03        76.95629
412.47          76.982
412.92        76.98166
413.37        76.98866
413.81        76.97708
414.26        76.97899
414.71        76.97387
415.15        76.97421
415.60        76.93711
416.05        76.86151
416.49        76.75713
416.94        76.62174
417.39        76.49303
417.83        76.41959
418.28        76.40907
418.73        76.44237
419.17        76.49949
419.62        76.54975
420.07        76.58514
420.51        76.60457
420.96        76.62127
421.41        76.62863
421.85        76.59981
422.30        76.50192
422.74        76.35374
423.19        76.49287
423.64        76.82661
424.08        76.91448
424.53        76.68781
424.98        76.62196
425.42        76.76607
425.87        76.69119
426.31        76.46903
426.76        76.68884
427.21        77.19802
427.65        77.09398
428.10         76.5005
428.54        76.32636
428.99          76.633
429.44        77.07636
429.88        77.43852
430.33         77.2477
430.77        76.62912
431.22        76.55322
431.66        76.97037
432.11        77.12921
432.56        77.06197
433.00        77.14323
433.45        77.17931
433.89        77.38717
434.34        77.82728
434.78        76.76141
435.23        76.27142
435.67        77.10296
436.12        77.80901
436.57        78.25499
437.01        77.98042
437.46        77.74057
437.90        78.02851
438.35        78.81736
438.79        78.31897
439.24        78.33497
439.68        78.33558
440.13        78.38848
440.57        78.50124
441.02        78.66492
441.46        78.79725
441.91        78.92293
442.35         78.9166
442.80        78.75338
443.24        78.51586
443.69        78.65901
444.13        79.06973
444.58        79.30863
445.02        79.35564
445.47        78.99971
445.91        79.22039
446.36        79.21278
446.80        79.24484
447.24        79.35428
447.69        79.51309
448.13        79.55035
448.58        79.49771
449.02        79.52582
449.47        79.63602
449.91        79.74158
450.36        79.84335
450.80        79.78457
451.25        79.58811
451.69         79.8171
452.13        79.71587
452.58        79.72717
453.02        79.63281
453.47         79.5325
453.91        79.42357
454.36        79.41989
454.80        79.41154
455.24        79.02726
455.69          78.424
456.13        77.92022
456.58        77.76878
457.02         77.9085
457.46        79.07623
457.91        78.91408
458.35        78.11385
458.79        77.72903
459.24        77.88889
459.68        77.74927
460.13        77.36615
460.57         77.1386
461.01        77.16483
461.46        77.20039
461.90        77.22419
462.34        77.40279
462.79        77.17105
463.23        76.96055
463.68        76.71049
464.12        76.73094
464.56        76.95599
465.01        77.08102
465.45         76.9921
465.89        76.82285
466.34        76.61532
466.78        76.38723
467.22        76.26749
467.67        75.89576
468.11        76.18573
468.55        76.11356
468.99         75.9568
469.44        75.89118
469.88        75.91853
470.32        75.88505
470.77        75.76304
471.21        75.62722
471.65        75.47567
472.10        75.31104
472.54        75.12919
472.98        74.98293
473.42        74.88598
473.87        74.78769
474.31        74.67011
474.75        74.73939
475.20          74.887
475.64        74.81667
476.08        74.59669
476.52        74.43657
476.97         74.3044
477.41        74.83595
477.85        74.63744
478.29        74.42755
478.74        75.16851
479.18        74.32586
479.62        74.56206
480.06        74.36682
480.50        74.45044
480.95        74.54841
481.39        74.53732
481.83        74.59219
482.27        74.75626
482.72        73.98881
483.16        74.23238
483.60        74.00903
484.04        73.85405
484.48        73.89518
484.93        74.24463
485.37        74.04295
485.81        73.97615
486.25        74.68835
486.69        75.11005
487.14        74.65038
487.58        74.50439
488.02         74.2322
488.46        74.15818
488.90        74.74413
489.34        74.18884
489.79        73.14407
490.23        73.75311
490.67        73.50335
491.11         73.2073
491.55        73.06777
491.99        73.11263
492.43        73.12885
492.88        73.07744
493.32        73.09449
493.76        73.14619
494.20        73.20074
494.64        73.26334
495.08        73.25894
495.52        73.22359
495.96        73.38387
496.41        73.64925
496.85        73.59978
497.29        73.26467
497.73        73.11611
498.17        73.07655
498.61        73.18547
499.05         73.3036
499.49        73.15612
499.93        72.85552
500.37        72.71693
500.82        72.73077
501.26        73.02213
501.70        73.59589
502.14        72.74862
502.58        73.14066
503.02        73.07939
503.46        73.05367
503.90        73.06719
504.34        73.01174
504.78         73.0015
505.22        72.98802
505.66        72.74998
506.10         72.4396
506.54        72.56009
506.98        72.96516
507.42         73.1845
507.86         73.1095
508.30        72.40037
508.74        72.96366
509.18         72.8767
509.62        72.71776
510.06        72.58505
510.50        72.52946
510.94        72.58673
511.38        72.70654
511.82        72.76188
512.26        72.72892
512.70        72.68981
513.14        72.66177
513.58        72.60709
514.02        72.52792
514.46        72.48544
514.90        72.48864
515.34        72.29524
515.78         72.3243
516.22        72.24206
516.66        72.19007
517.10        72.18349
517.54        72.22434
517.98        72.29629
518.42        72.36126
518.86         72.3695
519.30        72.31108
519.74        72.20768
520.18        72.09218
520.62        72.01521
521.06        71.99509
521.50        72.01901
521.93        72.08379
522.37         72.1691
522.81        72.26623
523.25        72.36857
523.69        72.46284
524.13        72.52831
524.57        72.55887
525.01        72.56171
525.45        72.52872
525.89        72.45013
526.32        72.32844
526.76        72.18512
527.20        72.06068
527.64        72.02718
528.08        72.09238
528.52        72.22675
528.96         72.3739
529.40        72.44351
529.83        72.40569
530.27        72.30511
530.71        72.16033
531.15        72.01156
531.59        71.88174
532.03        71.76401
532.46        71.67461
532.90        71.66298
533.34         71.7239
533.78        71.83926
534.22        71.97131
534.66        72.06076
535.09        72.07948
535.53        72.06116
535.97        71.99957
536.41        71.90534
536.85        71.79128
537.28        71.66328
537.72         71.5471
538.16        71.47395
538.60        71.45619
539.04        71.50227
539.47        71.57487
539.91        71.65476
540.35         71.7106
540.79        71.75778
541.22        71.78632
541.66        71.78979
542.10        71.76801
542.54         71.7281
542.97        71.67066
543.41        71.64051
543.85        71.62973
544.29        71.62859
544.72        71.63197
545.16        71.65474
545.60          71.675
546.04        71.72495
546.47        71.76589
546.91        71.65407
547.35        71.42334
547.79        71.31154
548.22        71.29832
548.66        71.19526
549.10        71.02143
549.53        71.01641
549.97        71.16595
550.41        71.25959
550.84        71.27125
551.28        71.31782
551.72        71.38993
552.15         71.3737
552.59        71.27597
553.03        71.31322
553.46        71.13538
553.90        71.11297
554.34        71.13425
554.77        71.18641
555.21        71.25483
555.65        71.26458
556.08        71.40189
556.52        71.25255
556.96        70.95607
557.39        70.93302
557.83         71.1538
558.27        71.11506
558.70        70.83911
559.14        70.74909
559.57        70.84556
560.01         70.9272
560.45        70.95587
560.88        71.00503
561.32        71.11328
561.75        71.10724
562.19        71.03668
562.63        71.18207
563.06        71.43821
563.50        71.22498
563.93        70.66548
564.37        70.59749
564.80        70.93632
565.24        71.12967
565.68        70.87807
566.11        70.88944
566.55        71.09948
566.98        71.22089
567.42        71.24948
567.85        71.27817
568.29        71.32275
568.72         71.2093
569.16         71.0524
569.60        71.04201
570.03        71.17216
570.47        71.38811
570.90        71.36497
571.34        71.69381
571.77        71.72706
572.21        71.46227
572.64        71.56843
573.08        71.27505
573.51        70.99683
573.95        71.15986
574.38        71.70975
574.82        71.34228
575.25        71.54527
575.69        71.19142
576.12        71.11318
576.56        70.98156
576.99        71.45384
577.42        71.32816
577.86        71.58008
578.29        71.53011
578.73        71.65043
579.16        71.67305
579.60        71.58772
580.03        71.49458
580.47        71.30289
580.90        71.59331
581.33        71.79523
581.77        71.86734
582.20        71.58957
582.64        72.00751
583.07        71.83082
583.51        71.73513
583.94        71.56194
584.37        71.37398
584.81        71.32782
585.24        71.25829
585.68        71.22089
586.11         71.4363
586.54        71.83109
586.98         71.3748
587.41        71.34525
587.85        71.50705
588.28        71.16399
588.71        71.41525
589.15        71.43823
589.58        71.03599
590.01        71.36799
590.45        71.45885
590.88        70.70589
591.31        70.62613
591.75        70.89107
592.18        70.89259
592.61        70.81487
593.05        71.05885
593.48        71.78501
593.91        71.40227
594.35        71.28916
594.78        71.42294
595.21        71.02248
595.65        70.96552
596.08        70.80196
596.51        71.51632
596.94        70.86303
597.38        70.93595
597.81        71.17892
598.24        70.72436
598.68        70.85289
599.11        70.74605
599.54        70.90385
599.97        70.88242
600.41        71.05173
600.84        71.08029
601.27        71.01649
601.70        71.05096
602.14        70.82303
602.57        70.85939
603.00        70.78828
603.43        70.81174
603.87        71.11765
604.30         70.8327
604.73         70.8267
605.16         70.7738
605.60        70.66696
606.03        70.99007
606.46        71.50168
606.89        71.21209
607.32        70.67586
607.76        70.90488
608.19        70.75353
608.62        70.92011
609.05        70.96284
609.48        70.93707
609.92        70.84808
610.35        70.70099
610.78        70.94585
611.21        70.66543
611.64        70.86819
612.07        70.75993
612.50        70.62044
612.94        70.56509
613.37         70.6452
613.80        70.44328
614.23         70.6068
614.66         70.4975
615.09        70.62822
615.52        70.64693
615.96        70.74609
616.39        70.24693
616.82        70.38383
617.25         70.7444
617.68        70.47546
618.11        70.52514
618.54        70.57723
618.97        70.70361
619.40        70.78816
619.84        70.97375
620.27         70.8317
620.70        70.62074
621.13        70.19042
621.56        70.50776
621.99        69.90853
622.42         69.8063
622.85        70.37354
623.28        70.24023
623.71        70.27964
624.14        70.05589
624.57        70.34431
625.00        70.53967
625.43        70.41296
625.86        70.37849
626.29        70.41631
626.72        69.93155
627.15        70.14914
627.58        70.14093
628.01          70.328
628.44        69.94174
628.87        69.98346
629.30        70.19724
629.73        70.11266
630.16        69.43517
630.59        69.80449
631.02        69.86896
631.45        70.09648
631.88        70.17908
632.31        70.09109
632.74        70.08304
633.17         69.9365
633.60        69.92915
634.03        69.99529
634.46        70.15182
634.89        70.31738
635.32        70.28945
635.75        70.07886
636.18        69.90495
636.61        69.82234
637.04        69.72512
637.47        69.65354
637.89        69.79449
638.32        70.07332
638.75        70.18616
639.18        70.23072
639.61        70.19628
640.04         70.1408
640.47        70.07609
640.90        70.02116
641.33         69.9376
641.76        69.82317
642.18        69.85725
642.61        69.76485
643.04         69.7625
643.47        69.76609
643.90        69.76886
644.33        69.76356
644.76         69.7569
645.18        69.74444
645.61        69.70345
646.04        69.63488
646.47        69.54066
646.90         69.4494
647.33        69.40327
647.75        69.41453
648.18        69.49187
648.61        69.59103
649.04         69.6143
649.47           69.56
649.89        69.48712
650.32        69.44538
650.75        69.50271
651.18         69.6506
651.61        69.79929
652.03        69.85774
652.46        69.81529
652.89        69.76611
653.32        69.46761
653.74        69.33878
654.17        69.88424
654.60         69.4752
655.03        69.50993
655.46        69.45761
655.88        69.99424
656.31        71.31094
656.74        72.99232
657.16        72.44331
657.59        72.01902
658.02        70.31171
658.45        70.40622
658.87        70.30592
659.30        70.56363
659.73        69.97353
660.15        70.02437
660.58        69.71114
661.01        69.72314
661.44        69.78091
661.86        69.87313
662.29        69.93364
662.72        69.83373
663.14         69.6544
663.57        69.69379
664.00        69.92493
664.42        69.98499
664.85        69.86332
665.27        69.76653
665.70        69.71364
666.13        69.65217
666.55        69.59433
666.98        69.54234
667.41        69.51802
667.83        69.55279
668.26        69.63231
668.69        69.77824
669.11        69.94595
669.54        69.99907
669.96        69.91313
670.39        69.95639
670.82        69.64009
671.24        69.72427
671.67        69.97788
672.09        70.00571
672.52        69.83139
672.94        69.71854
673.37        69.72607
673.80        69.81649
674.22        69.96282
674.65        70.00871
675.07        69.95425
675.50        69.88382
675.92        69.82762
676.35        69.76969
676.77        69.72727
677.20        69.71119
677.62        69.72111
678.05        69.73402
678.47        69.74576
678.90        69.76971
679.32        69.81375
679.75        69.90296
680.17        70.03322
680.60        70.19943
681.02        70.34493
681.45        70.37987
681.87        70.30504
682.30        70.08118
682.72        69.81746
683.15        69.82222
683.57        70.07219
684.00        70.15364
684.42        70.06257
684.85        70.09611
685.27        70.23437
685.70         70.3315
686.12        70.35818
686.54        70.30303
686.97         70.1891
687.39        70.19787
687.82        70.32579
688.24        70.25427
688.66          70.313
689.09        70.32004
689.51        70.38728
689.94        70.43073
690.36        70.45347
690.78         70.4675
691.21        70.46574
691.63        70.43462
692.06        70.38033
692.48        70.30709
692.90         70.2338
693.33        70.17962
693.75         70.1557
694.17        70.16002
694.60        70.17437
695.02        70.21833
695.44        70.28119
695.87        70.30166
696.29        70.28831
696.71        70.40779
697.14          70.572
697.56        70.44323
697.98        70.10772
698.41        70.04205
698.83        70.25111
699.25        70.51366
699.68        70.72751
700.10        70.87804
700.52        70.91814
700.94        70.86017
701.37        70.72514
701.79        70.59092
702.21        70.46916
702.64        70.35972
703.06        70.27479
703.48        70.25159
703.90        70.29992
704.33        70.41148
704.75        70.55365
705.17        70.64383
705.59        70.65726
706.01        70.58115
706.44        70.47264
706.86        70.53849
707.28        70.59469
707.70        70.82397
708.12        71.07842
708.55        71.05923
708.97         70.8051
709.39        70.71439
709.81        70.81258
710.23        70.82664
710.66        70.75733
711.08        70.80036
711.50        70.92031
711.92        70.98839
712.34        70.99104
712.76        70.96661
713.19        70.91814
713.61         70.8987
714.03        70.90128
714.45        70.91124
714.87        70.93003
715.29        70.96319
715.71        71.00729
716.13        71.06189
716.56        71.09656
716.98        71.13479
717.40        71.15305
717.82        71.15877
718.24        71.16507
718.66        71.19521
719.08        71.25256
719.50        71.32077
719.92        71.39866
720.34         71.4854
720.76        71.57136
721.19        71.64588
721.61        71.68851
722.03        71.63396
722.45         71.4783
722.87        71.24828
723.29         71.0089
723.71        70.86289
724.13        70.84397
724.55        70.93578
724.97         71.1043
725.39        71.25805
725.81        71.36171
726.23        71.47941
726.65        71.64624
727.07        71.63242
727.49        71.90036
727.91        72.05674
728.33        72.18319
728.75        72.18361
729.17        72.04879
729.59        71.80917
730.01        71.53772
730.43        71.36452
730.85        71.32079
731.27        71.36726
731.69         71.4607
732.10        71.53278
732.52        71.54971
732.94        71.57336
733.36        71.60468
733.78        71.58059
734.20        71.50356
734.62        71.68481
735.04        71.36618
735.46        71.69378
735.88        72.26043
736.30        72.12584
736.72        71.42887
737.13        71.31273
737.55         71.7396
737.97        71.98834
738.39        71.95155
738.81        71.58708
739.23        71.08854
739.65        71.31252
740.06        72.07085
740.48        72.34369
740.90        72.04815
741.32        71.85736
741.74        71.75179
742.16        71.66686
742.57        71.60692
742.99        71.64687
743.41        71.75802
743.83        71.77701
744.25        71.72934
744.67        71.83004
745.08        72.06915
745.50        72.19495
745.92        72.20348
746.34        72.22787
746.75        72.25058
747.17        72.20234
747.59        72.08882
748.01        71.87489
748.42        71.65707
748.84        71.68393
749.26        71.91016
749.68        72.09312
750.09        72.15401
750.51        72.02754
750.93        71.80241
751.35        71.84849
751.76        72.12341
752.18        72.18374
752.60        72.01767
753.01        71.90995
753.43        71.88657
753.85        71.89646
754.27        71.94747
754.68         72.0481
755.10        72.17752
755.52        72.29778
755.93        72.39972
756.35        72.49873
756.77        72.56482
757.18        72.59177
757.60        72.59328
758.02        72.45252
758.43        72.27069
758.85        72.40617
759.26        72.69851
759.68        72.74445
760.10        72.69458
760.51        71.73051
760.93        72.20636
761.34        72.53365
761.76        72.80552
762.18        72.87293
762.59        72.67663
763.01        72.72772
763.42        73.06398
763.84        73.18991
764.26        73.13478
764.67        73.18482
765.09          73.354
765.50        73.43603
765.92        73.40421
766.33        73.23763
766.75        72.94099
767.16        72.65421
767.58        72.31129
768.00         72.5714
768.41        73.22073
768.83        73.11944
769.24        72.42637
769.66        72.38809
770.07        72.94991
770.49        73.34649
770.90        73.45554
771.32        73.33746
771.73        73.10901
772.15        73.05558
772.56        73.21719
772.97        73.44223
773.39        73.59779
773.80        73.50127
774.22        73.18327
774.63        73.08216
775.05        73.20529
775.46        73.28805
775.88        73.30029
776.29        73.47695
776.70        73.76244
777.12        73.95586
777.53         74.0397
777.95        74.04437
778.36        74.01476
778.77        73.98341
779.19        73.96391
779.60        74.01155
780.02         74.0827
780.43        73.99162
780.84        73.78014
781.26        73.79612
781.67        74.07999
782.09        74.20879
782.50        74.02977
782.91        74.53032
783.33         73.8279
783.74        73.84116
784.15        74.01652
784.57        74.12691
784.98        74.15065
785.39        74.35276
785.81        74.64638
786.22        74.58296
786.63        74.25017
787.04        74.16439
787.46        74.37238
787.87         74.5989
788.28        74.74586
788.70        74.79755
789.11        74.71899
789.52        74.42446
789.93         74.0664
790.35        74.13864
790.76        74.58878
791.17        74.71976
791.58        74.50844
792.00        74.47704
792.41        74.64431
792.82        74.65616
793.23        74.57746
793.65        74.64116
794.06        74.89121
794.47        75.35185
794.88        75.83624
795.29        75.80707
795.71        75.69955
796.12        75.11745
796.53        74.42673
796.94        74.38678
797.35        74.96243
797.76        75.18935
798.18        74.99766
798.59        75.03843
799.00        75.29869
799.41        75.34881
799.82        75.19012
800.23         75.0781
800.64        75.03934
801.06        74.96602
801.47        74.92674
801.88        74.96215
802.29         75.0762
802.70        75.27351
803.11        75.47892
803.52         75.5499
803.93        75.45772
804.34        75.24113
804.75        75.00541
805.17        74.91756
805.58        75.05112
805.99        75.32973
806.40        75.65233
806.81        75.84382
807.22        75.84365
807.63        75.71001
808.04        75.52074
808.45        75.39751
808.86        75.38117
809.27        75.43465
809.68        75.50635
810.09        75.51137
810.50        75.43089
810.91        75.30156
811.32        75.17856
811.73        75.15991
812.14        75.27016
812.55        75.42926
812.96        75.59132
813.37        75.79375
813.78        75.95419
814.19        75.84002
814.60        75.53666
815.01        75.39381
815.42         75.4548
815.83        75.55283
816.24        75.65054
816.65        75.75671
817.05        75.85139
817.46        75.88924
817.87         75.9278
818.28        76.00111
818.69         76.1161
819.10        76.26993
819.51        76.40548
819.92        76.42245
820.33        76.30521
820.74        76.08407
821.14        75.86603
821.55        75.85226
821.96        76.05856
822.37        76.43181
822.78        76.83757
823.19        77.02801
823.60        76.93221
824.00        76.65511
824.41        76.26999
824.82        75.99416
825.23        75.89839
825.64        75.92193
826.04        76.07367
826.45        76.32472
826.86        76.64993
827.27        77.05164
827.68        77.42684
828.08        77.63123
828.49        77.55785
828.90        77.27477
829.31        76.89896
829.72         76.6447
830.12         76.6017
830.53        76.67566
830.94        76.80299
831.35        76.82939
831.75        76.73617
832.16        76.53476
832.57        76.32185
832.97        76.21616
833.38        76.25008
833.79        76.38951
834.20         76.5842
834.60        76.76411
835.01        76.91705
835.42        77.04265
835.82        77.18717
836.23        77.34457
836.64        77.53314
837.04        77.75731
837.45        77.90201
837.86        77.88765
838.26        77.72141
838.67        77.43568
839.08         77.1455
839.48        77.01978
839.89        77.09907
840.29        77.31708
840.70        77.62375
841.11        77.93831
841.51        78.23417
841.92         78.5007
842.33        78.66687
842.73        78.61349
843.14        78.28489
843.54        77.74371
843.95         77.1773
844.35        76.91594
844.76        77.02601
845.17        77.43536
845.57        77.94089
845.98        78.15104
846.38         77.9901
846.79        77.53841
847.19        77.02046
847.60        76.75369
848.00        76.85205
848.41        77.17976
848.81        77.58858
849.22        77.76229
849.62        77.65841
850.03        77.35478
850.43        77.02441
850.84        76.84867
851.24        76.93749
851.65        77.16465
852.05        77.50848
852.46         77.7979
852.86        77.95383
853.27        78.03917
853.67        77.99554
854.07        77.91746
854.48         77.7786
854.88        77.60469
855.29        77.31276
855.69        76.98617
856.10        76.57639
856.50        76.19091
856.90        75.87766
857.31        75.72979
857.71        75.81013
858.12        76.02422
858.52        76.34959
858.92        76.62037
859.33        76.75741
859.73        76.82187
860.13        76.77145
860.54        76.57627
860.94        76.28725
861.34        75.88185
861.75        75.41751
862.15        75.04663
862.55        74.78435
862.96        74.63921
863.36        74.55466
863.76        74.40293
864.17        74.16139
864.57        73.89146
864.97        73.70319
865.38        73.75487
865.78        74.11061
866.18        74.66362
866.58        75.25705
866.99         75.6278
867.39        75.71156
867.79        75.55663
868.19        75.23489
868.60        74.81778
869.00        74.34637
869.40        73.83353
869.80        73.38571
870.21        73.21352
870.61        73.43501
871.01        73.91837
871.41        74.48852
871.81        74.88943
872.22        75.02452
872.62        74.97828
873.02        74.80565
873.42        74.61732
873.82        74.47852
874.22        74.37952
874.63        74.33433
875.03        74.33276
875.43        74.37988
875.83        74.46902
876.23        74.63921
876.63         74.9401
877.03        75.35294
877.44        75.83939
877.84        76.24509
878.24         76.2917
878.64         75.9411
879.04        75.29711
879.44        74.61025
879.84        74.23264
880.24        74.23344
880.64        74.52205
881.04        74.91883
881.44          75.105
881.84         74.9841
882.24        74.64457
882.65        74.22407
883.05        74.05806
883.45        74.18505
883.85        74.50672
884.25        74.85857
884.65        75.00828
885.05        74.90217
885.45        74.60728
885.85        74.26968
886.25          74.134
886.65        74.26542
887.05        74.59172
887.45        74.93047
887.85        75.00761
888.25        74.76411
888.65        74.27533
889.04        73.73906
889.44        73.52531
889.84        73.69247
890.24        74.11772
890.64        74.55707
891.04         74.6255
891.44        74.25108
891.84        73.59815
892.24        72.87638
892.64         72.4061
893.04        72.29012
893.44        72.42228
893.83        72.77403
894.23        73.23221
894.63        73.75022
895.03        74.33852
895.43         74.8831
895.83        75.19038
896.23        75.22819
896.63        75.04903
897.02        74.77188
897.42        74.63807
897.82        74.68887
898.22        74.85716
898.62        75.09644
899.01        75.33268
899.41        75.50021
899.81        75.63847
900.21         75.6965
900.61         75.5856
901.00        75.29951
901.40        74.89214
901.80         74.4674
902.20        74.20558
902.59        74.16482
902.99        74.28333
903.39        74.51236
903.79        74.74512
904.18        74.92934
904.58        75.09978
904.98         75.2356
905.38        75.31808
905.77        75.33768
906.17        75.28639
906.57        75.20239
906.96        75.18425
907.36        75.22913
907.76        75.34569
908.15        75.45626
908.55        75.35133
908.95           75.03
909.34        74.52761
909.74        74.05999
910.14        73.90008
910.53         74.1059
910.93        74.58244
911.33        75.10251
911.72         75.2801
912.12        75.01752
912.52        74.47296
912.91        73.88039
913.31        73.59785
913.70        73.70015
914.10        74.07522
914.49        74.60129
914.89        74.99188
915.29        75.15693
915.68         75.1515
916.08        75.08292
916.47        75.11719
916.87        75.30661
917.26        75.57377
917.66         75.7953
918.05        75.75137
918.45         75.4086
918.84        74.88335
919.24         74.3499
919.64        74.17139
920.03        74.44334
920.42        75.03736
920.82        75.74397
921.21        76.22793
921.61        76.37282
922.00           76.27
922.40         76.0396
922.79        75.98363
923.19        76.13767
923.58        76.43816
923.98        76.67343
924.37        76.58547
924.77        76.12236
925.16        75.38516
925.55        74.61457
925.95        74.20603
926.34        74.27948
926.74         74.7071
927.13        75.31123
927.52        75.70483
927.92        75.80053
928.31        75.68358
928.70        75.51562
929.10        75.53757
929.49        75.80135
929.89        76.18018
930.28        76.58141
930.67        76.73151
931.07        76.54924
931.46        76.16709
931.85        75.68771
932.24        75.29823
932.64        75.05846
933.03        74.90712
933.42        74.84109
933.82        74.84912
934.21        74.91551
934.60        75.06679
934.99        75.21891
935.39        75.19701
935.78        75.00992
936.17        74.68954
936.56        74.39969
936.96        74.41531
937.35        74.83656
937.74        75.52071
938.13        76.26949
938.53        76.81223
938.92        77.07351
939.31        77.09853
939.70        76.97614
940.09        76.86246
940.49        76.79046
940.88        76.76907
941.27         76.6908
941.66        76.39764
942.05        75.89049
942.44        75.25854
942.84         74.7328
943.23        74.61452
943.62        74.99994
944.01         75.7916
944.40        76.74199
944.79        77.40509
945.18         77.6095
945.57        77.43095
945.97        77.02894
946.36        76.74094
946.75        76.61715
947.14        76.56993
947.53        76.45833
947.92        76.04948
948.31        75.33965
948.70        74.50113
949.09        73.74549
949.48        73.36385
949.87        73.42445
950.26        73.79957
950.65        74.41445
951.04         75.1579
951.43        75.93406
951.82        76.74173
952.21        77.37583
952.60        77.49921
952.99        77.05665
953.38        76.15309
953.77        75.09458
954.16        74.36317
954.55        74.08334
954.94         74.1396
955.33         74.3625
955.72        74.44569
956.11        74.28691
956.50         73.9887
956.89        73.62186
957.28        73.29664
957.66         73.0971
958.05        72.96598
958.44        72.90025
958.83        72.90652
959.22         72.9625
959.61        73.02686
960.00        73.13432
960.39        73.33266
960.78         73.6059
961.16        73.98256
961.55        74.19131
961.94        73.89431
962.33        73.06908
962.72        71.87887
963.11        70.75325
963.49        70.31647
963.88        70.69123
964.27        71.70546
964.66        72.99474
965.04        73.89629
965.43         74.0919
965.82         73.8074
966.21        73.31586
966.60        73.05904
966.98        73.16917
967.37        73.45379
967.76        73.79597
968.15        73.96606
968.53        73.90468
968.92        73.74468
969.31         73.5418
969.69        73.33421
970.08        73.15537
970.47        72.98512
970.86         73.0121
971.24        73.57137
971.63        74.60184
972.02         75.9618
972.40        77.30476
972.79        78.04008
973.17        78.15154
973.56        77.69704
973.95        77.00849
974.33        76.64864
974.72         76.7759
975.11        77.24559
975.49        77.70623
975.88        77.58678
976.26        76.77963
976.65        75.48497
977.04        74.11517
977.42        73.33147
977.81        73.29182
978.19        73.78149
978.58        74.66095
978.96        75.60037
979.35        76.36889
979.74        77.06573
980.12        77.55081
980.51        77.38117
980.89        76.62553
981.28        75.26994
981.66        73.76176
982.05        72.98743
982.43        73.18952
982.82        74.11024
983.20        75.30111
983.59        75.84644
983.97        75.61879
984.35        74.84286
984.74        73.82817
985.12        73.12872
985.51        72.94202
985.89         73.0929
986.28        73.48176
986.66        74.06478
987.04         74.7403
987.43        75.49722
987.81        76.21391
988.20        76.55758
988.58        76.48779
988.96        76.06647
989.35        75.35588
989.73        74.56681
990.12        73.73419
990.50        72.78609
990.88        71.91019
991.27        71.53917
991.65        71.79795
992.03        72.59589
992.42        73.37729
992.80        73.67536
993.18        73.29073
993.56        72.29367
993.95        71.03643
994.33        70.32731
994.71        70.60294
995.10        71.43182
995.48        72.35889
995.86        72.80151
996.24         72.7002
996.63        72.20956
997.01        71.58904
997.39        71.28432
997.77        71.50458
998.15        72.07643
998.54        72.74925
998.92        73.23592
999.30        73.46529
999.68        73.56081
1000.06        73.61948
1000.45        73.75415
1000.83        74.03043
1001.21         74.2458
1001.59        74.42446
1001.97         74.6048
1002.35        74.82192
1002.73        75.27807
1003.12        75.58562
1003.50        74.85975
1003.88        73.14411
1004.26        70.78625
1004.64        69.10169
1005.02         69.7841
1005.40        72.91051
1005.78        77.94759
1006.16        83.26691
1006.54        85.85168
1006.92        84.76924
1007.30        80.86533
1007.69        75.82557
1008.07        72.50713
1008.45        71.91212
1008.83        73.19518
1009.21        75.24417
1009.59        76.41199
1009.97        76.19495
1010.35        75.08558
1010.73        73.55138
1011.11        72.66007
1011.49        72.97548
1011.86        74.11824
1012.24        75.41451
1012.62        76.31696
1013.00        76.70456
1013.38         76.8484
1013.76        76.95551
1014.14        77.32222
1014.52        78.04816
1014.90        78.96039
1015.28        80.02364
1015.66         81.1607
1016.04        82.20141
1016.41        83.19825
1016.79        83.65738
1017.17        83.24167
1017.55         81.9857
1017.93        80.12222
1018.31        78.17451
1018.69        76.92065
1019.06        76.66859
1019.44        77.32461
1019.82        78.69834
1020.20         80.2403
1020.58        81.53153
1020.95        82.42199
1021.33        83.07651
1021.71        83.76126
1022.09         84.4866
1022.46        85.11207
1022.84        85.18703
1023.22        83.78763
1023.60        80.63639
1023.97        75.69495
1024.35        70.07936
1024.73         66.1993
