SpectraSmart Spectrum 2.9.0.0
--------- Device Information -----------
Spectrum Name :  反射率_0
Saving Time :  2024/04/27 23:50:58
Spectro-Module Model Name : SE2030-DUVN
Spectro-Module Serial Number : OS361AC55029948
Wavelength Start : 200
Wavelength End : 1025
Wavelength Unit : Wavelength(nm)
Spectrum Unit : Reflectance(%)
-----------Spectrum Setting ------------
Integration Time : 20ms
Average : 10
Boxcar : 0
Background removal :  enabled
linearity correction :  enabled
SC :  disabled
Intensity correction :  disabled
DWT denoise :  enabled
savitzky-golay :  disabled
FFT :  disabled
Running average :  disabled
Kalman :  disabled
High pass :  disabled
---------------BEGIN--------------------
Wavelength(nm)             Reflectance(%)
200.29               0
200.75        71.14391
201.21        79.17451
201.67        84.40868
202.13        80.90828
202.58        70.84231
203.04        58.21854
203.50        47.88389
203.96        46.82428
204.42        54.30148
204.88        65.34353
205.34        75.55338
205.80        81.87888
206.26        84.40635
206.72        83.86809
207.18        80.13363
207.64        75.91167
208.10        74.67305
208.55        75.79362
209.01        75.68765
209.47         72.3337
209.93        63.57721
210.39        40.73601
210.85       -28.95923
211.31       -118.2974
211.77       -21.76376
212.23         44.8047
212.69        67.73909
213.14        72.29501
213.60        66.41232
214.06        50.84039
214.52        22.96826
214.98        2.229434
215.44        10.56993
215.90        29.49582
216.36        45.57194
216.81        55.22357
217.27        60.37151
217.73        64.08672
218.19        65.81221
218.65        63.69451
219.11        57.45087
219.57        46.79197
220.02        34.37839
220.48        29.03134
220.94        33.10838
221.40        42.81948
221.86        53.12752
222.32        58.94855
222.77        60.18699
223.23         59.0756
223.69         56.5187
224.15        53.07939
224.61        49.05489
225.06        43.82619
225.52        39.21561
225.98        38.52408
226.44        41.48465
226.90        45.80879
227.36        49.15638
227.81        49.63446
228.27        47.38364
228.73        43.09113
229.19        37.36956
229.65        31.89955
230.10         27.7628
230.56        25.01081
231.02         23.5619
231.48        23.25491
231.93        23.77788
232.39        25.12794
232.85        27.06763
233.31        29.20907
233.77         31.3502
234.22        33.58246
234.68        35.41325
235.14        36.43285
235.60         36.6937
236.05        36.18325
236.51        35.93928
236.97        37.89261
237.43        42.47482
237.88        49.04173
238.34        55.54671
238.80        60.39705
239.26        63.61656
239.71        65.72491
240.17        67.14177
240.63        69.16854
241.08         71.7982
241.54        73.32979
242.00        73.82636
242.46        73.71278
242.91        73.15344
243.37        71.74883
243.83        69.01134
244.28        65.72979
244.74        65.85422
245.20        69.81319
245.66        72.74322
246.11         72.3485
246.57        68.76775
247.03        61.24479
247.48        50.29195
247.94        45.64565
248.40        55.14093
248.85        72.17413
249.31         87.2635
249.77        93.22736
250.22        91.99413
250.68        87.69671
251.14        83.60297
251.59        82.45535
252.05        84.62664
252.51        89.47151
252.96        96.33015
253.42         101.199
253.88        100.6553
254.33        97.17223
254.79        93.48386
255.25        90.15103
255.70        87.00983
256.16        84.27022
256.62        82.70932
257.07        83.29706
257.53        85.65291
257.99        88.31945
258.44        89.62292
258.90        88.70632
259.35        85.61539
259.81        81.79449
260.27        78.08337
260.72        75.56033
261.18        74.58141
261.63        74.13529
262.09        73.90279
262.55        73.03011
263.00        71.36173
263.46        69.44043
263.91        67.35659
264.37        65.67155
264.83        64.39854
265.28        63.32445
265.74        62.43628
266.19        61.45131
266.65        60.39632
267.11        59.27585
267.56        58.09574
268.02        56.97947
268.47        55.90014
268.93        54.83794
269.38        53.75211
269.84        52.62843
270.30        51.45813
270.75         50.2682
271.21        49.06386
271.66        47.78539
272.12        46.47189
272.57        45.11408
273.03        43.84787
273.48        42.78856
273.94        42.00721
274.39        41.40117
274.85        40.90047
275.31        40.30545
275.76        39.55263
276.22        38.74048
276.67         37.8855
277.13        37.13168
277.58         36.4491
278.04        35.84703
278.49        35.24312
278.95        34.64939
279.40        34.00697
279.86        33.39667
280.31        32.79489
280.77         32.2919
281.22        31.85949
281.68        31.53312
282.13        31.25543
282.59        31.00857
283.04        30.76201
283.50        30.53862
283.95        30.36508
284.41        30.32739
284.86        30.40977
285.32        30.60488
285.77        30.80681
286.22        30.91187
286.68        30.92241
287.13        30.83533
287.59        30.77518
288.04        30.84969
288.50        31.10586
288.95        31.46096
289.41        31.83949
289.86        32.07172
290.32        32.15977
290.77        32.16662
291.22        32.19535
291.68        32.38318
292.13        32.77518
292.59         33.3751
293.04        34.16857
293.50        35.15831
293.95        36.32087
294.40        37.65984
294.86        39.17932
295.31        40.87067
295.77        42.72441
296.22        44.70861
296.68        46.75025
297.13        48.70418
297.58        50.53722
298.04        52.28199
298.49        54.02942
298.95         55.9895
299.40        58.20166
299.85        60.62157
300.31        63.17464
300.76        65.66089
301.21         68.0163
301.67         70.3081
302.12        72.51224
302.58        74.71358
303.03        76.89657
303.48        79.06343
303.94        81.29845
304.39         83.6269
304.84        86.07842
305.30        88.64927
305.75          91.191
306.20        93.59152
306.66        95.84305
307.11        97.91634
307.57        99.91772
308.02        101.8689
308.47        103.7989
308.93        105.6912
309.38        107.4446
309.83        109.0405
310.29        110.5036
310.74        111.8305
311.19        113.0787
311.65        114.3011
312.10        115.4683
312.55         116.563
313.00        117.5756
313.46        118.5035
313.91         119.327
314.36        120.0787
314.82        120.7328
315.27        121.2388
315.72        121.6047
316.18        121.8741
316.63        122.1197
317.08        122.4968
317.53        123.0407
317.99        123.7038
318.44        124.4136
318.89        125.0161
319.35        125.4654
319.80        125.8137
320.25        126.1067
320.70        126.4341
321.16        126.8051
321.61        127.1946
322.06        127.5804
322.51        127.9461
322.97        128.2574
323.42         128.573
323.87        128.8323
324.32        128.9568
324.78        128.9286
325.23        128.8294
325.68        128.7474
326.13        128.8619
326.59        129.1894
327.04        129.7377
327.49          130.39
327.94        130.9921
328.39        131.4856
328.85        131.8559
329.30        132.2145
329.75        132.5579
330.20        132.8976
330.66        133.1761
331.11        133.4572
331.56        133.7129
332.01         133.957
332.46         134.205
332.92        134.4266
333.37        134.7487
333.82        135.1249
334.27        135.5535
334.72        136.0159
335.17        136.4803
335.63        136.9058
336.08        137.3621
336.53        137.8342
336.98        138.3549
337.43        138.9254
337.88        139.5244
338.34        140.0995
338.79         140.641
339.24        141.1117
339.69        141.5215
340.14        141.8863
340.59        142.2309
341.05        142.5784
341.50        142.9517
341.95        143.3387
342.40        143.7365
342.85        144.1452
343.30        144.5432
343.75        144.9872
344.20        145.5653
344.66        146.2732
345.11         147.073
345.56        147.7786
346.01        148.0945
346.46        147.9865
346.91        147.5641
347.36        147.1043
347.81        147.0344
348.26        147.4401
348.72        148.1814
349.17        149.0058
349.62        149.5372
350.07        149.6526
350.52         149.456
350.97         149.075
351.42        148.7131
351.87        148.4473
352.32        148.2305
352.77        147.9937
353.22        147.6391
353.67        147.1481
354.13        146.5666
354.58        145.9879
355.03        145.6158
355.48        145.4633
355.93         145.449
356.38        145.3481
356.83        144.8159
357.28        143.7991
357.73         142.433
358.18        140.9589
358.63        139.7472
359.08        138.9019
359.53         138.318
359.98        137.8614
360.43        137.3167
360.88        136.6052
361.33        135.7806
361.78        134.8998
362.23        134.0361
362.68        133.2062
363.13        132.4025
363.58        131.5603
364.03        130.4478
364.48        129.2949
364.93        127.9834
365.38        126.6937
365.83        125.5853
366.28        124.6996
366.73        123.9815
367.18        123.3539
367.63        122.6971
368.08        121.9626
368.53        121.1744
368.98        120.3433
369.43        119.4889
369.88        118.6221
370.33        117.7362
370.78        116.8298
371.23         115.908
371.68        114.9816
372.13        114.0605
372.58        113.1857
373.03        112.4193
373.48        111.7671
373.93        111.2026
374.38        110.6629
374.83        110.0431
375.28        109.3165
375.72        108.5009
376.17         107.663
376.62        106.8363
377.07        106.0426
377.52        105.2547
377.97        104.5158
378.42        103.8968
378.87        103.3979
379.32        103.0092
379.77        102.6134
380.22         102.019
380.67        101.2003
381.11        100.2244
381.56        99.24937
382.01        98.55671
382.46        98.21915
382.91        98.14583
383.36        98.18431
383.81        98.09248
384.26        97.79681
384.71        97.36774
385.15        96.85722
385.60        96.41369
386.05        96.05441
386.50        95.72847
386.95        95.41284
387.40        95.08856
387.85        94.74789
388.29        94.34907
388.74        93.98945
389.19        93.58177
389.64        93.10471
390.09        92.54253
390.54        91.93652
390.98        91.33981
391.43        90.85199
391.88        90.48416
392.33        90.15292
392.78        89.78297
393.23        89.39165
393.67        88.78656
394.12        88.24889
394.57        88.40736
395.02        88.98569
395.47        88.92567
395.91        88.21069
396.36        87.79491
396.81        87.72746
397.26        87.45846
397.71        87.00132
398.15         86.6228
398.60        86.42194
399.05        86.15855
399.50        85.90157
399.95        85.91621
400.39        86.09544
400.84        86.03822
401.29        85.70493
401.74        85.07815
402.18        84.37934
402.63        84.25367
403.08        84.62542
403.53        84.63988
403.97        84.24969
404.42        84.02404
404.87        83.94267
405.32         83.7857
405.76        83.54453
406.21        83.13493
406.66        82.67471
407.11        82.68028
407.55        83.02924
408.00        82.91601
408.45        82.33691
408.90        81.71426
409.34        81.23138
409.79         81.1731
410.24        81.43223
410.68        81.47629
411.13        81.25705
411.58        81.12897
412.03        81.12463
412.47        81.12252
412.92        81.09321
413.37         81.0925
413.81        81.06802
414.26         81.0012
414.71        80.87007
415.15        80.70606
415.60        80.52424
416.05        80.42837
416.49        80.44662
416.94        80.52962
417.39        80.63673
417.83        80.70018
418.28        80.68546
418.73        80.59404
419.17         80.4354
419.62        80.23154
420.07        80.01089
420.51        79.78242
420.96        79.55641
421.41        79.32851
421.85        79.08301
422.30        78.76968
422.74        78.47071
423.19        78.66255
423.64        79.23046
424.08        79.57624
424.53        79.51575
424.98        79.48936
425.42        79.51024
425.87        79.08541
426.31        78.43476
426.76        78.43148
427.21         78.9668
427.65        79.02727
428.10        78.59911
428.54        78.46794
428.99        78.66794
429.44        78.79653
429.88        78.78617
430.33        78.63494
430.77        78.35929
431.22        78.39198
431.66          78.685
432.11         78.7626
432.56        78.72044
433.00        78.96814
433.45        79.25304
433.89         79.3643
434.34        79.34362
434.78        77.74738
435.23        78.15639
435.67        77.38616
436.12        79.15538
436.57         79.2157
437.01        78.61227
437.46        78.22812
437.90        78.58395
438.35         79.4758
438.79        78.95657
439.24        78.95908
439.68        78.93788
440.13        78.82674
440.57        78.70216
441.02        79.02728
441.46        79.59881
441.91        79.55968
442.35        78.97993
442.80        78.92137
443.24         79.3078
443.69        79.43637
444.13        79.27319
444.58         79.2565
445.02        79.36742
445.47        79.44515
445.91        79.46896
446.36        79.52714
446.80        79.60255
447.24        79.60483
447.69        79.58178
448.13        79.74783
448.58        80.05096
449.02        79.98667
449.47        79.64229
449.91        79.49667
450.36        79.59737
450.80        79.63796
451.25        79.61974
451.69        79.65031
452.13        79.71111
452.58        79.71273
453.02        79.63122
453.47        79.48986
453.91        79.28333
454.36        79.06209
454.80        78.82083
455.24        78.47581
455.69        78.11926
456.13         77.8519
456.58        77.79587
457.02        77.67982
457.46        78.23283
457.91        78.02928
458.35        77.64329
458.79        77.39767
459.24        77.42533
459.68        77.28117
460.13        76.95077
460.57        76.95994
461.01        76.50255
461.46        76.29065
461.90        76.01019
462.34         75.8633
462.79        76.53062
463.23        76.42683
463.68         75.8728
464.12        75.57908
464.56        75.61066
465.01        75.76883
465.45        75.84391
465.89        75.71367
466.34        75.42189
466.78        75.32944
467.22        74.57211
467.67        75.28919
468.11        74.70949
468.55        74.76706
468.99        74.69918
469.44        74.66767
469.88        74.66042
470.32        74.60912
470.77        74.52329
471.21        74.40865
471.65        74.26683
472.10         74.1116
472.54        73.94097
472.98        73.80988
473.42        73.73161
473.87        73.65831
474.31         73.5638
474.75        73.63253
475.20        73.78094
475.64        73.70029
476.08        73.42963
476.52         73.2831
476.97        73.26443
477.41        73.26904
477.85        73.28105
478.29        72.92393
478.74        73.46767
479.18        72.70768
479.62        73.12509
480.06         72.9608
480.50        72.83421
480.95        72.78418
481.39         72.7906
481.83        72.58085
482.27        72.60267
482.72        72.59684
483.16        72.58043
483.60        72.61311
484.04         72.6531
484.48         72.7284
484.93        72.94433
485.37        72.84397
485.81        73.29771
486.25        73.01114
486.69        73.57722
487.14        72.70153
487.58        72.61766
488.02        72.88347
488.46        72.79082
488.90        72.57101
489.34        72.34731
489.79        71.36156
490.23        72.50611
490.67        72.38506
491.11        71.89208
491.55        71.67564
491.99        71.78416
492.43        71.80983
492.88        71.71387
493.32        71.72603
493.76        71.80235
494.20        71.87188
494.64        71.94351
495.08        71.91368
495.52        71.80547
495.96        71.98238
496.41        72.31963
496.85        72.01198
497.29        71.24651
497.73        71.22732
498.17        71.81371
498.61        72.13217
499.05        72.01809
499.49        72.03617
499.93        72.15869
500.37        71.83434
500.82        71.20969
501.26        71.02615
501.70        71.81451
502.14        71.25939
502.58         71.7493
503.02        71.77793
503.46        71.71236
503.90        71.57652
504.34        71.35651
504.78        71.28802
505.22         71.3493
505.66        71.38456
506.10        71.39669
506.54        71.47511
506.98        71.57514
507.42        71.78741
507.86        71.68094
508.30        71.64191
508.74        71.55198
509.18        71.38086
509.62        71.17441
510.06        71.04271
510.50        71.01395
510.94         71.0574
511.38        71.14069
511.82        71.20538
512.26         71.2299
512.70        71.23367
513.14        71.23009
513.58        71.21307
514.02        71.18481
514.46        71.19063
514.90        71.24162
515.34        71.10732
515.78        71.19707
516.22        71.17812
516.66        71.17925
517.10        71.19728
517.54        71.23325
517.98        71.28288
518.42        71.31492
518.86        71.29128
519.30        71.20692
519.74        71.07439
520.18        70.94299
520.62        70.88885
521.06        70.92767
521.50        71.03894
521.93        71.16782
522.37        71.21078
522.81        71.14792
523.25        71.00285
523.69        70.83764
524.13        70.74887
524.57        70.75979
525.01        70.84668
525.45        70.94003
525.89        70.93042
526.32        70.79336
526.76        70.57845
527.20        70.37408
527.64         70.3274
528.08        70.46185
528.52        70.71873
528.96        70.99236
529.40          71.119
529.83        71.05494
530.27        70.87274
530.71        70.63752
531.15        70.46178
531.59        70.38248
532.03        70.36097
532.46        70.38116
532.90        70.43994
533.34         70.5174
533.78        70.62309
534.22        70.71696
534.66        70.73434
535.09        70.65757
535.53        70.51836
535.97        70.36517
536.41        70.29671
536.85        70.33339
537.28        70.45067
537.72        70.58144
538.16        70.60658
538.60        70.50477
539.04        70.33076
539.47        70.13783
539.91         70.0452
540.35        70.05888
540.79        70.15701
541.22        70.27088
541.66        70.29948
542.10        70.21932
542.54        70.07106
542.97        69.91034
543.41        69.86052
543.85        69.92963
544.29        70.07846
544.72        70.24033
545.16        70.34113
545.60        70.34106
546.04        70.28453
546.47        70.19524
546.91        70.06324
547.35        69.94073
547.79        69.90743
548.22        70.08371
548.66        69.99275
549.10        69.72327
549.53        69.65691
549.97        69.80479
550.41        69.87085
550.84        69.81213
551.28        69.88646
551.72        70.09575
552.15        70.03981
552.59        69.65791
553.03        70.26645
553.46        69.68202
553.90        69.71675
554.34        69.71119
554.77        69.88262
555.21        69.82011
555.65        69.88466
556.08        69.86509
556.52        69.70682
556.96        69.45187
557.39        69.44862
557.83        69.66603
558.27        69.65392
558.70        69.42934
559.14        69.36452
559.57        69.45521
560.01        69.52094
560.45        69.52077
560.88        69.51732
561.32        69.55664
561.75        69.47735
562.19        69.34652
562.63        69.46947
563.06        69.73466
563.50        69.54619
563.93        69.01304
564.37        68.91914
564.80        69.23722
565.24        69.47689
565.68        69.57103
566.11        69.66603
566.55        69.75792
566.98        69.80221
567.42        69.81013
567.85        69.65136
568.29        69.45567
568.72        69.43279
569.16        69.58723
569.60        69.74655
570.03         69.9124
570.47        69.82412
570.90         69.7599
571.34         70.2642
571.77         70.1614
572.21        69.72861
572.64        70.12365
573.08        69.57292
573.51        69.65996
573.95         69.7665
574.38        70.10873
574.82        70.04585
575.25        70.08298
575.69        69.85011
576.12         69.4099
576.56        69.84277
576.99        69.81321
577.42        69.63107
577.86        69.90073
578.29        70.07787
578.73        70.03065
579.16        70.12574
579.60        70.19821
580.03        70.13789
580.47         69.8075
580.90        70.32397
581.33        70.29112
581.77        70.24242
582.20        70.27081
582.64        70.24026
583.07        69.99934
583.51        69.80992
583.94        69.83273
584.37        69.74615
584.81        69.61641
585.24        69.61729
585.68        69.78839
586.11        69.73039
586.54        69.65038
586.98        69.55264
587.41        69.97215
587.85        69.55962
588.28        69.55722
588.71        69.48341
589.15        69.59491
589.58        69.41575
590.01        69.63654
590.45        69.61597
590.88        69.07344
591.31        68.97668
591.75        69.17314
592.18        69.12037
592.61        69.00574
593.05        69.30944
593.48        70.14754
593.91        69.52884
594.35         69.5479
594.78         69.7121
595.21        69.38685
595.65        69.40443
596.08        69.39297
596.51        69.26563
596.94        69.14916
597.38        69.10073
597.81        69.24618
598.24        69.15035
598.68        69.36533
599.11        69.31765
599.54        69.29628
599.97        69.29566
600.41        69.37345
600.84        69.45535
601.27        69.58772
601.70        68.95271
602.14        68.94764
602.57        69.15969
603.00         69.2181
603.43        69.26524
603.87        69.45325
604.30        69.15411
604.73        69.08414
605.16         69.1615
605.60        69.02807
606.03        69.29444
606.46        69.68938
606.89        69.43298
607.32        69.09258
607.76        69.41412
608.19        69.03987
608.62        69.05654
609.05        69.01906
609.48        68.85329
609.92        68.57718
610.35        68.78798
610.78        68.96436
611.21        68.89104
611.64         69.1795
612.07        69.06638
612.50        68.82896
612.94        68.73558
613.37        68.86766
613.80        68.64399
614.23        68.86395
614.66        68.74384
615.09        68.95881
615.52        69.00514
615.96        69.06861
616.39        68.62232
616.82        68.90806
617.25        68.76453
617.68        68.63859
618.11        68.64351
618.54        68.49715
618.97        68.63142
619.40        68.84048
619.84        68.93224
620.27        68.97137
620.70        68.79669
621.13        68.40025
621.56        68.81346
621.99        68.64162
622.42        68.37437
622.85        68.23042
623.28        68.65488
623.71        68.35987
624.14        67.99642
624.57        68.40903
625.00        68.63609
625.43        68.30654
625.86        68.29495
626.29        68.41095
626.72         68.4072
627.15        68.31992
627.58         68.2808
628.01        68.57111
628.44        68.13254
628.87        68.07431
629.30         68.5275
629.73        68.26229
630.16        68.27261
630.59        68.24476
631.02        68.32189
631.45         68.4661
631.88        68.52784
632.31        68.52242
632.74        68.17429
633.17        68.20043
633.60        68.08242
634.03        68.03722
634.46        68.04251
634.89        68.07896
635.32        68.08784
635.75         68.0486
636.18        68.01951
636.61        68.00634
637.04        67.93912
637.47        67.85881
637.89        67.94823
638.32        68.15245
638.75        68.25049
639.18        68.21819
639.61        68.22749
640.04        68.19204
640.47         68.1619
640.90        68.12039
641.33        68.04707
641.76        67.95255
642.18        68.02664
642.61        68.00302
643.04        68.08095
643.47        68.15428
643.90        68.18092
644.33        68.14641
644.76        68.06847
645.18        67.96853
645.61          67.867
646.04        67.77674
646.47        67.68794
646.90        67.61432
647.33        67.57212
647.75        67.57003
648.18        67.62968
648.61        67.71083
649.04        67.73984
649.47        67.72038
649.89        67.64211
650.32        67.56827
650.75        67.72496
651.18        68.03508
651.61        68.10175
652.03        67.86552
652.46        67.65516
652.89        67.66209
653.32        67.44758
653.74        67.30107
654.17        68.23706
654.60        67.81318
655.03        67.30706
655.46        68.00026
655.88        68.54304
656.31        70.41751
656.74        71.56392
657.16        70.05817
657.59        69.11961
658.02        68.02574
658.45        68.55083
658.87        68.28677
659.30        68.43266
659.73        67.96082
660.15        67.80164
660.58        67.93425
661.01        68.03553
661.44         68.0797
661.86         68.0646
662.29        67.97942
662.72        67.86308
663.14        67.76016
663.57        67.70845
664.00        67.71942
664.42        67.71623
664.85        67.70291
665.27        67.73827
665.70        67.79076
666.13          67.785
666.55        67.71594
666.98         67.5946
667.41        67.47884
667.83         67.4668
668.26        67.56838
668.69        67.75773
669.11        67.96474
669.54        68.09056
669.96        68.11855
670.39        68.00911
670.82         67.8364
671.24        67.87386
671.67        68.07882
672.09        68.04436
672.52        67.82124
672.94        67.78609
673.37        67.93311
673.80        67.96085
674.22        67.87868
674.65         67.8433
675.07        67.87701
675.50        67.88352
675.92        67.86559
676.35         67.8463
676.77        67.83309
677.20        67.82537
677.62        67.82918
678.05        67.83526
678.47          67.842
678.90        67.85651
679.32        67.88889
679.75        67.96735
680.17         68.0907
680.60        68.25779
681.02        68.39982
681.45        68.42156
681.87        68.32512
682.30        68.02888
682.72        67.67403
683.15        67.72899
683.57        68.13117
684.00        68.20817
684.42        67.97247
684.85        67.98104
685.27        68.22433
685.70        68.36803
686.12        68.38422
686.54        68.41875
686.97        68.45187
687.39        68.44135
687.82        68.40001
688.24         68.2418
688.66        68.31081
689.09        68.23976
689.51        68.27617
689.94        68.28509
690.36        68.31313
690.78        68.34143
691.21        68.36225
691.63        68.38474
692.06        68.39214
692.48        68.32436
692.90         68.2036
693.33        68.10988
693.75        68.05959
694.17        68.02187
694.60        67.98277
695.02        67.96762
695.44        67.96815
695.87        67.95761
696.29        67.97108
696.71        68.04395
697.14        68.33118
697.56        68.35194
697.98        68.19743
698.41        68.19395
698.83        68.31995
699.25        68.44901
699.68         68.5462
700.10         68.5563
700.52        68.42878
700.94        68.74146
701.37        68.46339
701.79          68.452
702.21        68.39637
702.64        68.28973
703.06        68.22198
703.48        68.17926
703.90        68.20648
704.33           68.27
704.75        68.35085
705.17        68.39223
705.59        68.37873
706.01        68.30141
706.44        68.18872
706.86        68.22251
707.28        68.22807
707.70        68.31085
708.12        68.38971
708.55        68.46412
708.97        68.49151
709.39        68.38329
709.81        68.19827
710.23        68.14591
710.66        68.25541
711.08        68.44139
711.50        68.62594
711.92        68.74438
712.34        68.77379
712.76        68.73276
713.19        68.65675
713.61        68.65441
714.03        68.72728
714.45        68.84104
714.87        68.96073
715.29        69.03299
715.71         69.0433
716.13        69.01785
716.56        68.94522
716.98        68.87915
717.40        68.81377
717.82        68.74446
718.24        68.70647
718.66        68.75716
719.08        68.89828
719.50        69.10588
719.92        69.31857
720.34        69.43509
720.76        69.42963
721.19        69.32449
721.61        69.17374
722.03        69.03894
722.45        68.94742
722.87        68.88144
723.29        68.85031
723.71        68.86572
724.13        68.92718
724.55        69.04214
724.97        69.17405
725.39        69.25741
725.81        69.27659
726.23        69.23878
726.65        69.19676
727.07        69.24159
727.49        69.38673
727.91        69.59945
728.33        69.80282
728.75        69.86937
729.17         69.7705
729.59        69.55401
730.01        69.29752
730.43        69.12396
730.85        69.07418
731.27        69.11297
731.69        69.20481
732.10         69.3182
732.52        69.41965
732.94        69.50893
733.36         69.5781
733.78        69.73538
734.20        69.61692
734.62        69.90542
735.04        69.69091
735.46        69.77063
735.88        69.84582
736.30        69.58533
736.72        69.11856
737.13        69.02804
737.55        69.29368
737.97        69.54252
738.39        69.65356
738.81        69.53338
739.23        69.23646
739.65        69.14545
740.06        69.25046
740.48        69.26341
740.90        69.15721
741.32        69.21973
741.74        69.34681
742.16        69.50223
742.57        69.64075
742.99        69.78413
743.41        69.90549
743.83        69.94439
744.25        69.89399
744.67        69.75686
745.08         69.6104
745.50        69.54755
745.92        69.61045
746.34         69.7789
746.75        69.96306
747.17        70.02148
747.59        69.92218
748.01        69.66662
748.42        69.38673
748.84        69.34001
749.26        69.51713
749.68        69.77377
750.09        69.98678
750.51        69.86982
750.93        69.51579
751.35        69.51879
751.76        69.86581
752.18        69.82312
752.60        69.73476
753.01        69.65165
753.43        69.68425
753.85        69.71195
754.27        69.73369
754.68        69.77239
755.10        69.82506
755.52        69.88875
755.93        69.97276
756.35        70.09127
756.77        70.18885
757.18        70.26387
757.60        70.32009
758.02        70.12305
758.43        69.81806
758.85        70.16605
759.26        70.57658
759.68        70.72044
760.10        70.55131
760.51        69.30397
760.93        69.44933
761.34        69.38797
761.76        70.20785
762.18        70.40227
762.59        70.14947
763.01        70.14673
763.42        70.47396
763.84         70.5792
764.26        70.47577
764.67        70.56962
765.09        70.80687
765.50        70.62383
765.92        70.16044
766.33        70.05578
766.75         70.2793
767.16        70.37086
767.58        70.24498
768.00        70.32889
768.41        70.59227
768.83        70.51572
769.24        70.18602
769.66        70.22246
770.07        70.54517
770.49        70.58296
770.90        70.37061
771.32        70.40367
771.73        70.68296
772.15        70.82101
772.56        70.81033
772.97        70.88764
773.39        71.01236
773.80        70.95523
774.22        70.76309
774.63        70.86941
775.05        71.19061
775.46        71.31509
775.88        71.18024
776.29        71.06251
776.70        71.00404
777.12        70.97555
777.53        71.01337
777.95         71.0987
778.36        71.21783
778.77        71.32833
779.19        71.41392
779.60        71.49323
780.02         71.5407
780.43        71.55238
780.84        71.50887
781.26        71.38444
781.67        71.29142
782.09        71.30602
782.50        71.29095
782.91        71.84996
783.33        71.15159
783.74        71.13827
784.15        71.26684
784.57        71.28737
784.98        71.22195
785.39        71.32081
785.81        71.56668
786.22        71.74763
786.63        71.80912
787.04        71.81817
787.46        71.78603
787.87         71.6588
788.28        71.48868
788.70        71.42108
789.11        71.46861
789.52        71.48679
789.93        71.51044
790.35        71.83965
790.76        72.36669
791.17        72.46199
791.58        72.14966
792.00        72.01968
792.41        72.12683
792.82        72.08473
793.23        71.94125
793.65        71.99431
794.06        72.26313
794.47        72.58408
794.88        72.83344
795.29        72.98102
795.71         72.9144
796.12        72.65482
796.53        72.28106
796.94        72.23495
797.35        72.48719
797.76        72.47508
798.18        72.23112
798.59        72.23367
799.00        72.49413
799.41        72.72287
799.82        72.85303
800.23        72.92438
800.64        72.91441
801.06        72.78661
801.47        72.61581
801.88        72.44983
802.29        72.32416
802.70          72.251
803.11        72.22416
803.52        72.22092
803.93        72.22782
804.34        72.23779
804.75        72.30209
805.17        72.44291
805.58        72.67268
805.99        73.08546
806.40        73.51402
806.81        73.35408
807.22        72.72251
807.63        72.42088
808.04        72.51904
808.45        72.49426
808.86        72.35434
809.27        72.48092
809.68        72.79433
810.09        72.93414
810.50        72.84684
810.91        72.63956
811.32        72.40453
811.73        72.30743
812.14        72.39693
812.55        72.56563
812.96        72.75211
813.37         72.9701
813.78        73.13094
814.19        73.02409
814.60        72.73452
815.01        72.59971
815.42        72.66351
815.83          72.759
816.24        72.85915
816.65        72.99277
817.05         73.1374
817.46        73.23408
817.87        73.31364
818.28        73.37145
818.69        73.40724
819.10        73.43652
819.51        73.41412
819.92        73.26498
820.33        72.99793
820.74        72.64658
821.14        72.34985
821.55        72.35296
821.96        72.67434
822.37        73.24689
822.78        73.88419
823.19        74.24208
823.60        74.20917
824.00        73.89866
824.41        73.41872
824.82        73.05035
825.23        72.88879
825.64        72.86587
826.04        72.96386
826.45        73.11119
826.86        73.28226
827.27        73.50523
827.68        73.74629
828.08        73.96529
828.49        74.07668
828.90        74.11274
829.31        74.09862
829.72        74.09596
830.12        74.14642
830.53        74.18864
830.94        74.22742
831.35        74.23433
831.75        74.22332
832.16        74.16116
832.57        74.08338
832.97        74.01096
833.38         73.9464
833.79        73.89538
834.20        73.84942
834.60        73.78841
835.01         73.7229
835.42         73.6534
835.82        73.62177
836.23        73.61954
836.64        73.67549
837.04        73.80518
837.45        73.93528
837.86        74.04544
838.26        74.13418
838.67        74.18784
839.08        74.23994
839.48        74.33133
839.89         74.4645
840.29        74.61598
840.70         74.7547
841.11          74.837
841.51        74.87056
841.92        74.83942
842.33        74.76473
842.73        74.67656
843.14         74.5427
843.54        74.38564
843.95        74.23971
844.35        74.17892
844.76          74.203
845.17         74.2983
845.57        74.40314
845.98        74.36993
846.38        74.19775
846.79         73.9147
847.19        73.61971
847.60        73.42608
848.00        73.39493
848.41        73.44994
848.81        73.59798
849.22        73.77242
849.62        73.97452
850.03         74.1946
850.43        74.38879
850.84        74.40395
851.24        74.26855
851.65        73.95401
852.05        73.65487
852.46        73.61813
852.86        73.89603
853.27        74.40896
853.67        74.89607
854.07        75.18679
854.48        75.20266
854.88         75.0443
855.29        74.71961
855.69        74.46069
856.10        74.25736
856.50        74.13769
856.90          74.041
857.31        73.90479
857.71        73.75894
858.12        73.57882
858.52        73.44135
858.92        73.32998
859.33        73.23062
859.73        73.18122
860.13        73.11955
860.54        72.97404
860.94        72.76325
861.34        72.45902
861.75        72.13143
862.15        71.95029
862.55        71.91949
862.96        72.03867
863.36        72.13722
863.76        71.91645
864.17        71.33581
864.57        70.50752
864.97        69.76318
865.38        69.61277
865.78        70.19676
866.18        71.32977
866.58        72.59832
866.99        73.26383
867.39          73.132
867.79        72.40402
868.19        71.43501
868.60         70.7238
869.00        70.40843
869.40        70.36166
869.80         70.5039
870.21        70.69558
870.61        70.93153
871.01        71.22173
871.41        71.50306
871.81        71.66486
872.22         71.6706
872.62        71.54465
873.02        71.38843
873.42        71.40753
873.82        71.64436
874.22         72.0281
874.63        72.43337
875.03        72.65044
875.43         72.6479
875.83        72.48897
876.23        72.26456
876.63        72.12648
877.03        72.11864
877.44        72.17947
877.84        72.26298
878.24        72.26414
878.64        72.15417
879.04        71.98228
879.44        71.78214
879.84        71.58886
880.24        71.41587
880.64        71.24944
881.04        71.10374
881.44        71.00894
881.84        70.96632
882.24        70.96281
882.65        70.95271
883.05        70.95317
883.45        70.93066
883.85        70.92294
884.25        70.91908
884.65        70.90397
885.05        70.88127
885.45        70.82494
885.85        70.84167
886.25        71.11446
886.65        71.64195
887.05        72.35001
887.45        72.96567
887.85        73.07638
888.25        72.61752
888.65        71.72105
889.04        70.69676
889.44        70.11552
889.84        70.10979
890.24        70.50742
890.64        71.06036
891.04         71.3622
891.44        71.29959
891.84        71.03349
892.24        70.66055
892.64        70.31843
893.04        70.08391
893.44        69.90647
893.83        69.88372
894.23        70.12312
894.63        70.63485
895.03        71.34962
895.43        72.10127
895.83        72.60297
896.23        72.77424
896.63        72.70799
897.02        72.45676
897.42        72.15239
897.82        71.84407
898.22            71.5
898.62        71.24081
899.01        71.27619
899.41          71.616
899.81        72.23044
900.21        72.88976
900.61        73.19897
901.00        73.05312
901.40        72.56672
901.80        71.98164
902.20        71.71025
902.59        71.85741
902.99        72.27644
903.39        72.75884
903.79         72.9481
904.18        72.76217
904.58        72.36463
904.98        71.91875
905.38        71.65808
905.77        71.63247
906.17        71.74746
906.57        71.95809
906.96         72.2216
907.36         72.4643
907.76        72.72182
908.15        72.89562
908.55         72.7412
908.95        72.27309
909.34        71.55901
909.74        70.85915
910.14        70.52357
910.53          70.646
910.93        71.10979
911.33        71.76295
911.72        72.32627
912.12        72.66233
912.52        72.84697
912.91        72.89758
913.31        72.88074
913.70        72.82382
914.10        72.68482
914.49        72.51819
914.89        72.38026
915.29        72.31055
915.68        72.29868
916.08        72.31725
916.47        72.29964
916.87        72.24339
917.26        72.15871
917.66         72.0569
918.05        71.91463
918.45         71.7345
918.84        71.55242
919.24        71.39219
919.64        71.38082
920.03        71.55404
920.42        71.85938
920.82        72.23021
921.21        72.55297
921.61        72.77386
922.00        72.92298
922.40        73.02209
922.79        73.19078
923.19         73.4119
923.58        73.68423
923.98        73.88226
924.37        73.88071
924.77        73.65491
925.16        73.24177
925.55        72.81281
925.95        72.65273
926.34        72.82732
926.74        73.23536
927.13        73.70924
927.52        73.87741
927.92        73.68339
928.31        73.23703
928.70        72.73302
929.10        72.45965
929.49        72.48749
929.89        72.68147
930.28        72.99136
930.67        73.21109
931.07         73.2536
931.46        73.22112
931.85        73.08298
932.24        72.81941
932.64        72.45896
933.03        72.00918
933.42        71.61138
933.82        71.49483
934.21        71.70926
934.60        72.20428
934.99        72.80377
935.39        73.18324
935.78        73.27025
936.17        73.10477
936.56        72.84543
936.96        72.76447
937.35        72.97696
937.74          73.371
938.13        73.72922
938.53        73.73984
938.92        73.35963
939.31        72.67826
939.70        71.97408
940.09        71.72784
940.49        72.02357
940.88        72.72433
941.27        73.47729
941.66        73.75067
942.05         73.4334
942.44        72.71837
942.84        71.87834
943.23        71.30078
943.62        71.14774
944.01        71.28668
944.40        71.63769
944.79        72.05308
945.18        72.43488
945.57        72.81697
945.97        73.08686
946.36         73.1491
946.75         72.9585
947.14        72.51521
947.53        71.94267
947.92        71.48838
948.31        71.23679
948.70        71.15686
949.09        71.12535
949.48        70.92342
949.87        70.52163
950.26        70.01784
950.65        69.57422
951.04        69.43718
951.43        69.65913
951.82        70.13927
952.21        70.73158
952.60        71.19139
952.99        71.40658
953.38        71.41751
953.77        71.26692
954.16        71.02788
954.55        70.74203
954.94        70.40794
955.33        70.02264
955.72        69.59073
956.11        69.13369
956.50        68.66798
956.89        68.31365
957.28        68.24783
957.66        68.52702
958.05          69.094
958.44        69.71806
958.83        70.02646
959.22        69.92693
959.61        69.47536
960.00        68.96658
960.39         68.8852
960.78        69.32185
961.16        70.16896
961.55        70.96786
961.94        71.03264
962.33        70.22342
962.72        68.83018
963.11        67.37714
963.49        66.61537
963.88        66.72208
964.27        67.47844
964.66        68.56409
965.04        69.41038
965.43         69.7133
965.82        69.67355
966.21        69.46958
966.60        69.39037
966.98         69.5215
967.37        69.69767
967.76        69.84032
968.15        69.80968
968.53        69.59437
968.92        69.32491
969.31        69.03771
969.69        68.73716
970.08        68.45155
970.47        68.16677
970.86        68.13246
971.24        68.78352
971.63        70.03977
972.02        71.68246
972.40        73.23705
972.79        73.92319
973.17        73.71545
973.56        72.77678
973.95        71.50822
974.33        70.61047
974.72        70.32864
975.11        70.44939
975.49         70.7738
975.88        70.98769
976.26         70.9714
976.65        70.85794
977.04        70.60197
977.42        70.08176
977.81        69.27539
978.19        68.17805
978.58        67.21449
978.96        67.06739
979.35        67.88274
979.74          69.536
980.12        71.49793
980.51        72.68172
980.89        72.92442
981.28        72.34926
981.66        71.57476
982.05        71.77299
982.43        73.18174
982.82        75.32399
983.20         77.3927
983.59        78.01749
983.97        77.01208
984.35        74.77898
984.74        72.05257
985.12        70.13957
985.51        69.50269
985.89           69.79
986.28        70.57649
986.66         71.3079
987.04        71.74098
987.43        72.03014
987.81        72.21011
988.20        72.20784
988.58        72.09047
988.96        71.84998
989.35        71.43152
989.73        70.89762
990.12        70.23782
990.50        69.36423
990.88        68.65351
991.27        68.87112
991.65        70.10762
992.03        72.05747
992.42        73.67009
992.80        73.91202
993.18        72.51142
993.56        69.60728
993.95        65.99733
994.33         63.8331
994.71        64.21532
995.10        66.20254
995.48        68.57957
995.86        69.95586
996.24        70.16549
996.63        69.60372
997.01        68.65711
997.39        68.04943
997.77        68.14529
998.15        68.66328
998.54        69.25526
998.92        69.54033
999.30        69.40588
999.68        68.99165
1000.06        68.59263
1000.45        68.63015
1000.83        69.26008
1001.21        70.27274
1001.59        71.22859
1001.97        71.48869
1002.35        70.94695
1002.73        69.81232
1003.12        68.51001
1003.50         67.8043
1003.88         68.0477
1004.26        68.86675
1004.64        69.98665
1005.02        71.11292
1005.40        72.13194
1005.78        73.17589
1006.16         73.9106
1006.54        73.71695
1006.92        72.51163
1007.30         70.4754
1007.69        68.36349
1008.07        67.34796
1008.45        67.80917
1008.83        69.39928
1009.21         71.3821
1009.59        72.68428
1009.97        72.99139
1010.35        72.48209
1010.73        71.51009
1011.11         70.9665
1011.49          71.292
1011.86        72.33411
1012.24        73.31602
1012.62        73.44499
1013.00        72.65034
1013.38        71.25709
1013.76        70.04148
1014.14        70.27329
1014.52        72.24696
1014.90        75.54462
1015.28        79.24642
1015.66        81.49953
1016.04        81.55095
1016.41        80.01041
1016.79        77.37901
1017.17        74.79388
1017.55        72.70888
1017.93        70.97075
1018.31        69.70411
1018.69        69.06044
1019.06        69.11465
1019.44        69.97176
1019.82        71.62935
1020.20        73.81731
1020.58         76.0785
1020.95         77.9818
1021.33        79.27562
1021.71        79.79889
1022.09        79.53875
1022.46        78.50562
1022.84        76.65508
1023.22        73.76125
1023.60        69.84952
1023.97        64.84606
1024.35        59.65657
1024.73        55.98916
