SpectraSmart Spectrum 2.9.0.0
--------- Device Information -----------
Spectrum Name :  反射率_0
Saving Time :  2024/04/27 23:57:32
Spectro-Module Model Name : SE2030-DUVN
Spectro-Module Serial Number : OS361AC55029948
Wavelength Start : 200
Wavelength End : 1025
Wavelength Unit : Wavelength(nm)
Spectrum Unit : Reflectance(%)
-----------Spectrum Setting ------------
Integration Time : 20ms
Average : 10
Boxcar : 0
Background removal :  enabled
linearity correction :  enabled
SC :  disabled
Intensity correction :  disabled
DWT denoise :  enabled
savitzky-golay :  disabled
FFT :  disabled
Running average :  disabled
Kalman :  disabled
High pass :  disabled
---------------BEGIN--------------------
Wavelength(nm)             Reflectance(%)
200.29               0
200.75        39.74334
201.21        68.21297
201.67         85.5575
202.13        87.86607
202.58        80.62841
203.04        68.32712
203.50        56.50791
203.96         53.4619
204.42        59.09875
204.88        68.60172
205.34        77.67842
205.80        83.07211
206.26         84.6917
206.72        83.26707
207.18        78.57217
207.64        73.66074
208.10        72.40331
208.55        73.80507
209.01        74.02736
209.47        71.03207
209.93        62.91324
210.39        42.10087
210.85       -21.14852
211.31       -102.2214
211.77       -14.36897
212.23          45.847
212.69        67.47791
213.14        74.28831
213.60        74.02733
214.06        69.36802
214.52        58.99109
214.98        48.75021
215.44        48.08549
215.90        51.65779
216.36        56.22177
216.81        61.07982
217.27        66.11749
217.73        72.22178
218.19        77.42099
218.65         77.6945
219.11        72.00221
219.57        60.92352
220.02        47.57636
220.48        41.62521
220.94        45.97447
221.40        56.22816
221.86        67.40686
222.32        74.71493
222.77        77.71572
223.23        78.33752
223.69        77.09299
224.15        74.18441
224.61        69.85605
225.06        63.67073
225.52        57.33554
225.98         54.3026
226.44        55.08265
226.90        57.87353
227.36        60.41271
227.81        60.73822
228.27         58.9418
228.73        55.59476
229.19        51.54008
229.65        48.68663
230.10        47.76965
230.56        48.39851
231.02         49.5898
231.48        50.13216
231.93        49.69112
232.39        48.79301
232.85        47.92948
233.31        47.79106
233.77        48.45133
234.22        49.68091
234.68        50.79083
235.14          50.992
235.60        50.15454
236.05        48.35284
236.51        46.49775
236.97        46.51118
237.43        49.02712
237.88        53.58426
238.34        58.17721
238.80        60.90076
239.26        61.34796
239.71        59.37914
240.17          55.263
240.63        53.61272
241.08        57.94798
241.54        64.49954
242.00        69.49428
242.46        71.68489
242.91        71.69447
243.37        69.37589
243.83        63.47544
244.28        55.65546
244.74        55.03988
245.20        62.07076
245.66        68.26048
246.11        69.94407
246.57        67.88904
247.03        62.32149
247.48        54.15133
247.94         52.0231
248.40         62.0979
248.85        78.14138
249.31        91.50711
249.77         95.8937
250.22         93.4884
250.68         88.2018
251.14        83.53618
251.59        82.46025
252.05        85.29503
252.51        91.48359
252.96        99.66414
253.42        103.6074
253.88        99.36902
254.33        91.21272
254.79        83.98158
255.25        78.99783
255.70        75.58483
256.16        73.44574
256.62        72.39794
257.07        72.49478
257.53        73.61476
257.99        74.86151
258.44        75.45933
258.90        75.21301
259.35        73.90373
259.81        72.34554
260.27        70.58718
260.72        68.77943
261.18        67.39267
261.63        66.02368
262.09        64.97166
262.55        64.11166
263.00         63.2786
263.46         62.6067
263.91        61.82923
264.37        60.99325
264.83        60.02122
265.28        58.92117
265.74        57.81843
266.19        56.60853
266.65        55.38036
267.11        54.10285
267.56        52.80901
268.02        51.66994
268.47        50.67673
268.93        49.81246
269.38        49.02951
269.84        48.28079
270.30        47.52665
270.75        46.77002
271.21        45.97226
271.66        45.02106
272.12        43.94127
272.57          42.743
273.03        41.56252
273.48        40.52704
273.94        39.72796
274.39        39.07183
274.85          38.556
275.31        38.07851
275.76        37.57788
276.22        37.11151
276.67        36.59948
277.13        36.04056
277.58        35.38693
278.04        34.69957
278.49        33.98418
278.95        33.37542
279.40        32.84336
279.86        32.42679
280.31        32.03875
280.77        31.67932
281.22        31.29526
281.68        30.93695
282.13        30.60476
282.59        30.35788
283.04         30.1714
283.50        30.04304
283.95        29.90677
284.41         29.7106
284.86        29.43712
285.32        29.14551
285.77        28.87481
286.22        28.72138
286.68        28.71442
287.13         28.7795
287.59         28.9131
288.04        29.03054
288.50        29.13484
288.95        29.21279
289.41        29.26982
289.86        29.26204
290.32        29.21896
290.77        29.15073
291.22        29.11773
291.68        29.20209
292.13        29.42324
292.59        29.79427
293.04        30.29823
293.50        30.92677
293.95         31.6647
294.40        32.52943
294.86         33.5273
295.31        34.65699
295.77        35.91948
296.22        37.28249
296.68        38.73058
297.13        40.21138
297.58        41.69846
298.04        43.18909
298.49        44.66498
298.95        46.15151
299.40        47.66039
299.85        49.20498
300.31        50.82692
300.76        52.52822
301.21        54.30215
301.67        56.14718
302.12        57.98454
302.58        59.78393
303.03        61.50975
303.48         63.2062
303.94         64.9482
304.39        66.76452
304.84        68.68741
305.30        70.69505
305.75        72.71233
306.20        74.71899
306.66         76.7093
307.11        78.63568
307.57        80.49052
308.02        82.14103
308.47        83.59211
308.93        84.88281
309.38        86.04966
309.83        87.25292
310.29        88.55115
310.74        89.88657
311.19        91.21381
311.65        92.42484
312.10        93.45471
312.55        94.34388
313.00        95.15041
313.46        95.97298
313.91        96.82253
314.36        97.68285
314.82        98.49302
315.27        99.15323
315.72        99.64295
316.18        100.0095
316.63         100.317
317.08         100.703
317.53        101.2001
317.99        101.7636
318.44        102.3256
318.89        102.7497
319.35        103.0034
319.80        103.1424
320.25        103.2376
320.70        103.4095
321.16        103.6805
321.61        104.0278
322.06        104.4018
322.51        104.7332
322.97        104.9805
323.42        105.2021
323.87        105.3896
324.32        105.5494
324.78        105.6753
325.23        105.8002
325.68        105.9292
326.13        106.1028
326.59        106.3048
327.04        106.5757
327.49        106.8759
327.94        107.1724
328.39        107.4538
328.85        107.6944
329.30        107.9641
329.75        108.2254
330.20        108.4775
330.66        108.6899
331.11        108.9361
331.56         109.218
332.01        109.5498
332.46        109.9301
332.92        110.2994
333.37        110.7045
333.82        111.0868
334.27        111.4475
334.72        111.8075
335.17        112.2052
335.63        112.6225
336.08        113.1022
336.53        113.5778
336.98        113.9861
337.43        114.3128
337.88        114.5728
338.34        114.8039
338.79        115.1264
339.24        115.5411
339.69        116.0144
340.14        116.4803
340.59        116.8286
341.05         117.043
341.50        117.1888
341.95        117.3071
342.40        117.4771
342.85        117.7279
343.30        118.0159
343.75        118.3797
344.20        118.8809
344.66         119.506
345.11        120.2269
345.56        120.8742
346.01        121.1754
346.46        121.0938
346.91         120.722
347.36        120.3011
347.81        120.2059
348.26        120.5182
348.72        121.1263
349.17        121.8184
349.62        122.2731
350.07        122.3912
350.52         122.263
350.97        122.0182
351.42         121.863
351.87        121.8537
352.32        121.9177
352.77        121.9476
353.22          121.79
353.67        121.4113
354.13        120.8789
354.58        120.2786
355.03        119.8062
355.48         119.496
355.93        119.2809
356.38         119.028
356.83        118.5289
357.28        117.7525
357.73        116.8007
358.18        115.7936
358.63        114.9081
359.08         114.204
359.53        113.6233
359.98        113.1522
360.43        112.7708
360.88        112.4401
361.33        112.1477
361.78        111.8131
362.23        111.3029
362.68        110.5884
363.13        109.7143
363.58        108.7471
364.03        107.7654
364.48        106.8795
364.93        106.0315
365.38        105.2415
365.83        104.5034
366.28        103.8094
366.73        103.1606
367.18        102.5478
367.63        101.9513
368.08        101.3573
368.53        100.7616
368.98        100.1361
369.43         99.4424
369.88        98.67895
370.33        97.86106
370.78        97.03775
371.23        96.29037
371.68         95.6399
372.13        95.06387
372.58        94.53156
373.03        93.98869
373.48        93.41834
373.93         92.8427
374.38        92.26155
374.83        91.66998
375.28         91.0728
375.72        90.45072
376.17        89.86423
376.62        89.34389
377.07        88.88972
377.52        88.47235
377.97        88.06225
378.42        87.61465
378.87        87.11687
379.32        86.59562
379.77        86.03532
380.22        85.40433
380.67        84.71322
381.11        83.98479
381.56        83.29999
382.01        82.80378
382.46        82.53171
382.91        82.44016
383.36        82.43058
383.81        82.34527
384.26        82.13012
384.71        81.81293
385.15        81.42558
385.60        81.08377
386.05        80.79325
386.50        80.52578
386.95        80.23674
387.40        79.86642
387.85        79.42249
388.29        78.90356
388.74        78.46225
389.19        78.12337
389.64        77.88101
390.09        77.68085
390.54         77.4965
390.98        77.27178
391.43        77.04275
391.88        76.82713
392.33        76.54877
392.78        76.19941
393.23        75.82281
393.67        75.16943
394.12        74.45419
394.57        74.73581
395.02        74.77026
395.47        74.70374
395.91        74.22607
396.36        74.00025
396.81        74.05289
397.26        74.04022
397.71        73.87487
398.15        73.61062
398.60        73.33389
399.05        72.76024
399.50           72.13
399.95         72.2435
400.39        72.90324
400.84        72.96378
401.29        72.37674
401.74        71.78816
402.18        71.39541
402.63        71.33453
403.08        71.53264
403.53        71.46688
403.97        71.10947
404.42        70.87871
404.87        70.77103
405.32        70.63073
405.76        70.45846
406.21        70.17635
406.66        69.85187
407.11        69.92345
407.55        70.26605
408.00        70.04827
408.45        69.35371
408.90        68.93539
409.34        68.88876
409.79        68.99556
410.24        69.14297
410.68        69.16978
411.13        69.03529
411.58        68.86605
412.03         68.7155
412.47        68.62589
412.92        68.59737
413.37         68.6312
413.81         68.6832
414.26        68.74091
414.71        68.77229
415.15         68.8012
415.60        68.79317
416.05        68.74734
416.49        68.67142
416.94        68.55838
417.39        68.42713
417.83        68.30612
418.28         68.1962
418.73        68.07681
419.17         67.9649
419.62        67.88873
420.07        67.86287
420.51        67.88855
420.96        67.91148
421.41        67.85715
421.85        67.69865
422.30        67.33334
422.74        66.91472
423.19        67.14661
423.64        67.88086
424.08        68.17477
424.53        67.88461
424.98        67.80902
425.42        67.98836
425.87        67.70977
426.31        67.15037
426.76        67.31339
427.21        68.02171
427.65        67.99187
428.10         67.3147
428.54        67.08199
428.99        67.33768
429.44        67.71029
429.88        67.96845
430.33        67.52279
430.77         66.6357
431.22        66.48152
431.66        67.24191
432.11        67.50315
432.56         67.3206
433.00        67.44111
433.45        67.61125
433.89        67.56429
434.34        67.48357
434.78        66.33875
435.23        65.92406
435.67        67.27499
436.12        67.97367
436.57        68.07848
437.01         67.0708
437.46        66.62153
437.90         67.2196
438.35        67.95113
438.79        67.78862
439.24        67.83875
439.68        67.81361
440.13        67.71841
440.57        67.62116
441.02        67.76345
441.46        68.06841
441.91        68.11068
442.35        67.88067
442.80         68.0742
443.24        68.54154
443.69        68.49562
444.13        67.99015
444.58         67.7593
445.02        67.80291
445.47        67.79508
445.91        67.72157
446.36        67.69302
446.80        67.68008
447.24        67.83314
447.69        67.83944
448.13        67.94946
448.58        68.05574
449.02        68.09893
449.47        68.09674
449.91        68.10392
450.36        68.14526
450.80        68.15582
451.25        68.14865
451.69        68.14838
452.13        68.14581
452.58         68.0839
453.02        67.96709
453.47        67.84294
453.91        67.71095
454.36        67.63306
454.80        67.54993
455.24        67.27657
455.69        66.92863
456.13        66.68445
456.58        66.61329
457.02        66.81091
457.46         67.0424
457.91        66.86435
458.35        66.54269
458.79        66.32378
459.24        66.31447
459.68        66.23581
460.13        66.10612
460.57        65.88614
461.01         65.9045
461.46        65.65824
461.90        65.51346
462.34        65.63962
462.79        65.70985
463.23        65.70702
463.68         65.5384
464.12        65.34232
464.56         65.2141
465.01        65.41017
465.45         65.6693
465.89        65.62662
466.34        65.33574
466.78        64.70155
467.22        63.88081
467.67        64.53851
468.11        64.49901
468.55         64.7282
468.99        64.54763
469.44        64.54974
469.88        64.71025
470.32        64.68141
470.77        64.48569
471.21        64.31792
471.65         64.1989
472.10        64.08137
472.54         63.9645
472.98        63.88871
473.42        63.85924
473.87        63.87768
474.31         63.8903
474.75        63.93985
475.20        63.97449
475.64         63.8864
476.08        63.70287
476.52        63.62636
476.97        63.64453
477.41        63.81804
477.85         63.6603
478.29        64.01317
478.74        63.42136
479.18        63.62503
479.62        63.60993
480.06        63.67017
480.50        63.64651
480.95        63.58472
481.39        63.41816
481.83        63.58858
482.27        63.70144
482.72         63.0466
483.16        63.50833
483.60        63.41319
484.04        63.30084
484.48         63.3362
484.93        63.81432
485.37        63.46217
485.81        64.07809
486.25        64.81973
486.69        65.35915
487.14        64.00009
487.58        64.02753
488.02        64.10157
488.46        63.78605
488.90        64.28682
489.34        63.59133
489.79        63.18326
490.23        63.37903
490.67        63.25959
491.11        63.08153
491.55        63.01184
491.99        63.07395
492.43        63.13333
492.88        63.17642
493.32        63.29143
493.76         63.4264
494.20         63.5387
494.64         63.6269
495.08        63.58224
495.52        63.48592
495.96        63.70223
496.41        64.12705
496.85        64.17078
497.29         63.8362
497.73        63.63304
498.17         63.5357
498.61        63.62309
499.05        63.79122
499.49        63.78192
499.93        63.62838
500.37        63.52777
500.82        63.46746
501.26        63.52925
501.70        63.80242
502.14        63.14278
502.58        63.68035
503.02        63.70783
503.46        63.58511
503.90        63.51595
504.34         63.4543
504.78        63.45065
505.22        63.47591
505.66        63.42128
506.10        63.30549
506.54        63.32148
506.98        63.48909
507.42        63.44396
507.86        63.65295
508.30        63.67374
508.74        63.64337
509.18        63.55801
509.62        63.45303
510.06        63.37909
510.50        63.34602
510.94        63.34251
511.38        63.34868
511.82        63.33157
512.26         63.2831
512.70        63.22065
513.14        63.14971
513.58        63.07708
514.02          63.011
514.46        62.94728
514.90        62.89915
515.34        62.90717
515.78        62.95046
516.22        63.03082
516.66        63.11617
517.10        63.16388
517.54        63.16135
517.98        63.12205
518.42        63.05467
518.86        62.97467
519.30        62.89474
519.74        62.81477
520.18        62.75312
520.62        62.73705
521.06         62.7704
521.50        62.84602
521.93        62.94294
522.37        63.01122
522.81        63.04012
523.25        63.03451
523.69        63.00648
524.13         62.9785
524.57        62.95673
525.01        62.93485
525.45        62.90191
525.89        62.84066
526.32        62.74711
526.76        62.64735
527.20        62.55807
527.64        62.51076
528.08        62.51138
528.52         62.5442
528.96        62.59873
529.40        62.65839
529.83        62.70697
530.27        62.75909
530.71        62.78757
531.15        62.75996
531.59        62.67516
532.03        62.54283
532.46        62.40173
532.90        62.33626
533.34        62.35749
533.78        62.44391
534.22        62.54576
534.66        62.58609
535.09        62.53875
535.53        62.44242
535.97         62.3291
536.41         62.2631
536.85         62.2621
537.28        62.31244
537.72        62.37507
538.16        62.37982
538.60        62.31707
539.04        62.22295
539.47        62.13515
539.91        62.14489
540.35        62.24824
540.79        62.42648
541.22        62.60638
541.66        62.67891
542.10        62.61997
542.54        62.46979
542.97        62.29094
543.41        62.21793
543.85        62.26287
544.29        62.38101
544.72        62.51291
545.16        62.58953
545.60        62.57609
546.04        62.53334
546.47        62.46655
546.91        62.33034
547.35        62.17624
547.79        62.12452
548.22        62.15152
548.66        62.22305
549.10        62.27925
549.53        62.23517
549.97        62.13268
550.41        62.13933
550.84        62.26563
551.28        62.41061
551.72        62.52266
552.15        62.56226
552.59        62.52903
553.03        62.41917
553.46        62.28078
553.90        62.22731
554.34          62.263
554.77        62.39162
555.21        62.54202
555.65        62.53205
556.08        62.39594
556.52        62.23046
556.96        62.10254
557.39        62.14379
557.83        62.32104
558.27        62.33672
558.70        62.19945
559.14        62.16412
559.57        62.21664
560.01        62.27316
560.45        62.29583
560.88        62.19383
561.32        62.06806
561.75        62.10565
562.19        62.29977
562.63        62.43512
563.06        62.45623
563.50        62.37184
563.93        62.21556
564.37        62.15647
564.80        62.19594
565.24        62.28961
565.68        62.38858
566.11        62.45016
566.55        62.48573
566.98        62.45447
567.42        62.40451
567.85        62.45999
568.29        62.63254
568.72        62.59706
569.16        62.41696
569.60        62.50214
570.03        62.87978
570.47        62.73747
570.90        62.84452
571.34        63.31359
571.77        63.33363
572.21        63.06946
572.64        63.57542
573.08        63.03622
573.51        62.90713
573.95        63.04106
574.38        63.64328
574.82         63.3499
575.25        63.17939
575.69        63.33168
576.12        62.79996
576.56        63.22291
576.99        63.31027
577.42        63.64937
577.86        63.55399
578.29        63.55447
578.73        63.60119
579.16        63.50917
579.60        63.26561
580.03        63.05529
580.47        62.86747
580.90        63.54189
581.33        63.41073
581.77        63.86417
582.20        63.76085
582.64        63.41164
583.07        63.75231
583.51        63.50438
583.94         63.2257
584.37        63.04648
584.81        63.11533
585.24        63.20486
585.68        63.25938
586.11        63.35582
586.54        62.99242
586.98        62.83447
587.41        63.11928
587.85        62.91826
588.28         62.7436
588.71        62.86746
589.15        63.04291
589.58         62.6527
590.01        62.89846
590.45        63.10986
590.88        62.06426
591.31        61.99902
591.75        62.39594
592.18        62.30251
592.61        61.90101
593.05         62.3053
593.48        63.36468
593.91        62.75221
594.35        62.72718
594.78        62.85333
595.21        62.64008
595.65        62.83925
596.08        62.61055
596.51        62.48316
596.94        62.33802
597.38        62.36835
597.81        62.71134
598.24        62.27228
598.68        62.73688
599.11        62.85378
599.54        62.82042
599.97        62.87194
600.41        63.14777
600.84        63.16697
601.27         62.9562
601.70        62.91882
602.14        62.44677
602.57        62.63706
603.00        62.63317
603.43        62.75774
603.87        63.09051
604.30        62.96089
604.73        62.79744
605.16        62.95449
605.60        62.87228
606.03        63.03912
606.46        63.23614
606.89         62.8197
607.32        63.06936
607.76        63.06794
608.19        63.02748
608.62        63.09285
609.05        62.99119
609.48        63.07314
609.92         63.2962
610.35        62.77755
610.78        63.09575
611.21        62.86231
611.64        63.06108
612.07        62.95269
612.50        62.74197
612.94         62.6729
613.37        62.77866
613.80        62.72429
614.23         62.9682
614.66        62.79869
615.09          62.983
615.52         62.9519
615.96        62.98223
616.39        62.49474
616.82        62.52685
617.25         62.7505
617.68        62.52702
618.11        62.47883
618.54        62.41544
618.97        62.57207
619.40        62.80888
619.84        63.15175
620.27        62.88102
620.70           62.66
621.13        62.34989
621.56        62.44976
621.99        62.39089
622.42        62.31852
622.85        62.65757
623.28        62.56636
623.71        62.52017
624.14        62.45998
624.57        62.37904
625.00        62.74257
625.43        62.23883
625.86        62.30592
626.29        62.60596
626.72        62.21371
627.15        62.42006
627.58        62.38828
628.01        62.59039
628.44        62.24023
628.87        62.22892
629.30        62.61935
629.73        62.02534
630.16        61.76852
630.59        61.87983
631.02        62.01951
631.45        62.23211
631.88        62.31396
632.31        62.24595
632.74        62.10474
633.17        61.97412
633.60          61.872
634.03        61.82685
634.46        61.85318
634.89         61.9164
635.32        61.87918
635.75        61.75661
636.18        61.75848
636.61        61.86911
637.04        61.83356
637.47        61.71305
637.89         61.7374
638.32        61.88086
638.75        61.93802
639.18        61.89506
639.61        61.85966
640.04        61.83289
640.47        61.78661
640.90         61.7279
641.33        61.64099
641.76        61.52748
642.18        61.54424
642.61        61.45132
643.04        61.43576
643.47        61.42893
643.90        61.43705
644.33        61.45494
644.76        61.48446
645.18        61.51212
645.61        61.50282
646.04        61.45345
646.47        61.36905
646.90        61.28193
647.33        61.24467
647.75        61.27187
648.18        61.35994
648.61        61.46703
649.04        61.52114
649.47        61.52212
649.89        61.47953
650.32        61.43394
650.75        61.55037
651.18        61.78921
651.61        61.82868
652.03        61.66113
652.46         61.6973
652.89        61.98352
653.32        61.90447
653.74        61.59348
654.17        62.17493
654.60        61.56469
655.03        61.41376
655.46        61.57663
655.88        62.41688
656.31        64.38171
656.74        67.16042
657.16        65.65544
657.59         64.2655
658.02          62.883
658.45          62.696
658.87        62.63277
659.30        62.88642
659.73        62.05866
660.15        61.66015
660.58        61.85977
661.01        62.11456
661.44        62.37699
661.86         62.3372
662.29        62.02321
662.72        61.77787
663.14         61.7083
663.57        61.82259
664.00        62.05213
664.42        62.12816
664.85        62.02917
665.27         61.9323
665.70        61.86565
666.13        61.79686
666.55        61.74195
666.98        61.69778
667.41        61.68628
667.83         61.7426
668.26        61.86099
668.69        62.04136
669.11        62.22361
669.54        62.32481
669.96        62.33402
670.39        62.19676
670.82        62.01201
671.24        62.08402
671.67        62.36429
672.09        62.47667
672.52        62.40605
672.94        62.31985
673.37        62.25682
673.80         62.2158
674.22        62.21056
674.65        62.16063
675.07         62.0846
675.50         62.0585
675.92         62.0974
676.35        62.11493
676.77        62.09967
677.20        62.27689
677.62        62.27203
678.05        62.35832
678.47        62.41714
678.90        62.46885
679.32        62.50177
679.75        62.51989
680.17        62.52671
680.60        62.52689
681.02        62.51635
681.45           62.48
681.87        62.43257
682.30         62.3418
682.72        62.25784
683.15        62.32666
683.57         62.5317
684.00        62.64085
684.42         62.6465
684.85        62.72384
685.27         62.8636
685.70        62.93476
686.12        62.92609
686.54        62.96265
686.97        63.04189
687.39        62.90277
687.82        62.97441
688.24        62.79807
688.66         62.8098
689.09        62.73914
689.51        62.70086
689.94        62.68213
690.36        62.68918
690.78        62.71857
691.21        62.75767
691.63        62.78318
692.06        62.78952
692.48        62.77709
692.90        62.75216
693.33        62.71456
693.75        62.67461
694.17         62.6442
694.60        62.61116
695.02        62.59138
695.44        62.58224
695.87        62.53609
696.29         62.5052
696.71        62.61682
697.14        63.00183
697.56        63.05784
697.98        62.84234
698.41         62.8977
698.83        62.93051
699.25        62.96352
699.68        62.90241
700.10        62.90356
700.52        62.96284
700.94        63.04734
701.37        63.11741
701.79        63.13412
702.21        63.07033
702.64        62.95676
703.06         62.8269
703.48        62.74883
703.90        62.74522
704.33        62.79509
704.75         62.8704
705.17        62.90423
705.59        62.88412
706.01        62.80843
706.44        62.73002
706.86        62.85601
707.28        63.02232
707.70        63.29899
708.12        63.56318
708.55        63.74639
708.97        63.79301
709.39        63.64334
709.81        63.37102
710.23        63.20228
710.66        63.18647
711.08         63.2479
711.50        63.32436
711.92        63.36476
712.34        63.35098
712.76        63.30343
713.19        63.25663
713.61        63.30668
714.03        63.44732
714.45        63.64045
714.87        63.83282
715.29        63.94765
715.71        63.96539
716.13        63.91357
716.56        63.80217
716.98        63.71851
717.40         63.6689
717.82          63.642
718.24        63.64946
718.66        63.70886
719.08        63.81459
719.50        63.95624
719.92        64.10265
720.34        64.20087
720.76        64.23345
721.19        64.20371
721.61        64.13277
722.03         64.0304
722.45        63.91039
722.87        63.77763
723.29        63.66301
723.71        63.59573
724.13        63.58582
724.55        63.66494
724.97        63.81955
725.39        63.84602
725.81        64.00433
726.23        64.07285
726.65        64.14724
727.07         64.2468
727.49         64.3742
727.91        64.51176
728.33         64.6223
728.75        64.65617
729.17         64.6041
729.59         64.4874
730.01        64.34969
730.43        64.26101
730.85        64.23984
731.27        64.26377
731.69        64.31523
732.10        64.36449
732.52         64.3848
732.94        64.43552
733.36        64.51015
733.78        64.48035
734.20        64.32415
734.62        64.55301
735.04         64.1782
735.46        64.37519
735.88        64.74103
736.30        64.72626
736.72        64.36685
737.13        64.27879
737.55        64.44899
737.97        64.47948
738.39         64.3579
738.81         64.2078
739.23        64.09249
739.65        64.21644
740.06        64.47478
740.48        64.56857
740.90        64.44474
741.32        64.33809
741.74        64.22666
742.16        64.24522
742.57        64.39575
742.99        64.64992
743.41        64.90875
743.83         65.0036
744.25        64.90149
744.67         64.6422
745.08        64.36623
745.50        64.27029
745.92        64.41727
746.34        64.74555
746.75        65.09804
747.17         65.2291
747.59         65.0826
748.01        64.70313
748.42        64.26799
748.84        64.10642
749.26        64.23911
749.68        64.49331
750.09        64.73823
750.51        64.71487
750.93        64.49124
751.35        64.56067
751.76        64.87685
752.18        64.92744
752.60         64.6988
753.01        64.49436
753.43        64.36829
753.85         64.3074
754.27        64.33527
754.68        64.46557
755.10        64.63824
755.52        64.74535
755.93        64.76986
756.35        64.74894
756.77        64.72629
757.18        64.80302
757.60        64.99202
758.02        65.14865
758.43        65.27302
758.85        65.48222
759.26        65.64626
759.68        65.62077
760.10        65.67773
760.51        64.54184
760.93        64.52016
761.34        64.59724
761.76        64.90314
762.18        65.31945
762.59        65.58638
763.01        65.45336
763.42         65.0703
763.84        64.94975
764.26        65.18867
764.67        65.52877
765.09        65.83838
765.50        65.83627
765.92        65.56341
766.33        65.29893
766.75        65.10425
767.16        64.99937
767.58        64.97641
768.00        65.20417
768.41        65.59467
768.83        65.65568
769.24        65.42898
769.66        65.48091
770.07        65.74964
770.49        65.74567
770.90        65.50121
771.32        65.42671
771.73        65.54332
772.15        65.56199
772.56        65.48564
772.97        65.49599
773.39        65.55553
773.80        65.49632
774.22        65.33919
774.63        65.38845
775.05        65.57998
775.46        65.64755
775.88         65.5405
776.29         65.4406
776.70        65.38422
777.12        65.36903
777.53        65.42742
777.95         65.5461
778.36        65.68098
778.77        65.74101
779.19        65.70609
779.60        65.60962
780.02         65.5102
780.43        65.51213
780.84        65.61201
781.26        65.81913
781.67        66.12181
782.09         66.2088
782.50          65.992
782.91        66.49016
783.33         66.0008
783.74        66.02232
784.15        66.05144
784.57        66.03371
784.98         65.9839
785.39        66.11622
785.81        66.36581
786.22        66.35278
786.63        66.12365
787.04        66.08233
787.46        66.26126
787.87        66.42638
788.28        66.53237
788.70        66.63508
789.11         66.7086
789.52        66.64275
789.93        66.51352
790.35        66.67157
790.76        67.04826
791.17        67.04851
791.58        66.69674
792.00        66.54441
792.41        66.63918
792.82        66.61009
793.23        66.51723
793.65        66.65919
794.06        67.02444
794.47        67.43024
794.88        67.74644
795.29        67.71524
795.71        67.73421
796.12        67.32719
796.53         66.7819
796.94        66.77084
797.35        67.24839
797.76        67.35184
798.18        67.06634
798.59        67.04969
799.00        67.30477
799.41        67.42337
799.82        67.36879
800.23        67.30278
800.64        67.23063
801.06        67.08614
801.47        66.94215
801.88        66.85059
802.29        66.83386
802.70        66.89503
803.11        67.00654
803.52        67.10641
803.93        67.17158
804.34        67.21049
804.75         67.2552
805.17        67.32559
805.58        67.44707
805.99        67.65238
806.40        67.87023
806.81        67.81705
807.22         67.5504
807.63        67.47382
808.04        67.60689
808.45        67.64635
808.86        67.58154
809.27        67.60941
809.68        67.72482
810.09        67.80664
810.50        67.84122
810.91        67.86796
811.32        67.86949
811.73        67.82964
812.14        67.75401
812.55        67.60181
812.96        67.43478
813.37        67.46526
813.78        67.66994
814.19        67.78963
814.60        67.79718
815.01        67.85183
815.42        67.94511
815.83        67.95485
816.24        67.90447
816.65        67.91014
817.05        67.99124
817.46        68.08135
817.87        68.15173
818.28        68.10995
818.69        67.94563
819.10        67.69812
819.51        67.45613
819.92        67.37309
820.33        67.49324
820.74        67.76174
821.14        68.08921
821.55        68.37623
821.96        68.56392
822.37        68.67757
822.78        68.72536
823.19        68.72318
823.60        68.68752
824.00        68.63663
824.41        68.54196
824.82        68.44747
825.23        68.36797
825.64         68.3037
826.04        68.31107
826.45        68.43874
826.86        68.68971
827.27        69.03767
827.68        69.37221
828.08        69.54062
828.49        69.43885
828.90        69.15155
829.31        68.79158
829.72        68.55743
830.12        68.53441
830.53        68.62906
830.94        68.79805
831.35        68.92999
831.75        69.00275
832.16         69.0107
832.57        68.98869
832.97        68.95692
833.38        68.92529
833.79        68.89343
834.20        68.86673
834.60        68.85679
835.01        68.87814
835.42        68.91753
835.82        69.01413
836.23        69.15512
836.64        69.35338
837.04        69.62277
837.45        69.84682
837.86        69.93414
838.26        69.87682
838.67        69.68861
839.08         69.4817
839.48        69.42699
839.89        69.56586
840.29        69.84352
840.70        70.16386
841.11        70.37585
841.51        70.44871
841.92        70.38461
842.33        70.24586
842.73        70.13216
843.14        70.02976
843.54        69.94147
843.95        69.83443
844.35        69.67521
844.76        69.45565
845.17        69.20657
845.57        68.98622
845.98        68.84415
846.38        68.81837
846.79        68.87086
847.19        68.97173
847.60        69.02457
848.00        69.02024
848.41        68.94381
848.81        68.85924
849.22        68.80262
849.62          68.822
850.03        68.88421
850.43        68.95744
850.84        68.91277
851.24        68.77626
851.65        68.53017
852.05        68.34553
852.46        68.42337
852.86        68.78575
853.27        69.34906
853.67        69.85479
854.07        70.12952
854.48        70.10266
854.88        69.87032
855.29        69.45601
855.69        69.11236
856.10        68.84797
856.50        68.68233
856.90        68.56355
857.31        68.42906
857.71        68.31037
858.12        68.20286
858.52          68.151
858.92        68.08841
859.33         67.9943
859.73         67.8971
860.13         67.8279
860.54        67.87291
860.94        68.06979
861.34        68.34842
861.75         68.5799
862.15        68.63187
862.55        68.44901
862.96        68.10132
863.36        67.67106
863.76        67.28889
864.17        67.00848
864.57        66.81454
864.97        66.73277
865.38        66.77911
865.78        66.98158
866.18         67.3141
866.58         67.6631
866.99        67.83013
867.39        67.78716
867.79        67.55403
868.19        67.24542
868.60        67.01318
869.00        66.88368
869.40        66.83096
869.80        66.82269
870.21        66.80357
870.61        66.82278
871.01        66.86486
871.41        66.89188
871.81        66.83492
872.22        66.66589
872.62        66.41153
873.02        66.18586
873.42         66.2006
873.82        66.48868
874.22        66.96638
874.63        67.45832
875.03        67.68963
875.43        67.62122
875.83         67.3476
876.23        66.99767
876.63        66.79185
877.03        66.79991
877.44        66.93041
877.84        67.15369
878.24        67.39553
878.64        67.59243
879.04        67.75271
879.44        67.81086
879.84        67.66087
880.24        67.30989
880.64        66.81776
881.04        66.27399
881.44        65.84384
881.84        65.59804
882.24        65.48719
882.65         65.5343
883.05        65.85596
883.45        66.37967
883.85        67.06182
884.25        67.67726
884.65        67.89909
885.05        67.67546
885.45        67.08662
885.85        66.37858
886.25        65.99513
886.65        66.06793
887.05        66.48231
887.45        67.00465
887.85        67.26682
888.25        67.17476
888.65         66.8343
889.04        66.42542
889.44        66.28923
889.84        66.47634
890.24         66.8535
890.64        67.21298
891.04        67.24216
891.44        66.87895
891.84         66.2646
892.24        65.56087
892.64        65.00725
893.04        64.69651
893.44        64.56705
893.83        64.63226
894.23        64.84342
894.63         65.1822
895.03         65.6391
895.43        66.12367
895.83        66.47845
896.23        66.65735
896.63        66.69113
897.02        66.62077
897.42        66.55985
897.82         66.5369
898.22        66.53181
898.62        66.56963
899.01        66.69813
899.41        66.89989
899.81        67.17366
900.21        67.45836
900.61        67.64764
901.00        67.69677
901.40        67.63889
901.80        67.50918
902.20        67.38356
902.59         67.3009
902.99        67.24102
903.39        67.18509
903.79        67.09093
904.18        66.95606
904.58        66.80497
904.98        66.70264
905.38        66.74276
905.77        66.92017
906.17        67.20536
906.57        67.48122
906.96        67.57437
907.36        67.41589
907.76        67.06866
908.15        66.65473
908.55        66.31355
908.95        66.13805
909.34        66.08652
909.74        66.14541
910.14        66.22198
910.53         66.2979
910.93        66.38627
911.33        66.52541
911.72        66.77412
912.12        67.09088
912.52        67.41873
912.91        67.67387
913.31        67.77784
913.70        67.72025
914.10        67.53723
914.49        67.26961
914.89        66.94378
915.29        66.62521
915.68        66.31798
916.08         66.1214
916.47        66.17397
916.87        66.48936
917.26        66.98637
917.66        67.51672
918.05        67.80688
918.45        67.78141
918.84        67.54935
919.24         67.1748
919.64         66.8567
920.03        66.69659
920.42        66.64886
920.82        66.73328
921.21        66.96999
921.61        67.32831
922.00        67.79455
922.40        68.32358
922.79        68.88844
923.19         69.3898
923.58        69.83244
923.98        70.04583
924.37        69.85199
924.77        69.23911
925.16        68.27322
925.55        67.22362
925.95        66.55992
926.34        66.42542
926.74        66.69502
927.13         67.1922
927.52        67.50979
927.92        67.54625
928.31        67.40469
928.70        67.19884
929.10        67.08999
929.49        67.13104
929.89          67.237
930.28        67.40463
930.67        67.54018
931.07        67.59837
931.46        67.61664
931.85        67.62878
932.24        67.71602
932.64        67.87781
933.03        68.07985
933.42        68.21179
933.82        68.09667
934.21        67.71928
934.60        67.16698
934.99        66.59568
935.39        66.23983
935.78        66.20866
936.17        66.43315
936.56        66.85836
936.96        67.35368
937.35        67.88272
937.74         68.4231
938.13        68.89568
938.53        69.20837
938.92        69.35205
939.31        69.30975
939.70        69.16068
940.09         69.0636
940.49         69.0323
940.88        69.06734
941.27        69.05881
941.66        68.82786
942.05         68.3624
942.44        67.76507
942.84        67.18003
943.23        66.77218
943.62        66.62071
944.01        66.64315
944.40         66.8204
944.79        67.10923
945.18        67.44319
945.57        67.82031
945.97        68.04018
946.36        67.88438
946.75        67.30035
947.14        66.34982
947.53        65.31678
947.92        64.71689
948.31        64.69977
948.70        65.13696
949.09        65.73501
949.48        66.01365
949.87        65.85474
950.26        65.40916
950.65        64.90145
951.04        64.68684
951.43          64.858
951.82        65.28487
952.21        65.79033
952.60        66.08704
952.99        66.07207
953.38        65.83017
953.77        65.48624
954.16        65.22071
954.55        65.08643
954.94        65.03545
955.33        64.96893
955.72        64.73625
956.11        64.30177
956.50        63.70869
956.89        63.12533
957.28        62.82299
957.66        62.90851
958.05         63.3293
958.44          63.833
958.83         64.0117
959.22        63.77243
959.61        63.18211
960.00        62.62498
960.39        62.71605
960.78        63.55639
961.16        64.99863
961.55        66.39199
961.94        66.70891
962.33         65.7281
962.72        63.83312
963.11        61.81848
963.49        60.84398
963.88        61.17414
964.27        62.48852
964.66        64.22763
965.04        65.37678
965.43        65.51427
965.82        64.99901
966.21        64.26736
966.60        63.99558
966.98        64.35932
967.37        65.06062
967.76         65.8629
968.15         66.3303
968.53        66.31878
968.92        66.05998
969.31        65.62481
969.69        65.06457
970.08        64.46713
970.47        63.81609
970.86        63.48312
971.24        64.12435
971.63         65.6866
972.02        67.84607
972.40        69.99375
972.79        71.16481
973.17        71.27244
973.56        70.51571
973.95        69.25682
974.33         68.1281
974.72        67.40711
975.11        66.95132
975.49        66.67644
975.88        66.46684
976.26         66.2776
976.65         66.1899
977.04        66.22614
977.42        66.35621
977.81        66.50361
978.19        66.58838
978.58        66.65552
978.96        66.73734
979.35        66.81178
979.74        66.92609
980.12        67.00011
980.51        66.67457
980.89        66.03116
981.28        65.09521
981.66        64.28921
982.05        64.40758
982.43        65.57352
982.82        67.45635
983.20        69.45893
983.59        70.51712
983.97        70.45844
984.35        69.49693
984.74        68.03194
985.12        66.80022
985.51        66.11288
985.89         65.8539
986.28        65.85587
986.66        65.94038
987.04        65.99599
987.43        66.05061
987.81        66.23963
988.20        66.67753
988.58        67.36228
988.96        68.17148
989.35        68.66678
989.73        68.29601
990.12        66.88724
990.50        64.47435
990.88        61.63283
991.27         59.8189
991.65        59.65895
992.03        60.87523
992.42        62.43012
992.80        63.26731
993.18         63.0476
993.56        62.01178
993.95        60.82568
994.33        60.78234
994.71        62.34978
995.10        64.64936
995.48        66.75543
995.86        67.70652
996.24        67.46255
996.63        66.26683
997.01        64.64897
997.39        63.73826
997.77        64.03378
998.15        65.19421
998.54        66.47488
998.92        66.86705
999.30        66.15437
999.68        64.67815
1000.06         63.0391
1000.45         62.2767
1000.83        62.78841
1001.21         64.1572
1001.59         65.8202
1001.97        66.98955
1002.35        67.47462
1002.73        67.54759
1003.12        67.38444
1003.50        67.18245
1003.88        67.11077
1004.26        66.95539
1004.64        66.86746
1005.02         67.0879
1005.40        67.61054
1005.78        68.47942
1006.16        69.18958
1006.54        68.80744
1006.92        67.17705
1007.30        64.57721
1007.69        62.03574
1008.07        61.15789
1008.45        62.35614
1008.83        65.05351
1009.21        68.07942
1009.59         69.7591
1009.97        69.63138
1010.35        67.99948
1010.73         65.4397
1011.11        63.55563
1011.49        63.25143
1011.86        64.22346
1012.24        65.59059
1012.62        66.37526
1013.00        66.32967
1013.38        65.77695
1013.76        65.21871
1014.14        65.41088
1014.52        66.56153
1014.90        68.47208
1015.28        70.41071
1015.66        71.02121
1016.04        69.91155
1016.41        67.58253
1016.79        65.03116
1017.17        64.08033
1017.55        65.05477
1017.93        67.47357
1018.31        70.22535
1018.69        71.50626
1019.06        70.89189
1019.44        68.85225
1019.82        66.41824
1020.20        65.78204
1020.58          67.522
1020.95        70.48363
1021.33        73.51387
1021.71        75.23097
1022.09        75.30826
1022.46        74.23368
1022.84         72.0137
1023.22        68.40614
1023.60        63.47433
1023.97        56.88714
1024.35        49.88706
1024.73        45.18366
