SpectraSmart Spectrum 2.9.0.0
--------- Device Information -----------
Spectrum Name :  反射率_0
Saving Time :  2024/04/27 23:48:48
Spectro-Module Model Name : SE2030-DUVN
Spectro-Module Serial Number : OS361AC55029948
Wavelength Start : 200
Wavelength End : 1025
Wavelength Unit : Wavelength(nm)
Spectrum Unit : Reflectance(%)
-----------Spectrum Setting ------------
Integration Time : 20ms
Average : 10
Boxcar : 0
Background removal :  enabled
linearity correction :  enabled
SC :  disabled
Intensity correction :  disabled
DWT denoise :  enabled
savitzky-golay :  disabled
FFT :  disabled
Running average :  disabled
Kalman :  disabled
High pass :  disabled
---------------BEGIN--------------------
Wavelength(nm)             Reflectance(%)
200.29               0
200.75       -3.196287
201.21        34.68477
201.67        65.04863
202.13        77.67355
202.58        78.65153
203.04        75.02496
203.50        68.89498
203.96         63.0346
204.42         59.1127
204.88        56.04861
205.34        54.63614
205.80        56.24163
206.26        60.93784
206.72        69.57187
207.18        81.86485
207.64        86.97278
208.10        78.81477
208.55        67.43383
209.01        57.19174
209.47        46.99878
209.93        32.12991
210.39       -1.919173
210.85       -98.14451
211.31       -196.1982
211.77       -44.03928
212.23        46.53181
212.69        75.98089
213.14        82.03876
213.60        75.82537
214.06        57.38454
214.52        23.79446
214.98      -0.5164821
215.44        10.71498
215.90         34.9359
216.36        54.41924
216.81        63.75442
217.27        65.72912
217.73         64.2629
218.19        60.27182
218.65        54.45554
219.11        47.37206
219.57        38.20182
220.02        28.06038
220.48        22.32683
220.94        22.74182
221.40        27.66253
221.86        34.68613
222.32        41.07763
222.77        46.16146
223.23        50.31005
223.69        52.99239
224.15        53.55724
224.61        52.29239
225.06        49.26874
225.52        46.09669
225.98        45.46636
226.44        47.42871
226.90         50.2683
227.36         52.5133
227.81        53.01079
228.27        51.83939
228.73        49.42653
229.19        46.00085
229.65        42.27444
230.10        38.84096
230.56        36.01256
231.02        33.88618
231.48        32.59183
231.93        31.98803
232.39        32.02496
232.85        32.68205
233.31         33.9126
233.77        35.52372
234.22        37.49166
234.68        39.03625
235.14        39.28357
235.60         38.1088
236.05        35.45712
236.51        32.48499
236.97        31.75827
237.43        34.19685
237.88        39.28549
238.34        44.46664
238.80        46.93993
239.26        45.91642
239.71        40.73443
240.17        31.73027
240.63        26.93426
241.08        33.27637
241.54        44.77431
242.00        53.98946
242.46        58.06971
242.91        57.97337
243.37        53.58026
243.83        42.37603
244.28         27.4598
244.74         26.2187
245.20        38.57824
245.66        49.72354
246.11        53.36419
246.57        50.97159
247.03        44.08724
247.48        32.50283
247.94        23.81261
248.40        26.55648
248.85        35.50005
249.31        46.80494
249.77        57.97421
250.22        67.26494
250.68         74.6748
251.14        79.10143
251.59        79.43901
252.05        75.79915
252.51        67.17828
252.96        53.45047
253.42        42.16357
253.88        39.48847
254.33        43.32021
254.79        47.72358
255.25        47.89641
255.70        44.62216
256.16        40.49429
256.62        37.72867
257.07        38.56961
257.53        42.14419
257.99        46.18334
258.44        48.97612
258.90        49.41915
259.35        47.69514
259.81        45.07105
260.27         42.2249
260.72        39.93842
261.18        38.58503
261.63        37.65823
262.09        37.02095
262.55        36.27812
263.00        35.33735
263.46        34.42794
263.91        33.64138
264.37         33.3209
264.83        33.38755
265.28        33.64002
265.74         33.8606
266.19        33.66669
266.65        33.07272
267.11         32.2003
267.56        31.19931
268.02        30.39129
268.47        29.82081
268.93        29.37706
269.38        29.02343
269.84        28.71895
270.30        28.41276
270.75         28.1349
271.21         27.7294
271.66        26.91087
272.12        25.69724
272.57        24.18079
273.03        22.70926
273.48        21.75887
273.94        21.45092
274.39        21.57225
274.85         21.8667
275.31        21.91813
275.76        21.60856
276.22        21.08551
276.67        20.42801
277.13        19.80526
277.58        19.24385
278.04        18.73053
278.49        18.22142
278.95        17.74055
279.40        17.25895
279.86        16.83073
280.31        16.46992
280.77        16.26591
281.22        16.18984
281.68        16.22835
282.13        16.27175
282.59        16.18476
283.04        15.94453
283.50        15.58735
283.95        15.22034
284.41        15.02719
284.86        15.02584
285.32        15.15616
285.77        15.27715
286.22         15.1979
286.68        14.90595
287.13        14.45854
287.59        14.00181
288.04        13.69808
288.50        13.60876
288.95        13.65574
289.41        13.77179
289.86        13.83025
290.32        13.80818
290.77        13.74819
291.22        13.68718
291.68        13.67594
292.13        13.72413
292.59        13.80971
293.04        13.92767
293.50        14.09172
293.95         14.2922
294.40        14.54191
294.86        14.80726
295.31        15.02635
295.77         15.2028
296.22        15.34939
296.68        15.54389
297.13         15.8896
297.58        16.40614
298.04        17.04283
298.49        17.71931
298.95        18.31473
299.40         18.8039
299.85        19.22258
300.31        19.63708
300.76        20.11533
301.21        20.68782
301.67        21.33227
302.12        22.00146
302.58         22.6489
303.03        23.25931
303.48        23.85623
303.94        24.50597
304.39        25.26873
304.84        26.16386
305.30        27.17235
305.75        28.20466
306.20        29.15408
306.66         30.0171
307.11        30.80907
307.57        31.63814
308.02        32.60741
308.47        33.74509
308.93        34.99986
309.38        36.27324
309.83        37.45332
310.29        38.53245
310.74        39.54269
311.19        40.54544
311.65        41.62232
312.10        42.76522
312.55        43.93652
313.00        45.11742
313.46         46.2953
313.91        47.45786
314.36        48.62336
314.82        49.74933
315.27        50.75573
315.72         51.6343
316.18        52.41607
316.63        53.18474
317.08        54.10518
317.53        55.21193
317.99        56.45079
318.44        57.72336
318.89        58.84614
319.35        59.76527
319.80        60.53366
320.25        61.22453
320.70        61.96814
321.16        62.79113
321.61        63.65547
322.06        64.50982
322.51        65.28229
322.97        65.94161
323.42        66.54495
323.87        67.09527
324.32        67.60452
324.78        68.07883
325.23        68.53775
325.68        69.00648
326.13        69.54535
326.59        70.14474
327.04        70.82182
327.49        71.51777
327.94        72.15747
328.39        72.72044
328.85        73.20808
329.30        73.67832
329.75        74.13629
330.20        74.59023
330.66         75.0025
331.11        75.43442
331.56        75.90292
332.01        76.42194
332.46        76.99679
332.92        77.55702
333.37        78.07487
333.82        78.49717
334.27        78.83772
334.72        79.16794
335.17        79.61047
335.63        80.17748
336.08        80.87829
336.53         81.5954
336.98        82.16666
337.43        82.54966
337.88        82.78307
338.34        82.97485
338.79        83.34178
339.24        83.91744
339.69        84.64129
340.14        85.36874
340.59        85.86333
341.05        86.08223
341.50        86.13017
341.95        86.14966
342.40        86.37594
342.85        86.86988
343.30        87.53589
343.75         88.3021
344.20        89.05457
344.66        89.73323
345.11         90.3616
345.56        90.86835
346.01        91.13737
346.46        91.17184
346.91         91.0155
347.36         90.8276
347.81        90.85882
348.26        91.16944
348.72        91.69981
349.17         92.3186
349.62        92.81974
350.07        93.13186
350.52        93.29962
350.97        93.39948
351.42        93.55284
351.87        93.78962
352.32        94.07175
352.77        94.30142
353.22        94.34148
353.67        94.17289
354.13         93.8496
354.58        93.49856
355.03        93.37912
355.48        93.52599
355.93         93.8488
356.38        94.12671
356.83        94.01499
357.28        93.45509
357.73         92.5848
358.18        91.61894
358.63        90.88585
359.08        90.48074
359.53        90.30438
359.98        90.25439
360.43        90.17061
360.88        89.98415
361.33        89.72987
361.78        89.42031
362.23        89.07471
362.68        88.70353
363.13        88.29089
363.58        87.80141
364.03         87.2509
364.48        86.55889
364.93        85.82652
365.38        85.14057
365.83        84.67595
366.28         84.4525
366.73        84.41243
367.18        84.39592
367.63        84.14062
368.08        83.58759
368.53        82.81938
368.98        81.97737
369.43        81.29449
369.88        80.83931
370.33        80.53946
370.78        80.31744
371.23        80.04736
371.68        79.68199
372.13        79.26293
372.58        78.81264
373.03        78.36137
373.48        77.92734
373.93        77.50149
374.38         77.0791
374.83        76.65857
375.28        76.24078
375.72        75.81155
376.17        75.42903
376.62        75.11673
377.07        74.87031
377.52        74.66659
377.97        74.45075
378.42        74.13919
378.87        73.72238
379.32        73.24355
379.77         72.7486
380.22        72.30234
380.67        71.92838
381.11        71.61105
381.56        71.36085
382.01        71.20226
382.46        71.12884
382.91        71.12694
383.36        71.13499
383.81        71.05632
384.26        70.86687
384.71        70.58898
385.15        70.25692
385.60        69.98427
386.05        69.78268
386.50        69.63107
386.95          69.505
387.40        69.36716
387.85        69.21136
388.29        69.01449
388.74        68.87029
389.19        68.75099
389.64        68.64706
390.09        68.53156
390.54        68.40217
390.98        68.24397
391.43         68.1006
391.88        67.97606
392.33        67.81326
392.78        67.61777
393.23        67.42365
393.67        67.01134
394.12        66.54234
394.57        66.90117
395.02        66.98488
395.47        66.98594
395.91        66.64192
396.36        66.54076
396.81        66.70417
397.26        66.81809
397.71         66.8259
398.15        66.75317
398.60        66.65927
399.05        66.43212
399.50        66.18853
399.95        66.17375
400.39        66.35621
400.84        66.52664
401.29        66.57696
401.74        66.24439
402.18        65.66603
402.63        65.46865
403.08        65.65464
403.53        65.62348
403.97        65.36964
404.42        65.30386
404.87         65.4025
405.32        65.48929
405.76        65.53939
406.21        65.47089
406.66        65.32738
407.11        65.47006
407.55        65.77219
408.00        65.55762
408.45        64.91489
408.90        64.34524
409.34        64.07249
409.79        64.39339
410.24        65.10912
410.68        65.47249
411.13        65.38916
411.58         65.3006
412.03        65.29292
412.47        65.31448
412.92        65.36986
413.37        65.47803
413.81        65.58479
414.26        65.66422
414.71        65.69525
415.15        65.72043
415.60        65.73011
416.05        65.75978
416.49        65.82542
416.94        65.89828
417.39        66.00468
417.83        66.18493
418.28        66.43102
418.73        66.71884
419.17        66.97902
419.62        67.10278
420.07        67.07462
420.51        66.93271
420.96        66.76185
421.41        66.65567
421.85        66.62225
422.30         66.6423
422.74        66.69331
423.19        66.94019
423.64        67.31837
424.08        67.62601
424.53        67.75591
424.98        67.86979
425.42        67.98122
425.87        67.91913
426.31        67.75921
426.76        67.77995
427.21        67.96333
427.65         68.0574
428.10        68.06969
428.54        68.17676
428.99        68.40814
429.44        68.80029
429.88        69.19439
430.33        69.08423
430.77        68.60316
431.22        68.62632
431.66        69.13108
432.11        69.53375
432.56        69.83115
433.00        70.12667
433.45        70.19353
433.89        70.42201
434.34        70.87402
434.78         69.4367
435.23        69.51746
435.67        69.67298
436.12        70.86997
436.57        71.18759
437.01        70.83498
437.46        70.63248
437.90        71.01047
438.35        72.15782
438.79        71.68236
439.24        71.85503
439.68        71.99722
440.13        72.06134
440.57        72.07751
441.02        72.42646
441.46        72.90027
441.91        72.66616
442.35        71.99161
442.80        71.75428
443.24        72.90919
443.69        73.21181
444.13        72.92361
444.58        72.95729
445.02        73.29602
445.47        73.45058
445.91        73.40451
446.36        73.45097
446.80        73.59033
447.24        73.68201
447.69         73.7503
448.13        73.98644
448.58        74.30383
449.02        74.27298
449.47        73.99319
449.91        73.94342
450.36        74.17427
450.80        74.39528
451.25        74.55452
451.69        74.67284
452.13        74.71491
452.58        74.61133
453.02        74.42981
453.47        74.31136
453.91        74.26709
454.36        74.39976
454.80        74.57673
455.24        74.29782
455.69        73.66499
456.13        73.45805
456.58        73.17661
457.02        73.20836
457.46        74.12701
457.91        73.85765
458.35        73.09668
458.79        72.72883
459.24        72.88037
459.68        72.89269
460.13        72.77261
460.57        72.56554
461.01        72.60934
461.46        72.76431
461.90        72.43482
462.34        72.93507
462.79        72.73154
463.23        72.80142
463.68        72.76295
464.12        72.64848
464.56        72.53524
465.01        72.74783
465.45        73.04417
465.89        73.00322
466.34        72.74088
466.78        72.35179
467.22         71.8279
467.67         72.7379
468.11         72.0052
468.55         71.9977
468.99        71.83487
469.44        71.78863
469.88        71.84565
470.32        71.87963
470.77        71.89348
471.21        71.90004
471.65        71.89376
472.10        71.88255
472.54        71.81777
472.98        71.72121
473.42        71.61427
473.87        71.36143
474.31        71.03447
474.75        71.22327
475.20        71.75841
475.64        71.67047
476.08        71.05868
476.52        70.92689
476.97        71.30421
477.41        71.31754
477.85        71.71598
478.29        71.40651
478.74        71.62487
479.18        71.16446
479.62        71.46049
480.06        71.38844
480.50        71.31284
480.95        71.18533
481.39        70.94347
481.83        71.32906
482.27        71.20043
482.72         71.0951
483.16        71.37498
483.60        71.39305
484.04        71.34793
484.48        71.21838
484.93        71.21397
485.37        71.14243
485.81        71.73303
486.25        71.56731
486.69        71.46828
487.14        70.73888
487.58        71.06517
488.02         71.6892
488.46        71.66145
488.90         71.9222
489.34        71.33965
489.79        70.35278
490.23        71.17037
490.67        71.16138
491.11         71.0257
491.55        70.98087
491.99        71.05041
492.43        71.11482
492.88        71.13516
493.32        71.13577
493.76        71.09319
494.20        71.10123
494.64        71.18681
495.08        71.15373
495.52        71.06125
495.96        71.38808
496.41        71.97242
496.85        71.89021
497.29        71.24103
497.73        71.13167
498.17        71.46231
498.61        71.58398
499.05        71.40345
499.49        71.38677
499.93        71.52866
500.37        71.36439
500.82        70.93742
501.26        70.95798
501.70          71.558
502.14         70.8502
502.58        71.38737
503.02        71.41711
503.46         71.3815
503.90        71.43159
504.34        71.46135
504.78        71.34391
505.22        71.11282
505.66        70.99806
506.10        71.01894
506.54        71.11913
506.98        71.28719
507.42        71.19836
507.86        71.39505
508.30        71.41444
508.74        71.41411
509.18        71.34263
509.62        71.23405
510.06        71.16836
510.50        71.15725
510.94        71.18128
511.38          71.217
511.82        71.22817
512.26        71.20572
512.70        71.16911
513.14        71.14164
513.58        71.13084
514.02        71.13802
514.46        71.20316
514.90        71.32755
515.34        71.25438
515.78        71.38916
516.22        71.42155
516.66        71.45901
517.10        71.45367
517.54        71.40514
517.98        71.32348
518.42        71.23445
518.86        71.18316
519.30         71.1804
519.74        71.23123
520.18        71.30225
520.62        71.30729
521.06        71.25256
521.50        71.22538
521.93        71.25052
522.37        71.29452
522.81        71.36348
523.25        71.46883
523.69        71.59011
524.13        71.68044
524.57        71.72669
525.01        71.74601
525.45        71.72294
525.89        71.63266
526.32        71.47769
526.76        71.28547
527.20        71.10909
527.64        71.04182
528.08        71.09916
528.52        71.24731
528.96        71.42838
529.40        71.54836
529.83         71.5724
530.27         71.5414
530.71        71.46485
531.15        71.37087
531.59        71.27483
532.03        71.16567
532.46        71.06152
532.90        71.01608
533.34        71.03111
533.78        71.10074
534.22        71.18224
534.66        71.20538
535.09        71.14902
535.53        71.05321
535.97        70.95518
536.41        70.92997
536.85        70.98777
537.28        71.11642
537.72        71.27229
538.16        71.32936
538.60        71.25986
539.04        71.29546
539.47        71.12761
539.91        71.07817
540.35        71.05057
540.79        71.05148
541.22        71.05833
541.66        71.05075
542.10        71.02448
542.54        70.98814
542.97        70.95342
543.41        70.97811
543.85        71.05168
544.29         71.1531
544.72         71.2415
545.16        71.29407
545.60        71.28909
546.04        71.23499
546.47        71.14312
546.91        71.06763
547.35        71.01833
547.79        70.92562
548.22         70.7912
548.66        70.79924
549.10        70.88956
549.53        70.82578
549.97        70.66054
550.41        70.65452
550.84        70.79511
551.28        71.01472
551.72         71.2813
552.15        71.32331
552.59        71.08248
553.03        71.64767
553.46        71.15839
553.90        71.20027
554.34        71.21835
554.77        71.24713
555.21        71.26274
555.65        71.20968
556.08        71.21243
556.52        71.07669
556.96        70.88844
557.39        70.84669
557.83        70.95433
558.27        70.99597
558.70        70.96229
559.14        70.96656
559.57        71.01808
560.01        71.15269
560.45        71.30501
560.88        71.38591
561.32        71.42093
561.75        71.26423
562.19        71.03751
562.63        71.14888
563.06        71.50723
563.50        71.48513
563.93          71.118
564.37        71.07908
564.80        71.31847
565.24        71.37881
565.68        71.24668
566.11        71.18723
566.55         71.2303
566.98        71.21709
567.42        71.16283
567.85        71.14314
568.29        71.21156
568.72        71.13291
569.16         70.9277
569.60        71.14828
570.03        71.44025
570.47        71.17186
570.90        71.07092
571.34        71.92899
571.77        71.39838
572.21        71.36629
572.64        71.47534
573.08        71.12094
573.51        70.96082
573.95        71.11987
574.38         71.6349
574.82        71.23463
575.25        71.16181
575.69        70.97454
576.12        71.11769
576.56         71.6062
576.99        71.31269
577.42        71.09174
577.86        71.26545
578.29        71.41936
578.73        71.23934
579.16        71.23009
579.60        71.20047
580.03          71.177
580.47        71.08504
580.90        71.17678
581.33        71.59663
581.77        71.49638
582.20        71.18153
582.64        71.34212
583.07        70.85838
583.51        70.80006
583.94        71.04116
584.37        71.26698
584.81        71.40344
585.24        71.36391
585.68        71.26537
586.11        71.23993
586.54        71.10233
586.98         71.1022
587.41        71.34385
587.85        71.24701
588.28        71.15344
588.71        71.19942
589.15        71.39367
589.58        71.08223
590.01        71.18938
590.45        71.37693
590.88        70.59818
591.31        70.57437
591.75        70.88976
592.18        71.05216
592.61        71.08318
593.05        71.50867
593.48        71.50268
593.91        71.00506
594.35        70.99131
594.78        71.27652
595.21        70.96409
595.65        71.03517
596.08        71.07512
596.51        71.40002
596.94        71.30491
597.38        71.37084
597.81         71.4577
598.24        71.25933
598.68        71.05009
599.11        71.23898
599.54        71.13494
599.97        71.26267
600.41        71.39015
600.84        71.46745
601.27        71.49974
601.70        71.10943
602.14        70.93333
602.57        71.10577
603.00        71.34944
603.43        71.42109
603.87        71.62222
604.30        71.38725
604.73         71.6975
605.16        71.79627
605.60        71.44927
606.03        71.46757
606.46         71.6972
606.89        71.66071
607.32        71.63899
607.76        71.98606
608.19        71.70689
608.62        71.66637
609.05        71.63749
609.48        71.59425
609.92        71.47008
610.35        71.91979
610.78        71.89532
611.21        71.50426
611.64        71.65207
612.07        71.54066
612.50        71.54923
612.94        71.46353
613.37         71.3867
613.80         71.6208
614.23        71.54735
614.66        71.67071
615.09        71.71283
615.52        71.73352
615.96        71.80005
616.39        71.21706
616.82        71.28952
617.25        71.59653
617.68        71.48895
618.11        71.59306
618.54        71.62162
618.97        71.76868
619.40        71.93114
619.84        71.90533
620.27        71.73084
620.70        71.43613
621.13        71.08378
621.56        71.27785
621.99        71.27764
622.42        71.34509
622.85        71.33486
623.28        71.58393
623.71        71.73396
624.14         71.1506
624.57        71.36874
625.00         71.5202
625.43        71.22362
625.86        71.23732
626.29        71.25821
626.72        71.57982
627.15        71.34569
627.58        71.42139
628.01        71.58507
628.44        71.41626
628.87        70.92979
629.30        71.35209
629.73        71.42779
630.16        71.04646
630.59        71.19247
631.02        71.16313
631.45        71.30735
631.88        71.38155
632.31        71.40788
632.74        71.09679
633.17         71.1832
633.60        71.14261
634.03        71.19248
634.46        71.30141
634.89        71.41918
635.32        71.43863
635.75        71.33408
636.18        71.18487
636.61        71.04195
637.04        70.90597
637.47        70.83904
637.89         71.0044
638.32        71.31596
638.75        71.50564
639.18         71.5306
639.61        71.52859
640.04         71.5025
640.47        71.42187
640.90         71.3035
641.33        71.12522
641.76        70.92343
642.18        70.93799
642.61        70.90182
643.04        71.01609
643.47        71.15089
643.90        71.22657
644.33        71.21712
644.76        71.15154
645.18        71.05996
645.61        70.97637
646.04        70.91811
646.47        70.86697
646.90        70.83385
647.33        70.83339
647.75        70.86722
648.18        70.95442
648.61        71.05157
649.04         71.0633
649.47        70.99173
649.89        70.88619
650.32        70.80656
650.75        70.85883
651.18        71.02718
651.61        71.17507
652.03        71.20119
652.46        71.16474
652.89        71.17014
653.32         70.9511
653.74         70.6283
654.17        71.65016
654.60        70.98036
655.03        71.24447
655.46        70.82518
655.88         71.8186
656.31        72.69336
656.74        72.13697
657.16        71.41379
657.59        70.78561
658.02        70.84555
658.45        71.54674
658.87        71.35015
659.30        71.43185
659.73        71.02431
660.15        71.15729
660.58        71.06033
661.01        71.27576
661.44        71.53394
661.86        71.70238
662.29        71.72275
662.72        71.57632
663.14        71.34902
663.57        71.25007
664.00        71.29433
664.42        71.24326
664.85        71.10949
665.27        71.07076
665.70        71.12004
666.13        71.15289
666.55        71.16178
666.98        71.16781
667.41        71.18258
667.83        71.22031
668.26        71.27544
668.69        71.35107
669.11        71.42254
669.54        71.46499
669.96        71.48054
670.39        71.40918
670.82        71.31667
671.24        71.42322
671.67        71.67993
672.09        71.78533
672.52        71.72601
672.94          71.637
673.37         71.5551
673.80        71.44255
674.22         71.3443
674.65        71.31174
675.07        71.35024
675.50        71.34882
675.92        71.30969
676.35        71.30671
676.77        71.34101
677.20        71.35577
677.62        71.36065
678.05        71.37784
678.47        71.40465
678.90        71.47642
679.32         71.5131
679.75        71.58305
680.17        71.66244
680.60        71.76257
681.02        71.84071
681.45        71.84539
681.87        71.78767
682.30        71.56219
682.72        71.28587
683.15        71.40042
683.57        71.82486
684.00        71.86842
684.42        71.55637
684.85        71.49413
685.27         71.6853
685.70        71.77717
686.12        71.75756
686.54         71.8093
686.97        71.91232
687.39        72.01041
687.82        72.09373
688.24        72.05027
688.66        72.15511
689.09        72.16329
689.51        72.17282
689.94         72.1589
690.36        72.13038
690.78        72.09965
691.21        72.07237
691.63        72.01469
692.06         71.9211
692.48        71.94235
692.90        71.82855
693.33        71.77129
693.75        71.69833
694.17         71.6917
694.60        71.71549
695.02        71.62785
695.44         71.4949
695.87        71.56163
696.29        71.80953
696.71        72.13365
697.14          72.389
697.56        72.27447
697.98        71.88872
698.41        71.77777
698.83        71.95619
699.25        72.13931
699.68        72.24791
700.10        72.35088
700.52        72.41333
700.94        72.42159
701.37         72.3749
701.79        72.31421
702.21        72.23489
702.64        72.14807
703.06        72.06232
703.48        72.01146
703.90        72.00848
704.33        72.04198
704.75        72.10447
705.17        72.15607
705.59        72.18353
706.01        72.16856
706.44        72.13098
706.86         72.2233
707.28        72.24634
707.70        72.38286
708.12        72.53548
708.55        72.53479
708.97        72.40748
709.39        72.40932
709.81        72.53551
710.23        72.56739
710.66        72.49477
711.08        72.46971
711.50          72.474
711.92        72.43671
712.34        72.36007
712.76        72.26845
713.19        72.18082
713.61        72.17715
714.03        72.24966
714.45        72.37478
714.87        72.52135
715.29        72.64254
715.71        72.72121
716.13        72.76971
716.56        72.77728
716.98        72.79001
717.40        72.79092
717.82         72.8079
718.24        72.85909
718.66        72.80384
719.08        72.92563
719.50        72.97636
719.92         73.0225
720.34        73.07877
720.76        73.15113
721.19        73.02834
721.61        73.07678
722.03        72.98845
722.45        72.87498
722.87        72.73135
723.29        72.60712
723.71        72.57288
724.13        72.64146
724.55        72.80403
724.97        72.99352
725.39         73.0965
725.81        73.08793
726.23        72.99725
726.65        72.90353
727.07          72.937
727.49        73.12077
727.91        73.40334
728.33         73.6964
728.75        73.85482
729.17        73.83681
729.59        73.69218
730.01        73.47762
730.43        73.28656
730.85        73.15518
731.27        73.05526
731.69        72.99908
732.10        73.00513
732.52        73.05541
732.94        73.20694
733.36        73.41688
733.78        73.48547
734.20        73.36793
734.62        73.61796
735.04        73.13554
735.46        73.40072
735.88        73.90932
736.30        73.81458
736.72        73.20934
737.13        72.98403
737.55        73.19863
737.97        73.53725
738.39        73.84657
738.81        73.80342
739.23        73.45528
739.65        73.39374
740.06        73.59615
740.48        73.63087
740.90        73.46394
741.32        73.44338
741.74        73.47807
742.16        73.55527
742.57        73.63986
742.99        73.74959
743.41        73.84682
743.83        73.84868
744.25        73.74886
744.67        73.57001
745.08        73.39752
745.50        73.33332
745.92        73.42026
746.34        73.62117
746.75        73.87366
747.17        74.05902
747.59         74.1339
748.01         74.1552
748.42        74.15507
748.84        74.06072
749.26        73.92004
749.68        74.02449
750.09        74.27504
750.51        74.10749
750.93        73.63351
751.35        73.60194
751.76        73.97081
752.18        74.07971
752.60        73.90419
753.01        73.81424
753.43        73.83347
753.85         73.8792
754.27        73.95468
754.68        74.07197
755.10        74.19736
755.52        74.27993
755.93        74.32148
756.35        74.33758
756.77        74.30547
757.18        74.36205
757.60         74.5443
758.02        74.44253
758.43         74.0758
758.85        74.87888
759.26        74.88932
759.68        74.97569
760.10         74.6954
760.51        73.81297
760.93        73.78548
761.34        73.97291
761.76         74.2049
762.18        74.54752
762.59        74.83121
763.01        74.48833
763.42        74.61131
763.84        74.53893
764.26        74.64821
764.67        74.79047
765.09        74.95235
765.50        75.08574
765.92        75.15562
766.33        75.02321
766.75        74.71006
767.16        74.59682
767.58        74.68388
768.00        74.82068
768.41        74.96754
768.83        75.07829
769.24        75.11081
769.66        75.03674
770.07        74.89179
770.49        74.83985
770.90         74.9215
771.32        75.08909
771.73        75.28831
772.15        75.37328
772.56        75.32858
772.97        75.27847
773.39          75.226
773.80        75.06184
774.22        74.86127
774.63        75.05162
775.05         75.5088
775.46        75.73225
775.88        75.63065
776.29        75.51561
776.70        75.44846
777.12        75.42146
777.53        75.48262
777.95        75.60669
778.36         75.7606
778.77        75.87074
779.19        75.91684
779.60        75.93117
780.02        75.92833
780.43        75.95248
780.84        75.98721
781.26        76.02898
781.67        76.14091
782.09        76.18713
782.50         76.0529
782.91        76.68302
783.33        76.07531
783.74        76.05945
784.15        76.04789
784.57        75.90253
784.98        75.68624
785.39        75.77495
785.81        76.11202
786.22        76.20405
786.63        76.07515
787.04        76.14874
787.46        76.43866
787.87        76.69314
788.28        76.82169
788.70        76.82241
789.11        76.67619
789.52        76.29711
789.93        75.86505
790.35        75.92258
790.76        76.42388
791.17        76.65088
791.58        76.56425
792.00        76.64681
792.41        76.90189
792.82        77.01727
793.23        77.00589
793.65        76.95987
794.06        76.94643
794.47         77.1538
794.88        77.49148
795.29         77.4024
795.71        77.34075
796.12        77.03387
796.53         76.7234
796.94        76.68208
797.35         76.8933
797.76        76.95747
798.18        76.85187
798.59        76.85453
799.00        76.96362
799.41         76.9894
799.82        76.93652
800.23        76.92593
800.64        76.96855
801.06        77.00609
801.47        77.06701
801.88        77.11583
802.29           77.15
802.70        77.18568
803.11        77.23253
803.52        77.30172
803.93        77.38855
804.34        77.47129
804.75        77.55455
805.17        77.61906
805.58        77.68537
805.99        77.79001
806.40        77.86545
806.81        77.68829
807.22        77.30321
807.63        76.98077
808.04        76.81358
808.45        76.75864
808.86        76.84103
809.27        77.14533
809.68        77.54149
810.09        77.72692
810.50        77.63512
810.91        77.35504
811.32        77.01583
811.73        76.85161
812.14        76.93383
812.55        77.14151
812.96         77.4053
813.37        77.72208
813.78        77.98595
814.19        77.97565
814.60        77.76147
815.01        77.67661
815.42        77.75851
815.83        77.82258
816.24        77.85817
816.65        77.93391
817.05        78.04504
817.46        78.14135
817.87        78.21432
818.28        78.19051
818.69        78.06129
819.10        77.85056
819.51        77.62331
819.92        77.49841
820.33        77.51475
820.74        77.63751
821.14         77.8043
821.55        77.95131
821.96        78.03304
822.37        78.07031
822.78        78.07425
823.19        78.06413
823.60        78.05184
824.00        78.05186
824.41        78.01791
824.82        77.97456
825.23        77.92784
825.64        77.88339
826.04         77.8879
826.45         77.9706
826.86        78.14028
827.27        78.37428
827.68        78.60892
828.08        78.76981
828.49        78.76452
828.90        78.66343
829.31        78.51019
829.72        78.38556
830.12        78.34399
830.53        78.30728
830.94        78.31033
831.35        78.37286
831.75        78.50835
832.16         78.6664
832.57        78.78938
832.97        78.73657
833.38        78.48187
833.79        78.09149
834.20        77.68699
834.60        77.44267
835.01        77.41374
835.42         77.5417
835.82        77.78932
836.23        78.00119
836.64         78.1511
837.04        78.29541
837.45        78.38683
837.86          78.451
838.26         78.5104
838.67        78.53558
839.08        78.56306
839.48        78.64551
839.89        78.78822
840.29        78.96835
840.70        79.16669
841.11        79.35387
841.51        79.52927
841.92        79.66061
842.33        79.72289
842.73        79.67086
843.14        79.45753
843.54        79.13988
843.95        78.79479
844.35        78.57005
844.76        78.49314
845.17        78.52982
845.57        78.63586
845.98        78.68595
846.38        78.66908
846.79        78.60109
847.19        78.50737
847.60         78.3709
848.00        78.23194
848.41        78.05722
848.81        77.93533
849.22         77.9379
849.62        78.11066
850.03        78.39619
850.43        78.73171
850.84        78.92855
851.24        78.99242
851.65        78.90504
852.05        78.79127
852.46        78.75565
852.86         78.8336
853.27        78.99876
853.67        79.11681
854.07        79.19534
854.48        79.17456
854.88        79.10727
855.29        78.91396
855.69        78.66996
856.10        78.31284
856.50        77.94376
856.90         77.5657
857.31        77.21497
857.71        76.96194
858.12        76.74461
858.52        76.65649
858.92        76.71202
859.33        76.87822
859.73        77.17751
860.13        77.45993
860.54        77.48935
860.94        77.25074
861.34        76.78008
861.75        76.21525
862.15        75.84206
862.55        75.71355
862.96        75.78006
863.36        75.94538
863.76        76.02927
864.17        75.96603
864.57        75.81006
864.97        75.66323
865.38        75.66327
865.78        75.88342
866.18        76.25867
866.58        76.59647
866.99        76.58453
867.39        76.19674
867.79        75.51301
868.19        74.82572
868.60        74.52396
869.00         74.6806
869.40        75.22232
869.80        75.90556
870.21        76.27357
870.61        76.25498
871.01        75.92472
871.41        75.51347
871.81        75.35256
872.22        75.48799
872.62        75.84434
873.02        76.27385
873.42        76.49739
873.82        76.43427
874.22        76.21238
874.63        75.98135
875.03        75.91147
875.43        76.05602
875.83        76.32516
876.23        76.68179
876.63        77.07573
877.03        77.44707
877.44        77.78383
877.84        77.98943
878.24        77.86985
878.64        77.42096
879.04        76.74773
879.44        76.02538
879.84        75.48837
880.24        75.20383
880.64        75.12572
881.04        75.23148
881.44        75.46879
881.84        75.78854
882.24        76.17194
882.65        76.53577
883.05        76.85117
883.45        77.03364
883.85         77.0771
884.25        76.95673
884.65        76.65094
885.05        76.19142
885.45        75.62128
885.85        75.05825
886.25        74.70691
886.65        74.63483
887.05        74.78974
887.45        75.10222
887.85        75.44941
888.25        75.77228
888.65        76.09293
889.04        76.34321
889.44        76.45997
889.84        76.41184
890.24          76.193
890.64        75.91242
891.04        75.76131
891.44        75.78768
891.84        75.96581
892.24        76.15613
892.64        76.12514
893.04        75.83838
893.44        75.37606
893.83        74.96605
894.23         74.9017
894.63         75.2617
895.03        75.92451
895.43        76.64744
895.83         77.0347
896.23         76.9921
896.63        76.66489
897.02        76.22686
897.42        75.98001
897.82        75.99315
898.22        76.17552
898.62        76.47898
899.01         76.8393
899.41        77.18391
899.81        77.53922
900.21        77.85065
900.61        78.02385
901.00        78.02429
901.40        77.87502
901.80        77.62012
902.20        77.35654
902.59        77.13515
902.99        76.94086
903.39        76.77933
903.79        76.63541
904.18        76.51355
904.58        76.44717
904.98        76.45758
905.38        76.57864
905.77        76.79083
906.17        77.06209
906.57        77.34283
906.96        77.57594
907.36         77.7058
907.76        77.77505
908.15         77.7562
908.55        77.53706
908.95        77.15951
909.34        76.63302
909.74        76.18139
910.14          76.092
910.53        76.41411
910.93          77.047
911.33        77.73188
911.72        78.01423
912.12        77.78323
912.52        77.22998
912.91        76.58752
913.31        76.22366
913.70        76.21803
914.10        76.43079
914.49        76.82698
914.89        77.26835
915.29        77.68549
915.68        78.10339
916.08        78.40852
916.47        78.41877
916.87        78.13798
917.26         77.5975
917.66        76.99103
918.05        76.60139
918.45        76.49574
918.84        76.63132
919.24        76.87021
919.64        77.04812
920.03        77.13507
920.42        77.20303
920.82        77.28234
921.21        77.41053
921.61         77.5788
922.00        77.72389
922.40        77.92154
922.79         78.4007
923.19        79.10527
923.58        79.99246
923.98        80.65649
924.37        80.53678
924.77         79.5563
925.16        77.89561
925.55        76.10421
925.95        75.14218
926.34        75.28914
926.74        76.25964
927.13        77.59517
927.52        78.43556
927.92        78.56617
928.31        78.23869
928.70         77.7449
929.10        77.52549
929.49        77.70015
929.89        78.03407
930.28        78.46868
930.67        78.80744
931.07        78.94457
931.46        79.00119
931.85        78.88512
932.24        78.46249
932.64        77.76796
933.03        76.87377
933.42        76.03257
933.82        75.65272
934.21        75.83118
934.60        76.45024
934.99        77.30058
935.39        77.98878
935.78        78.40445
936.17        78.62318
936.56        78.68024
936.96        78.64625
937.35          78.616
937.74        78.51876
938.13        78.40913
938.53        78.38847
938.92        78.47201
939.31        78.63637
939.70        78.82457
940.09        78.91522
940.49        78.84092
940.88        78.67164
941.27         78.4205
941.66        78.10931
942.05        77.77776
942.44        77.46555
942.84         77.2192
943.23        77.06081
943.62        77.02469
944.01        77.06584
944.40        77.25674
944.79        77.70776
945.18        78.37122
945.57        79.16537
945.97        79.75268
946.36        79.71565
946.75        78.96608
947.14        77.63418
947.53        76.11026
947.92        75.09752
948.31        74.82769
948.70        75.14065
949.09        75.71046
949.48        75.99255
949.87         75.8483
950.26        75.45882
950.65        75.05575
951.04         75.0003
951.43        75.37442
951.82        76.01218
952.21        76.71911
952.60        77.18797
952.99        77.30022
953.38        77.15343
953.77        76.83233
954.16        76.45919
954.55         76.0961
954.94        75.71727
955.33        75.35404
955.72        75.06705
956.11        74.87071
956.50        74.76675
956.89        74.74945
957.28        74.77151
957.66        74.85009
958.05        75.00612
958.44        75.18111
958.83        75.28384
959.22         75.2896
959.61        75.14404
960.00        75.05634
960.39        75.37689
960.78        76.12588
961.16        77.23907
961.55        78.15334
961.94        78.01658
962.33        76.69341
962.72        74.55104
963.11        72.33522
963.49        71.11991
963.88        71.15363
964.27        72.13758
964.66        73.61651
965.04        74.76274
965.43        75.15336
965.82        75.03955
966.21        74.66392
966.60        74.40705
966.98        74.40472
967.37        74.50094
967.76        74.55001
968.15        74.31126
968.53        73.77911
968.92        73.09782
969.31        72.59603
969.69        72.71298
970.08        73.51061
970.47         74.8435
970.86        76.38953
971.24        77.58885
971.63         78.1742
972.02          78.311
972.40        78.22798
972.79        78.13445
973.17        78.18426
973.56        78.21851
973.95        78.23964
974.33        78.22301
974.72        78.13979
975.11        78.03333
975.49        77.84446
975.88        77.47894
976.26        76.94456
976.65        76.24323
977.04        75.49776
977.42        74.90517
977.81        74.47877
978.19        74.17802
978.58        74.04048
978.96        74.04939
979.35        74.15045
979.74        74.39443
980.12        74.71383
980.51        74.76053
980.89        74.59975
981.28        74.22564
981.66         73.9017
982.05        74.14186
982.43        75.01022
982.82         76.2279
983.20        77.50926
983.59        78.25398
983.97         78.4147
984.35        78.16311
984.74        77.53199
985.12        76.61564
985.51        75.56667
985.89        74.41577
986.28        73.59815
986.66        73.80592
987.04        75.04613
987.43        77.09329
987.81        79.27725
988.20        80.28511
988.58        79.81629
988.96        78.23981
989.35        76.17166
989.73        74.69435
990.12        74.09291
990.50        74.05918
990.88        74.48965
991.27        75.08804
991.65        75.61173
992.03        76.21067
992.42        76.52605
992.80        76.29197
993.18        75.37082
993.56        73.69029
993.95        71.72956
994.33        70.72773
994.71        71.27326
995.10        72.80863
995.48        74.47427
995.86        75.26717
996.24        75.08685
996.63        74.12254
997.01        72.86863
997.39         72.3197
997.77        72.86317
998.15        74.14767
998.54        75.40782
998.92        75.62286
999.30        74.60223
999.68        72.68249
1000.06        70.56587
1000.45        69.50568
1000.83        69.97183
1001.21        71.48401
1001.59        73.35662
1001.97        74.60331
1002.35         74.9696
1002.73        74.77396
1003.12        74.20509
1003.50        73.56396
1003.88        73.09623
1004.26         72.5891
1004.64        72.24253
1005.02        72.34015
1005.40        72.86534
1005.78        73.86572
1006.16        74.77947
1006.54        74.55305
1006.92        73.00204
1007.30        70.43769
1007.69        67.95681
1008.07        67.29603
1008.45        68.87662
1008.83        72.03279
1009.21        75.53932
1009.59        77.68202
1009.97        77.98891
1010.35        76.79054
1010.73        74.56252
1011.11        72.66676
1011.49        71.93047
1011.86        72.14987
1012.24        72.71323
1012.62        72.97037
1013.00        72.77323
1013.38        72.44087
1013.76         72.3534
1014.14        73.05093
1014.52        74.66355
1014.90        76.96765
1015.28        79.45457
1015.66         81.1526
1016.04        81.62542
1016.41        81.14501
1016.79        80.01725
1017.17        79.10239
1017.55        78.68714
1017.93        78.71019
1018.31        78.91798
1018.69        78.86992
1019.06        78.51333
1019.44        77.90637
1019.82        77.67068
1020.20        78.93119
1020.58         81.6729
1020.95        85.09598
1021.33        87.87602
1021.71        88.35819
1022.09        86.34941
1022.46        82.32527
1022.84        77.22158
1023.22        72.58514
1023.60        69.09621
1023.97        66.40329
1024.35        64.57848
1024.73        63.10941
