SpectraSmart Spectrum 2.9.0.0
--------- Device Information -----------
Spectrum Name :  反射率_0
Saving Time :  2024/04/28 00:00:34
Spectro-Module Model Name : SE2030-DUVN
Spectro-Module Serial Number : OS361AC55029948
Wavelength Start : 200
Wavelength End : 1025
Wavelength Unit : Wavelength(nm)
Spectrum Unit : Reflectance(%)
-----------Spectrum Setting ------------
Integration Time : 20ms
Average : 10
Boxcar : 0
Background removal :  enabled
linearity correction :  enabled
SC :  disabled
Intensity correction :  disabled
DWT denoise :  enabled
savitzky-golay :  disabled
FFT :  disabled
Running average :  disabled
Kalman :  disabled
High pass :  disabled
---------------BEGIN--------------------
Wavelength(nm)             Reflectance(%)
200.29               0
200.75        84.09726
201.21        95.03911
201.67        102.0646
202.13        104.0546
202.58         102.742
203.04        99.72392
203.50        96.14849
203.96        94.22391
204.42         94.2104
204.88        95.02293
205.34        96.04283
205.80        96.79619
206.26        97.15095
206.72        97.30099
207.18         96.6925
207.64        94.09974
208.10        90.73354
208.55         88.7489
209.01        87.22479
209.47        85.26051
209.93        81.78154
210.39        73.50705
210.85        50.95664
211.31        34.36292
211.77        74.77484
212.23        94.89722
212.69        100.6422
213.14        101.6777
213.60        99.59603
214.06        94.32126
214.52        83.96508
214.98        72.98882
215.44        70.52599
215.90        73.25907
216.36        76.84121
216.81        79.20383
217.27        80.48531
217.73        81.67667
218.19        82.27114
218.65        81.05728
219.11        77.82547
219.57        72.54635
220.02        66.41208
220.48         63.9647
220.94        66.17951
221.40        70.95164
221.86        76.01669
222.32        79.17947
222.77        80.22383
223.23        80.10625
223.69         78.7919
224.15         75.9679
224.61        71.72694
225.06        65.82712
225.52        59.97716
225.98         57.4885
226.44        58.66891
226.90        61.56147
227.36        63.99095
227.81         64.1013
228.27        61.96626
228.73        58.11372
229.19        53.19605
229.65        48.87886
230.10        46.03166
230.56        44.55758
231.02        43.93644
231.48         43.4784
231.93        42.90665
232.39        42.54747
232.85        42.65574
233.31        43.55424
233.77        45.18597
234.22        47.40198
234.68        49.48714
235.14        50.67832
235.60        50.91608
236.05        50.29167
236.51         49.8359
236.97        51.56339
237.43        55.93529
237.88        62.23129
238.34        68.34873
238.80        72.57641
239.26        74.76208
239.71        75.20586
240.17        73.91639
240.63        73.10368
241.08        74.65758
241.54         77.0119
242.00        78.80298
242.46        79.42022
242.91        79.13493
243.37        77.80431
243.83        75.82949
244.28        77.77648
244.74        88.09518
245.20        99.40176
245.66        105.0367
246.11        106.4728
246.57        105.5737
247.03        101.4594
247.48         93.3864
247.94        84.66966
248.40        81.46994
248.85        83.69441
249.31        88.77732
249.77        93.43016
250.22        96.80032
250.68        99.60488
251.14        102.0735
251.59        104.8311
252.05        108.3964
252.51        112.6574
252.96        116.8228
253.42        117.8564
253.88        114.0379
254.33        107.9938
254.79         102.296
255.25        96.69745
255.70        91.07122
256.16        86.26138
256.62         83.2428
257.07        83.21053
257.53        85.59979
257.99        88.46961
258.44        90.15466
258.90        89.87366
259.35        87.50938
259.81        84.42657
260.27        81.06799
260.72         78.0513
261.18        75.92946
261.63        74.05253
262.09        72.57862
262.55        71.15639
263.00        69.61628
263.46        68.24984
263.91        66.86974
264.37        65.65942
264.83         64.5592
265.28        63.48808
265.74        62.57063
266.19        61.69801
266.65        60.92342
267.11        60.17641
267.56        59.37105
268.02        58.49933
268.47        57.50986
268.93        56.44333
269.38        55.34142
269.84        54.31491
270.30        53.37589
270.75        52.48533
271.21        51.59113
271.66        50.55197
272.12        49.37278
272.57        48.06836
273.03        46.75681
273.48        45.52056
273.94        44.46039
274.39        43.51321
274.85        42.69263
275.31        41.90875
275.76        41.11697
276.22         40.3765
276.67        39.66675
277.13        39.08065
277.58        38.55474
278.04        38.10336
278.49         37.6029
278.95        37.01574
279.40        36.27708
279.86        35.48422
280.31        34.66292
280.77        33.98824
281.22        33.44653
281.68        33.05397
282.13        32.71435
282.59        32.35386
283.04        31.93552
283.50        31.51612
283.95        31.15123
284.41        30.97152
284.86        30.97399
285.32        31.13088
285.77        31.33368
286.22         31.4779
286.68        31.55339
287.13        31.55042
287.59        31.55705
288.04        31.62495
288.50        31.79424
288.95        31.99916
289.41        32.20599
289.86        32.30978
290.32        32.32706
290.77        32.29899
291.22        32.29752
291.68        32.41364
292.13        32.67546
292.59        33.09422
293.04        33.67197
293.50        34.43584
293.95        35.37056
294.40        36.47888
294.86        37.73595
295.31        39.08981
295.77        40.52775
296.22        42.03007
296.68        43.59423
297.13        45.18864
297.58        46.79672
298.04        48.41286
298.49        50.02341
298.95        51.66942
299.40        53.36334
299.85        55.11977
300.31        56.97109
300.76        58.89629
301.21        60.87967
301.67        62.92308
302.12        64.94093
302.58        66.91196
303.03        68.78937
303.48        70.60332
303.94        72.43814
304.39         74.3278
304.84        76.31056
305.30        78.38126
305.75        80.42273
306.20        82.35883
306.66        84.19336
307.11        85.90218
307.57        87.58464
308.02        89.26168
308.47        90.95596
308.93        92.64605
309.38        94.23122
309.83        95.67558
310.29        96.99429
310.74        98.18615
311.19        99.30123
311.65        100.3867
312.10        101.4204
312.55        102.3922
313.00         103.304
313.46        104.1706
313.91        104.9776
314.36        105.7445
314.82        106.4437
315.27        107.0217
315.72        107.4756
316.18         107.842
316.63        108.1624
317.08        108.5434
317.53        109.0116
317.99        109.5303
318.44        110.0678
318.89        110.5418
319.35        110.9262
319.80        111.2574
320.25        111.5443
320.70        111.8111
321.16        112.0579
321.61        112.2886
322.06        112.5244
322.51        112.8138
322.97        113.1442
323.42        113.5456
323.87        113.9353
324.32        114.1975
324.78        114.2927
325.23        114.2932
325.68        114.2776
326.13        114.4099
326.59        114.7034
327.04        115.1608
327.49        115.6659
327.94        116.0645
328.39        116.3106
328.85        116.4119
329.30        116.5084
329.75        116.6672
330.20        116.9262
330.66        117.2267
331.11        117.5977
331.56         117.962
332.01         118.308
332.46        118.6488
332.92        118.9672
333.37        119.3951
333.82        119.8849
334.27        120.4131
334.72        120.9157
335.17        121.2966
335.63        121.5116
336.08        121.6541
336.53        121.7781
336.98        122.0224
337.43        122.4284
337.88        122.9601
338.34        123.5434
338.79        124.1101
339.24        124.6097
339.69        125.0744
340.14        125.5191
340.59        125.9687
341.05        126.4349
341.50        126.9058
341.95        127.3839
342.40        127.8983
342.85        128.4457
343.30        129.0054
343.75        129.5435
344.20         130.004
344.66         130.373
345.11        130.6627
345.56        130.8706
346.01        130.9926
346.46        131.0449
346.91          131.04
347.36         131.043
347.81        131.1492
348.26        131.3751
348.72        131.7002
349.17        132.0418
349.62         132.287
350.07        132.3991
350.52        132.4027
350.97        132.3511
351.42        132.3344
351.87        132.3702
352.32         132.421
352.77        132.4276
353.22        132.3059
353.67         132.032
354.13        131.6411
354.58        131.1556
355.03        130.6763
355.48         130.228
355.93         129.793
356.38        129.3114
356.83         128.686
357.28        127.9091
357.73          127.03
358.18        126.1431
358.63        125.3848
359.08        124.7869
359.53         124.309
359.98        123.8675
360.43        123.3327
360.88        122.6617
361.33        121.8751
361.78        121.0417
362.23        120.2681
362.68        119.5752
363.13        118.9468
363.58        118.2874
364.03        117.3658
364.48        116.3004
364.93        115.0626
365.38        113.8281
365.83         112.803
366.28        112.0341
366.73        111.4459
367.18        110.9436
367.63        110.3754
368.08        109.6907
368.53        108.9437
368.98        108.1449
369.43        107.3094
369.88        106.4599
370.33        105.5852
370.78        104.7498
371.23        104.0665
371.68        103.5475
372.13        103.1538
372.58        102.7925
373.03        102.3064
373.48         101.654
373.93        100.8883
374.38        100.0616
374.83         99.2556
375.28        98.50844
375.72        97.78444
376.17         97.1397
376.62        96.59013
377.07        96.12914
377.52        95.73618
377.97        95.37608
378.42        94.98928
378.87        94.55627
379.32        94.09915
379.77        93.59663
380.22        93.01649
380.67         92.3636
381.11        91.64838
381.56         90.9548
382.01        90.43729
382.46        90.13064
382.91        89.99469
383.36        89.90226
383.81         89.6488
384.26        89.18463
384.71        88.56567
385.15        87.89428
385.60        87.39451
386.05        87.09554
386.50        86.93774
386.95        86.81342
387.40        86.56124
387.85        86.15825
388.29        85.62281
388.74        85.14995
389.19        84.81481
389.64        84.61705
390.09        84.47211
390.54        84.32687
390.98        84.08417
391.43        83.78411
391.88        83.47655
392.33        83.09417
392.78        82.65508
393.23        82.21736
393.67        81.47465
394.12        80.69435
394.57        81.12809
395.02           81.41
395.47        81.56954
395.91        81.20506
396.36        81.06269
396.81        81.13557
397.26        80.97151
397.71        80.61969
398.15        80.29732
398.60        80.09783
399.05          79.927
399.50        79.78075
399.95        79.52748
400.39        79.19469
400.84        79.09883
401.29          79.172
401.74        78.72298
402.18        77.92003
402.63        77.75903
403.08        78.18653
403.53        78.24963
403.97        77.90246
404.42        77.70623
404.87        77.66524
405.32        77.60771
405.76        77.52866
406.21        77.33283
406.66         77.0912
407.11        77.14092
407.55        77.62346
408.00        77.30896
408.45        76.41362
408.90        75.80038
409.34        75.66336
409.79        75.95497
410.24        76.46477
410.68        76.67519
411.13         76.4999
411.58        76.25304
412.03        76.05956
412.47        75.99754
412.92        76.08452
413.37        76.30611
413.81        76.52766
414.26        76.61079
414.71        76.50454
415.15        76.27861
415.60         75.9973
416.05        75.83942
416.49        75.86089
416.94        75.99329
417.39        76.16109
417.83        76.24494
418.28        76.20363
418.73        76.06319
419.17        75.88329
419.62        75.76282
420.07         75.7447
420.51        75.79984
420.96        75.87482
421.41        75.90999
421.85        75.86951
422.30        75.60999
422.74        75.26376
423.19        75.62004
423.64        76.47765
424.08         76.6538
424.53        76.07101
424.98        75.88143
425.42        76.16193
425.87        76.02278
426.31        75.58692
426.76        75.83048
427.21        76.57204
427.65        76.57917
428.10        75.92396
428.54         75.6872
428.99        75.93526
429.44        76.19414
429.88        76.32031
430.33        76.14211
430.77        75.75253
431.22         75.7729
431.66         76.1787
432.11        76.60678
432.56        77.01986
433.00        77.19267
433.45        76.90999
433.89        77.01322
434.34         77.5918
434.78        76.07254
435.23        76.04356
435.67        76.37216
436.12        77.40652
436.57        77.75315
437.01         77.3931
437.46        77.04536
437.90        77.17078
438.35        78.09541
438.79        77.30994
439.24        77.30102
439.68        77.34579
440.13        77.42665
440.57        77.51671
441.02        77.83096
441.46        78.19549
441.91        78.00565
442.35        77.38776
442.80        77.31744
443.24        77.72382
443.69        77.93916
444.13        77.89241
444.58        77.96471
445.02         78.1254
445.47        78.21921
445.91        78.25552
446.36        78.32568
446.80        78.41042
447.24        78.51307
447.69          78.704
448.13        78.66228
448.58        79.25095
449.02        79.23068
449.47        78.93994
449.91        78.79386
450.36        78.84722
450.80        78.81366
451.25        78.70928
451.69        78.68672
452.13        78.73779
452.58        78.75729
453.02        78.74545
453.47        78.74277
453.91        78.72992
454.36        78.79882
454.80         78.8641
455.24        78.54523
455.69        77.95735
456.13        77.61641
456.58        77.70001
457.02        77.34159
457.46        77.87365
457.91        77.83466
458.35        77.36337
458.79        77.15617
459.24        77.15382
459.68        77.04591
460.13         76.8753
460.57         76.6142
461.01        76.63918
461.46        76.46227
461.90         76.5404
462.34        76.35765
462.79        76.86275
463.23         76.7151
463.68        76.26363
464.12         75.9073
464.56        75.77973
465.01        76.02194
465.45        76.34367
465.89        76.36255
466.34        76.15376
466.78         75.7873
467.22        75.25436
467.67        76.08439
468.11         75.2565
468.55        75.27833
468.99        75.25777
469.44        75.28921
469.88        75.34833
470.32        75.41935
470.77        75.48499
471.21        75.47039
471.65        75.36469
472.10        75.20413
472.54        74.98677
472.98        74.80333
473.42        74.69013
473.87        74.50112
474.31        74.25356
474.75        74.44347
475.20        74.89492
475.64        74.68314
476.08        73.91363
476.52         73.7343
476.97        74.22654
477.41        74.17038
477.85        74.19236
478.29        74.73109
478.74        74.18465
479.18        73.55912
479.62        74.16293
480.06         74.1414
480.50        74.07715
480.95         73.9315
481.39        73.62109
481.83        74.36983
482.27        73.98254
482.72        73.67559
483.16        74.12618
483.60        73.78609
484.04        73.89697
484.48        73.74282
484.93        73.81827
485.37        73.74837
485.81        73.95691
486.25        74.21651
486.69        74.80562
487.14        73.60829
487.58        73.21783
488.02         73.8515
488.46        73.73007
488.90        74.26537
489.34        73.09624
489.79        73.19212
490.23         73.2758
490.67        73.42293
491.11        73.35965
491.55         73.2399
491.99        73.12222
492.43        73.09021
492.88        73.16782
493.32        73.29174
493.76        73.36488
494.20        73.39619
494.64        73.40067
495.08        73.13242
495.52        72.75686
495.96        73.13999
496.41        74.04724
496.85        73.96646
497.29        73.04594
497.73        72.87543
498.17        73.45588
498.61        73.62159
499.05        73.32333
499.49        73.02416
499.93        72.82114
500.37        72.85359
500.82        73.14806
501.26        72.76507
501.70        73.71395
502.14        72.90211
502.58        73.49885
503.02        73.43881
503.46        73.19614
503.90        72.91982
504.34         72.6044
504.78        72.47892
505.22        72.52712
505.66        72.61098
506.10        72.70256
506.54        72.82943
506.98         72.9587
507.42        73.11752
507.86        73.20569
508.30        73.16596
508.74        73.20127
509.18        73.11934
509.62        73.01308
510.06        72.92538
510.50        72.87436
510.94        72.85285
511.38        72.84408
511.82        72.82081
512.26        72.77444
512.70        72.71721
513.14        72.67242
513.58        72.64732
514.02        72.64394
514.46        72.70885
514.90        72.82652
515.34        72.71508
515.78        72.78457
516.22        72.70538
516.66        72.64386
517.10        72.65643
517.54         72.7523
517.98        72.90038
518.42         73.0332
518.86        73.05361
519.30        72.94382
519.74        72.74723
520.18        72.52461
520.62        72.36909
521.06        72.31064
521.50        72.31992
521.93        72.38902
522.37        72.48831
522.81        72.60303
523.25        72.73579
523.69        72.84987
524.13        72.88659
524.57         72.8379
525.01        72.71918
525.45        72.57563
525.89        72.48355
526.32        72.45806
526.76        72.49267
527.20        72.55546
527.64        72.60203
528.08        72.61565
528.52        72.60594
528.96        72.58488
529.40        72.56983
529.83        72.55816
530.27        72.55779
530.71        72.54129
531.15        72.47871
531.59        72.36963
532.03        72.22761
532.46        72.08885
532.90        72.03303
533.34        72.06578
533.78        72.16045
534.22        72.26701
534.66         72.3087
535.09        72.25941
535.53        72.16755
535.97        72.05164
536.41        71.95792
536.85        71.90523
537.28         71.8829
537.72        71.89388
538.16        71.93386
538.60        71.99799
539.04        72.09601
539.47        72.18587
539.91        72.26064
540.35        72.29728
540.79        72.28313
541.22        72.20468
541.66         72.2193
542.10        72.08015
542.54        71.97945
542.97        71.85593
543.41        71.84087
543.85        71.93866
544.29        71.89352
544.72        72.07468
545.16         72.0921
545.60        72.04094
546.04        71.93913
546.47        71.82278
546.91        71.72686
547.35        71.67278
547.79         71.7127
548.22        71.78891
548.66        71.79909
549.10        71.73381
549.53        71.72681
549.97        71.79977
550.41        71.87048
550.84         71.9266
551.28        72.05785
551.72        72.21816
552.15         72.1897
552.59        71.95724
553.03        71.99045
553.46        71.60725
553.90        71.58947
554.34        71.71497
554.77        71.98615
555.21        72.28835
555.65         72.2988
556.08        72.19593
556.52        71.90531
556.96        71.59111
557.39        71.45802
557.83        71.52985
558.27        71.57603
558.70        71.56996
559.14        71.62641
559.57        71.70509
560.01         71.7853
560.45        71.83555
560.88         71.7588
561.32        71.64439
561.75        71.65107
562.19        71.77335
562.63        71.76713
563.06        71.62991
563.50        71.52805
563.93        71.47994
564.37        71.50383
564.80        71.56946
565.24        71.68993
565.68        71.81937
566.11        71.87641
566.55        71.88506
566.98        71.89294
567.42        71.91354
567.85        71.86714
568.29        71.82054
568.72        71.71621
569.16        71.60983
569.60         71.6934
570.03        71.97903
570.47        71.78555
570.90        71.86436
571.34        72.32281
571.77         72.0674
572.21         71.9041
572.64        72.19176
573.08        71.52043
573.51        71.23871
573.95        71.54146
574.38        72.07559
574.82         71.7115
575.25        71.77177
575.69        71.80843
576.12        71.75991
576.56        71.71905
576.99         71.9129
577.42          72.104
577.86         71.5696
578.29         72.2304
578.73        71.70581
579.16        71.78635
579.60        71.78592
580.03        71.74111
580.47        71.49089
580.90         72.1491
581.33          72.098
581.77        72.21161
582.20        71.78496
582.64        72.02968
583.07        71.64762
583.51        71.59901
583.94        71.74847
584.37        71.84901
584.81        71.92241
585.24        71.87361
585.68        71.77609
586.11        71.91267
586.54        72.02976
586.98        71.62844
587.41        71.69734
587.85         71.7989
588.28        71.66846
588.71        71.57089
589.15          72.186
589.58        71.36937
590.01        71.76685
590.45        72.15981
590.88        71.43682
591.31         71.4435
591.75        71.55796
592.18        71.55122
592.61        71.67215
593.05        71.30109
593.48        72.28955
593.91        71.91992
594.35        71.56816
594.78        71.72527
595.21        71.42564
595.65        71.33813
596.08        71.05357
596.51        71.61578
596.94        71.25064
597.38        71.44492
597.81        71.75176
598.24        71.40485
598.68        71.78902
599.11        71.59322
599.54        71.77454
599.97        71.61417
600.41        71.93898
600.84        71.88302
601.27         71.6291
601.70         71.4455
602.14         70.7038
602.57        71.16235
603.00        71.70365
603.43        71.76556
603.87        71.53316
604.30         71.3669
604.73        71.29993
605.16        71.69463
605.60        71.64039
606.03        71.75662
606.46          71.763
606.89        71.77697
607.32        71.89075
607.76        72.07758
608.19        71.82855
608.62        71.67985
609.05        71.55413
609.48         71.5113
609.92        71.49132
610.35        71.77286
610.78        71.40405
611.21        71.45858
611.64        71.76646
612.07        71.82153
612.50        71.65906
612.94        71.58082
613.37        71.64144
613.80        71.58372
614.23        71.51147
614.66        71.51743
615.09        71.56914
615.52        71.58105
615.96        71.61227
616.39         71.1579
616.82         71.5088
617.25        71.47476
617.68        71.55278
618.11        71.44299
618.54        71.28737
618.97        71.28559
619.40        71.33175
619.84        71.63839
620.27        71.42491
620.70        71.28467
621.13         70.9458
621.56        71.48131
621.99        71.15759
622.42        71.00942
622.85         71.2566
623.28        71.22817
623.71        71.53384
624.14        71.07047
624.57        70.97302
625.00        71.12067
625.43        71.07124
625.86        71.18002
626.29        71.04927
626.72        71.85906
627.15        71.30812
627.58        71.11795
628.01        71.22898
628.44        70.99405
628.87        70.62852
629.30        71.31187
629.73        71.16367
630.16        70.73078
630.59        71.06486
631.02        71.08272
631.45         71.2064
631.88        71.28398
632.31        71.34965
632.74        71.07286
633.17        71.17882
633.60        71.13886
634.03         71.1673
634.46        71.23997
634.89        71.31526
635.32        71.29621
635.75        71.16114
636.18         70.9881
636.61        70.82368
637.04        70.65968
637.47        70.55782
637.89        70.68773
638.32        70.96701
638.75         71.1336
639.18        71.14798
639.61        71.14439
640.04        71.13245
640.47        71.09299
640.90        71.04089
641.33        70.94756
641.76        70.82798
642.18        70.88828
642.61        70.85216
643.04        70.92694
643.47        71.00259
643.90        71.03345
644.33        71.00408
644.76        70.93714
645.18        70.84641
645.61        70.73861
646.04        70.62634
646.47        70.50236
646.90        70.40218
647.33        70.37789
647.75        70.44083
648.18        70.59892
648.61         70.7776
649.04        70.83958
649.47        70.77373
649.89        70.61726
650.32        70.46391
650.75        70.51195
651.18        70.72933
651.61        70.89367
652.03         70.9153
652.46        70.76743
652.89        70.60053
653.32        70.42202
653.74        70.62528
654.17        71.01087
654.60        71.07457
655.03        70.77737
655.46        70.91395
655.88        71.55854
656.31        72.91048
656.74        73.31705
657.16        71.85592
657.59        71.06251
658.02        70.92911
658.45        71.32142
658.87        71.30148
659.30        71.57648
659.73        70.94446
660.15        70.61485
660.58        70.83694
661.01        70.86689
661.44        70.81843
661.86        70.77937
662.29        70.76431
662.72        70.72031
663.14        70.70609
663.57        70.88676
664.00        71.19273
664.42        71.31322
664.85        71.22671
665.27        71.09481
665.70        70.96031
666.13        70.83789
666.55        70.75471
666.98        70.69479
667.41        70.67186
667.83        70.70594
668.26        70.78729
668.69        70.92708
669.11        71.06905
669.54         71.1383
669.96         71.1281
670.39        70.96313
670.82        70.75105
671.24        70.84781
671.67         71.1852
672.09        71.29739
672.52        71.17657
672.94        71.06062
673.37        70.99772
673.80        70.96219
674.22        70.96056
674.65        70.90182
675.07        70.80969
675.50        70.75104
675.92        70.75109
676.35        70.78333
676.77        70.85162
677.20        70.96465
677.62        71.09474
678.05        71.17181
678.47        71.17741
678.90        71.14603
679.32        71.13354
679.75        71.12499
680.17        71.10892
680.60        71.30453
681.02        71.71281
681.45        71.15044
681.87        71.49108
682.30        71.20061
682.72        70.93764
683.15        70.92683
683.57        71.16257
684.00        71.25828
684.42        71.18691
684.85        71.22925
685.27        71.36032
685.70        71.44489
686.12        71.46457
686.54        71.42631
686.97        71.34761
687.39        71.38433
687.82        71.51218
688.24        71.40021
688.66        71.38269
689.09        71.27203
689.51        71.22514
689.94        71.23386
690.36        71.31564
690.78        71.45782
691.21         71.6088
691.63        71.68204
692.06        71.66023
692.48        71.56606
692.90        71.44256
693.33        71.34597
693.75        71.29878
694.17        71.29219
694.60         71.2954
695.02        71.28952
695.44        71.25651
695.87        71.20952
696.29        71.18266
696.71        71.22515
697.14        71.32401
697.56        71.47575
697.98         71.6179
698.41        71.71333
698.83        71.71788
699.25        71.68393
699.68        71.65002
700.10        71.62857
700.52         71.6015
700.94        72.00933
701.37        71.96975
701.79        72.04176
702.21        71.94479
702.64        71.74607
703.06        71.51813
703.48        71.40794
703.90        71.46148
704.33        71.62701
704.75        71.82792
705.17         71.9129
705.59        71.84193
706.01        71.63396
706.44        71.39912
706.86        71.41849
707.28        71.52187
707.70        71.88338
708.12        72.30405
708.55        72.36628
708.97        72.10888
709.39         72.0526
709.81        72.21913
710.23        72.22941
710.66        72.08317
711.08        72.04437
711.50        72.08289
711.92         72.0481
712.34        71.93506
712.76        71.79607
713.19        71.66442
713.61        71.63871
714.03        71.71777
714.45        71.86901
714.87        72.04786
715.29        72.19115
715.71        72.27673
716.13        72.31757
716.56        72.31211
716.98        72.33905
717.40        72.38988
717.82        72.45381
718.24        72.51825
718.66         72.5668
719.08        72.59332
719.50        72.59737
719.92         72.6019
720.34        72.64133
720.76        72.71727
721.19        72.81116
721.61        72.88362
722.03        72.83816
722.45        72.66328
722.87        72.39409
723.29        72.11903
723.71        71.97927
724.13         72.0144
724.55        72.18899
724.97        72.42991
725.39        72.61296
725.81        72.69778
726.23        72.71281
726.65        72.70618
727.07        72.75829
727.49        72.88428
727.91        73.04724
728.33        73.19334
728.75        73.23904
729.17        73.16704
729.59        73.01655
730.01        72.83443
730.43        72.69455
730.85        72.62064
731.27        72.58312
731.69        72.58934
732.10        72.65265
732.52        72.74782
732.94        72.92384
733.36        73.12355
733.78        73.13335
734.20        72.91896
734.62        73.04031
735.04        72.43126
735.46        72.64657
735.88        73.20438
736.30         73.1031
736.72        72.44734
737.13        72.47665
737.55        73.11085
737.97        73.27782
738.39        72.95856
738.81        72.78554
739.23        72.82954
739.65        72.97478
740.06         73.1356
740.48        73.21139
740.90         73.1562
741.32        73.16402
741.74        73.14639
742.16        73.16698
742.57        73.20541
742.99        73.26085
743.41        73.32311
743.83        73.35291
744.25        73.34132
744.67        73.29202
745.08        73.24503
745.50        73.22041
745.92        73.24704
746.34        73.32671
746.75        73.40942
747.17        73.42577
747.59        73.36076
748.01        73.17355
748.42         72.9774
748.84         73.0285
749.26        73.28259
749.68        73.54833
750.09        73.70198
750.51        73.48752
750.93        73.04651
751.35         73.0335
751.76        73.40816
752.18         73.4981
752.60        73.27201
753.01        73.19423
753.43        73.30411
753.85        73.31763
754.27        73.19154
754.68        73.59863
755.10        73.60118
755.52        73.47513
755.93        73.71819
756.35        73.74977
756.77        73.75654
757.18        73.78284
757.60        73.86825
758.02        73.70279
758.43        73.39687
758.85        73.89129
759.26        74.35906
759.68        74.42242
760.10        74.07401
760.51        72.95625
760.93        73.52315
761.34        73.73518
761.76        73.98649
762.18         74.1913
762.59        74.26211
763.01        74.18457
763.42        74.07082
763.84        73.97609
764.26        73.97151
764.67        74.17251
765.09         74.4788
765.50        74.35254
765.92        73.91461
766.33        73.79209
766.75        73.97631
767.16        74.07836
767.58        74.03674
768.00         74.2091
768.41        74.53495
768.83         74.6338
769.24        74.52716
769.66         74.3763
770.07        74.23909
770.49        74.42368
770.90        74.81464
771.32        74.71413
771.73        74.22218
772.15         74.0452
772.56        74.22803
772.97        74.43365
773.39        74.55026
773.80        74.49837
774.22        74.30962
774.63        74.39641
775.05        74.70955
775.46        74.88081
775.88        74.85303
776.29        74.89945
776.70        75.01444
777.12        75.07653
777.53        75.10649
777.95        75.12365
778.36        75.15321
778.77        75.21151
779.19        75.29725
779.60        75.40295
780.02        75.50922
780.43        75.59022
780.84        75.60889
781.26        75.64478
781.67        75.74217
782.09        75.61104
782.50        75.20743
782.91        75.73086
783.33        75.21866
783.74        75.25346
784.15        75.23609
784.57         75.2596
784.98        75.31808
785.39        75.36981
785.81        75.43807
786.22        75.59768
786.63        75.80661
787.04        75.94369
787.46        76.01165
787.87        76.05898
788.28        76.08071
788.70        76.07925
789.11        76.04836
789.52        75.89318
789.93        75.70901
790.35        75.88007
790.76        76.34514
791.17        76.48379
791.58        76.27821
792.00        76.25851
792.41        76.46043
792.82        76.40745
793.23        76.19631
793.65        76.42149
794.06        76.98254
794.47        77.18623
794.88        77.00263
795.29         76.6966
795.71        76.74926
796.12        76.36028
796.53        75.81754
796.94        75.87988
797.35        76.49845
797.76        76.81986
798.18        76.76663
798.59        76.86291
799.00        77.09399
799.41        77.10381
799.82        76.90592
800.23        76.74017
800.64        76.64027
801.06        76.51083
801.47        76.42576
801.88        76.42163
802.29        76.50788
802.70        76.70374
803.11        76.91983
803.52        76.98833
803.93        76.86682
804.34        76.58188
804.75        76.29351
805.17        76.22063
805.58          76.438
805.99        76.98058
806.40        77.60889
806.81        77.61368
807.22        77.05765
807.63        76.73464
808.04        76.76685
808.45        76.76449
808.86        76.75908
809.27        77.05953
809.68        77.55009
810.09        77.82973
810.50        77.82167
810.91        77.64674
811.32        77.40092
811.73        77.25607
812.14        77.27098
812.55        77.33652
812.96        77.41518
813.37        77.56982
813.78        77.72182
814.19        77.63912
814.60        77.38992
815.01        77.29555
815.42        77.38966
815.83         77.5022
816.24        77.60938
816.65        77.75025
817.05         77.9078
817.46        78.02147
817.87        78.11733
818.28        78.18498
818.69        78.22182
819.10        78.23492
819.51        78.20809
819.92        78.11441
820.33        77.96544
820.74        77.78325
821.14        77.62317
821.55         77.6017
821.96        77.71642
822.37        77.93162
822.78        78.18713
823.19        78.36795
823.60        78.42871
824.00        78.42484
824.41        78.31094
824.82        78.11542
825.23        77.86394
825.64        77.55945
826.04        77.31701
826.45        77.28324
826.86        77.49809
827.27        77.92205
827.68        78.41322
828.08          78.758
828.49        78.81665
828.90        78.67636
829.31        78.45301
829.72        78.35375
830.12        78.46167
830.53        78.66592
830.94        78.88342
831.35         78.9421
831.75        78.81985
832.16        78.52702
832.57        78.19235
832.97        77.99147
833.38        77.97053
833.79        78.08434
834.20        78.24259
834.60        78.30609
835.01        78.25372
835.42        78.11808
835.82        77.98982
836.23        77.93772
836.64        78.01572
837.04        78.21322
837.45        78.40981
837.86        78.51577
838.26        78.51796
838.67         78.4345
839.08        78.35395
839.48        78.39974
839.89        78.59808
840.29        78.90088
840.70        79.23756
841.11        79.50455
841.51         79.6842
841.92        79.76289
842.33         79.7773
842.73        79.78433
843.14        79.75253
843.54        79.69749
843.95        79.61014
844.35        79.50227
844.76        79.37054
845.17        79.22938
845.57        79.10304
845.98        78.98161
846.38         78.8922
846.79        78.80949
847.19        78.74666
847.60        78.66429
848.00        78.58374
848.41        78.49007
848.81        78.42242
849.22        78.36143
849.62        78.35385
850.03        78.38244
850.43        78.48025
850.84        78.62041
851.24         78.8394
851.65        79.04648
852.05        79.31375
852.46        79.62625
852.86        79.94279
853.27        80.27919
853.67        80.41757
854.07        80.25098
854.48        79.73749
854.88        78.95894
855.29        78.06927
855.69        77.60492
856.10        77.63535
856.50        78.12251
856.90        78.75904
857.31        79.06696
857.71        78.96337
858.12        78.51956
858.52        77.98781
858.92        77.65961
859.33        77.60455
859.73        77.75224
860.13        77.93911
860.54        77.91681
860.94        77.65711
861.34        77.23941
861.75        76.75026
862.15        76.36551
862.55         76.1199
862.96        75.98083
863.36        75.93549
863.76        75.95397
864.17        76.00315
864.57        76.08983
864.97        76.21722
865.38        76.36646
865.78        76.56976
866.18        76.80374
866.58        76.95528
866.99         76.8577
867.39         76.5248
867.79        75.97964
868.19        75.44317
868.60        75.19993
869.00        75.29816
869.40         75.7111
869.80        76.22314
870.21        76.42896
870.61        76.29427
871.01         75.8815
871.41        75.45167
871.81        75.38196
872.22        75.71609
872.62        76.36626
873.02        77.11284
873.42        77.53291
873.82        77.49298
874.22        77.15163
874.63        76.72862
875.03        76.50322
875.43        76.55756
875.83        76.77366
876.23        77.08347
876.63        77.38313
877.03        77.60765
877.44        77.78508
877.84        77.85696
878.24        77.68099
878.64        77.26999
879.04        76.70269
879.44         76.1399
879.84        75.80653
880.24        75.74911
880.64        75.90144
881.04        76.20565
881.44        76.55023
881.84        76.86387
882.24        77.14814
882.65        77.31646
883.05        77.34206
883.45        77.18066
883.85        76.86405
884.25        76.45809
884.65         76.0641
885.05         75.7272
885.45        75.44058
885.85        75.25387
886.25        75.24122
886.65        75.40823
887.05        75.72961
887.45        76.09844
887.85        76.35104
888.25        76.43425
888.65        76.36296
889.04        76.20068
889.44        76.10674
889.84        76.10679
890.24        76.17052
890.64         76.2076
891.04        76.07866
891.44        75.77313
891.84        75.35634
892.24        74.98055
892.64        74.87186
893.04        75.07598
893.44         75.5229
893.83        76.07083
894.23        76.42268
894.63        76.52467
895.03        76.44065
895.43        76.29609
895.83        76.30137
896.23        76.50269
896.63        76.81692
897.02        77.11645
897.42        77.26414
897.82        77.21567
898.22        77.04003
898.62        76.82084
899.01        76.70336
899.41        76.70909
899.81         76.7995
900.21        76.93944
900.61        77.06813
901.00        77.15666
901.40        77.26159
901.80        77.34932
902.20        77.37581
902.59        77.35078
902.99        77.24742
903.39        77.18013
903.79        77.32831
904.18        77.69427
904.58        78.21823
904.98         78.6939
905.38        78.82592
905.77        78.55785
906.17        77.98919
906.57        77.32237
906.96        76.92976
907.36        76.90297
907.76        77.17781
908.15        77.58472
908.55         77.7526
908.95        77.61639
909.34        77.25173
909.74        76.89846
910.14        76.87044
910.53         77.2293
910.93        77.83714
911.33        78.43629
911.72        78.60415
912.12        78.24467
912.52        77.55667
912.91        76.79011
913.31        76.31979
913.70         76.2283
914.10        76.39123
914.49        76.75022
914.89        77.12299
915.29        77.44056
915.68        77.74023
916.08        77.98189
916.47        78.09944
916.87        78.10307
917.26         77.9703
917.66        77.77898
918.05        77.63293
918.45        77.55742
918.84        77.56563
919.24        77.59332
919.64        77.61007
920.03        77.62327
920.42        77.64581
920.82        77.70569
921.21        77.83012
921.61        78.00632
922.00        78.22451
922.40        78.46456
922.79        78.78352
923.19        79.11904
923.58        79.46907
923.98        79.69984
924.37        79.67331
924.77        79.36121
925.16        78.80657
925.55        78.16299
925.95        77.69209
926.34        77.49705
926.74        77.52648
927.13        77.70744
927.52        77.80502
927.92         77.7794
928.31        77.66518
928.70        77.59986
929.10        77.78364
929.49        78.23614
929.89        78.83848
930.28         79.4275
930.67        79.60005
931.07        79.25394
931.46          78.564
931.85        77.74632
932.24        77.17224
932.64        76.95183
933.03        76.97717
933.42        77.18579
933.82        77.46176
934.21        77.75018
934.60         78.1042
934.99        78.44362
935.39        78.59974
935.78        78.58082
936.17        78.39173
936.56        78.19115
936.96        78.25912
937.35        78.69874
937.74        79.37919
938.13        80.09469
938.53        80.55637
938.92        80.69296
939.31        80.55908
939.70        80.29491
940.09        80.14402
940.49        80.15508
940.88        80.30601
941.27        80.40586
941.66        80.17031
942.05        79.56951
942.44        78.72257
942.84         77.9267
943.23        77.60033
943.62        77.87198
944.01        78.61374
944.40        79.53043
944.79         80.0881
945.18        80.11034
945.57        79.74129
945.97        79.18999
946.36        78.85306
946.75        78.80082
947.14        78.90465
947.53        79.04904
947.92        79.04859
948.31        78.84969
948.70         78.5551
949.09        78.22151
949.48        77.90991
949.87        77.65935
950.26        77.45112
950.65        77.32635
951.04        77.35857
951.43        77.54525
951.82        77.85125
952.21        78.19128
952.60        78.41411
952.99        78.46152
953.38        78.36485
953.77        78.15195
954.16        77.87456
954.55        77.56219
954.94        77.20487
955.33        76.84292
955.72        76.54765
956.11          76.335
956.50        76.19644
956.89        76.10033
957.28        75.96811
957.66        75.81625
958.05        75.68007
958.44        75.57082
958.83        75.49429
959.22        75.45744
959.61        75.40997
960.00        75.46996
960.39         75.8371
960.78        76.50351
961.16        77.42642
961.55        78.20712
961.94        78.28016
962.33        77.53472
962.72        76.20254
963.11        74.74042
963.49        73.81138
963.88        73.58714
964.27        73.90003
964.66        74.52392
965.04        75.05781
965.43        75.25314
965.82        75.26227
966.21         75.1992
966.60        75.24635
966.98        75.45539
967.37        75.69737
967.76         75.8688
968.15        75.78339
968.53        75.43385
968.92        74.94295
969.31        74.46062
969.69        74.17529
970.08        74.13374
970.47        74.26319
970.86         74.6486
971.24        75.42977
971.63        76.47001
972.02        77.68607
972.40        78.75436
972.79          79.107
973.17        78.77083
973.56        77.83686
973.95        76.72057
974.33        76.14091
974.72        76.31612
975.11        77.04957
975.49        77.99857
975.88         78.5939
976.26          78.658
976.65         78.3292
977.04        77.77428
977.42        77.26974
977.81        76.86443
978.19        76.43188
978.58        76.07615
978.96        75.94231
979.35        76.02572
979.74        76.41038
980.12        76.87803
980.51        76.79936
980.89        76.19633
981.28        75.12743
981.66        74.17391
982.05        74.40528
982.43        76.01824
982.82        78.56062
983.20        81.24718
983.59        82.74952
983.97        82.82914
984.35        81.77219
984.74        80.08952
985.12        78.73547
985.51        78.08102
985.89        77.93244
986.28        78.03688
986.66        78.06964
987.04        77.90969
987.43         77.6613
987.81        77.53667
988.20        77.75053
988.58        78.37151
988.96        79.25873
989.35        79.98776
989.73         80.0493
990.12        79.25828
990.50        77.65636
990.88        75.74534
991.27        74.74187
991.65        75.11467
992.03        76.55029
992.42         78.0471
992.80        78.57224
993.18        77.83412
993.56        76.01278
993.95         73.8428
994.33        73.06913
994.71        74.35182
995.10        76.76421
995.48        79.07725
995.86        80.00159
996.24        79.44526
996.63          77.726
997.01        75.48336
997.39        74.08576
997.77        74.18331
998.15        75.35003
998.54        76.84294
998.92        77.64916
999.30        77.52962
999.68        76.84135
1000.06        75.99516
1000.45        75.66375
1000.83        76.11855
1001.21        76.96014
1001.59        77.90846
1001.97        78.60823
1002.35        78.96491
1002.73        79.21377
1003.12         79.1727
1003.50        78.39232
1003.88         76.9902
1004.26        75.14837
1004.64         73.7148
1005.02        73.76079
1005.40        75.33321
1005.78        78.15067
1006.16        81.17884
1006.54          82.491
1006.92        81.53619
1007.30        78.86832
1007.69        75.69847
1008.07        74.01505
1008.45        74.45767
1008.83         76.3518
1009.21        78.76458
1009.59        80.37469
1009.97        80.80794
1010.35        80.45081
1010.73         79.5946
1011.11        78.94095
1011.49        78.87408
1011.86        79.13237
1012.24         79.4369
1012.62         79.7252
1013.00        79.95786
1013.38        80.32366
1013.76        80.62321
1014.14        80.46548
1014.52        79.77024
1014.90        78.48148
1015.28        77.20248
1015.66        77.13293
1016.04        78.53625
1016.41        81.17225
1016.79          83.595
1017.17        84.01366
1017.55        82.21208
1017.93        78.87849
1018.31        75.44367
1018.69        74.17028
1019.06        75.71799
1019.44        79.49149
1019.82        84.44816
1020.20        88.17464
1020.58        89.45036
1020.95        88.82597
1021.33        87.07021
1021.71        85.09383
1022.09          83.256
1022.46        81.34024
1022.84        79.36337
1023.22        77.31943
1023.60         75.2624
1023.97         73.0816
1024.35        71.73277
1024.73         72.5503
