SpectraSmart Spectrum 2.9.0.0
--------- Device Information -----------
Spectrum Name :  反射率_0
Saving Time :  2024/04/27 23:45:16
Spectro-Module Model Name : SE2030-DUVN
Spectro-Module Serial Number : OS361AC55029948
Wavelength Start : 200
Wavelength End : 1025
Wavelength Unit : Wavelength(nm)
Spectrum Unit : Reflectance(%)
-----------Spectrum Setting ------------
Integration Time : 20ms
Average : 10
Boxcar : 0
Background removal :  enabled
linearity correction :  enabled
SC :  disabled
Intensity correction :  disabled
DWT denoise :  enabled
savitzky-golay :  disabled
FFT :  disabled
Running average :  disabled
Kalman :  disabled
High pass :  disabled
---------------BEGIN--------------------
Wavelength(nm)             Reflectance(%)
200.29               0
200.75         132.696
201.21        118.9078
201.67         102.216
202.13        91.52276
202.58        84.99065
203.04        79.82434
203.50        77.35075
203.96         80.1278
204.42        86.88206
204.88          95.608
205.34        103.4828
205.80        108.3571
206.26         110.493
206.72        110.2472
207.18        107.6887
207.64        105.5119
208.10        105.8489
208.55        107.3196
209.01        107.6311
209.47        105.5491
209.93        99.79229
210.39          85.119
210.85        39.45669
211.31         -25.503
211.77        32.93212
212.23        76.91415
212.69        93.43196
213.14        99.07632
213.60        99.56776
214.06        97.27192
214.52        91.22815
214.98        84.03996
215.44        81.72999
215.90        82.12709
216.36        83.68481
216.81         85.8683
217.27         88.3429
217.73        91.30447
218.19         93.4615
218.65        92.17459
219.11        86.70842
219.57         77.5764
220.02        66.18069
220.48        58.25767
220.94        56.59918
221.40        59.57362
221.86        65.64305
222.32        73.07825
222.77        80.60448
223.23        87.80455
223.69        93.49003
224.15        96.52206
224.61        97.10327
225.06        95.66835
225.52        92.89794
225.98        90.06076
226.44        88.11877
226.90         86.8746
227.36        86.25362
227.81         86.0127
228.27        86.11853
228.73        86.50854
229.19         86.9075
229.65        86.72128
230.10        85.74255
230.56        84.47024
231.02        83.18453
231.48        82.38331
231.93        82.12279
232.39        82.40585
232.85        83.14832
233.31        84.37206
233.77        85.91589
234.22        87.63294
234.68        89.28662
235.14         90.5846
235.60        91.51009
236.05        92.23798
236.51        92.68713
236.97        92.77873
237.43        92.55641
237.88        92.22412
238.34         91.9511
238.80        92.59084
239.26        94.52573
239.71        98.50995
240.17        104.7447
240.63        110.3471
241.08         111.065
241.54        107.7903
242.00         103.981
242.46        101.3981
242.91        99.74871
243.37        97.68784
243.83        94.74711
244.28        92.75281
244.74        95.37199
245.20        101.6369
245.66         106.138
246.11        107.5504
246.57        106.9293
247.03        104.0187
247.48        98.65285
247.94        94.07254
248.40        94.54693
248.85        98.53674
249.31        103.8191
249.77         108.083
250.22        110.9741
250.68        113.4109
251.14        115.5932
251.59        118.1436
252.05        121.7134
252.51        126.3865
252.96        132.3683
253.42        137.8277
253.88        139.8284
254.33        138.6534
254.79        136.0662
255.25        131.9634
255.70         126.796
256.16        122.0794
256.62        118.9165
257.07        118.6517
257.53        121.0594
257.99         124.032
258.44        125.9894
258.90        126.5389
259.35        125.2625
259.81        123.6296
260.27        121.6071
260.72        119.2858
261.18        117.4482
261.63         115.444
262.09        114.0274
262.55        113.2454
263.00        112.7854
263.46        112.7706
263.91        112.4408
264.37        111.4686
264.83        109.7291
265.28        107.4393
265.74        105.1901
266.19        103.2088
266.65        101.7119
267.11        100.4561
267.56        99.28365
268.02        98.13661
268.47        96.89404
268.93        95.63754
269.38        94.35107
269.84        93.07311
270.30        91.78716
270.75        90.46384
271.21        89.06293
271.66        87.44037
272.12        85.63696
272.57        83.64996
273.03        81.70786
273.48        80.01653
273.94        78.71802
274.39        77.66566
274.85        76.77249
275.31        75.71431
275.76        74.40264
276.22        73.02993
276.67        71.65398
277.13        70.58719
277.58        69.75172
278.04        69.11543
278.49        68.45876
278.95        67.70068
279.40        66.70972
279.86        65.65254
280.31        64.48861
280.77        63.38057
281.22        62.29548
281.68        61.31557
282.13        60.39647
282.59        59.62999
283.04        58.94926
283.50        58.38556
283.95        57.87951
284.41        57.44438
284.86        57.03431
285.32        56.70793
285.77        56.38712
286.22        56.06161
286.68        55.74752
287.13        55.37656
287.59         55.0653
288.04        54.86724
288.50        54.83423
288.95        54.89414
289.41        54.95266
289.86        54.77053
290.32        54.37101
290.77        53.81138
291.22        53.30916
291.68        53.16984
292.13        53.43402
292.59         54.0468
293.04        54.81898
293.50        55.50123
293.95        56.01175
294.40        56.44285
294.86        56.95261
295.31        57.76727
295.77        58.94741
296.22        60.39083
296.68         61.9414
297.13        63.31907
297.58        64.45462
298.04        65.43648
298.49        66.39281
298.95        67.59039
299.40        69.06322
299.85        70.73265
300.31        72.48371
300.76         74.0733
301.21        75.43762
301.67        76.67031
302.12        77.78854
302.58        78.93659
303.03        80.11076
303.48         81.3143
303.94        82.59267
304.39        83.90826
304.84        85.28931
305.30        86.75472
305.75        88.23106
306.20        89.71379
306.66        91.20715
307.11        92.64746
307.57        94.04964
308.02        95.30369
308.47        96.41971
308.93        97.43317
309.38        98.33796
309.83        99.24066
310.29        100.1899
310.74        101.1404
311.19        102.0841
311.65        102.9775
312.10        103.7656
312.55        104.4571
313.00        105.0851
313.46        105.7092
313.91        106.3231
314.36        106.9355
314.82        107.4682
315.27        107.7909
315.72        107.9016
316.18        107.8742
316.63        107.8514
317.08        108.0958
317.53        108.6559
317.99        109.4314
318.44        110.2799
318.89        110.9405
319.35        111.3294
319.80        111.5324
320.25        111.6004
320.70        111.6319
321.16        111.6626
321.61        111.6737
322.06        111.7102
322.51        111.8625
322.97        112.1233
323.42        112.5222
323.87        112.9365
324.32        113.1721
324.78         113.171
325.23        113.0284
325.68        112.8571
326.13         112.882
326.59        113.1365
327.04        113.6019
327.49        114.1535
327.94        114.6229
328.39        114.9544
328.85        115.1625
329.30        115.3636
329.75        115.5861
330.20        115.8542
330.66        116.1049
331.11        116.4034
331.56        116.7377
332.01        117.1134
332.46         117.539
332.92        117.9359
333.37        118.3257
333.82        118.6428
334.27        118.8982
334.72        119.1458
335.17        119.4797
335.63        119.8974
336.08        120.4357
336.53        121.0044
336.98        121.4978
337.43        121.8904
337.88        122.2121
338.34        122.5133
338.79        122.9409
339.24         123.496
339.69         124.122
340.14        124.7449
340.59        125.2474
341.05        125.6017
341.50         125.875
341.95        126.0801
342.40        126.2493
342.85        126.4199
343.30        126.5822
343.75        126.8313
344.20        127.3209
344.66        128.0565
345.11        128.9646
345.56        129.8616
346.01        130.4469
346.46        130.6532
346.91        130.5806
347.36        130.3756
347.81        130.2726
348.26         130.344
348.72        130.5163
349.17        130.7533
349.62        131.0219
350.07        131.2808
350.52        131.5421
350.97          131.73
351.42         131.713
351.87        131.4778
352.32        131.0712
352.77        130.5857
353.22        130.1759
353.67        129.8786
354.13        129.6476
354.58        129.4305
355.03        129.2057
355.48        128.9404
355.93        128.6482
356.38        128.2466
356.83        127.5996
357.28        126.7111
357.73        125.6495
358.18        124.5661
358.63        123.6952
359.08        123.0941
359.53        122.6894
359.98        122.3927
360.43        122.0587
360.88        121.6221
361.33        121.1081
361.78        120.5066
362.23        119.7976
362.68        118.9879
363.13         118.098
363.58        117.1593
364.03         116.155
364.48        115.2363
364.93        114.3117
365.38        113.4347
365.83        112.6186
366.28        111.8592
366.73        111.1465
367.18         110.451
367.63        109.7247
368.08        108.9577
368.53        108.1712
368.98        107.3725
369.43        106.5755
369.88        105.7932
370.33        105.0194
370.78        104.2961
371.23        103.6925
371.68        103.2081
372.13        102.8106
372.58        102.4169
373.03        101.8922
373.48        101.2055
373.93        100.4046
374.38        99.55123
374.83        98.74144
375.28        98.01443
375.72        97.33234
376.17        96.73125
376.62        96.19546
377.07         95.7076
377.52        95.24795
377.97        94.80202
378.42        94.34476
378.87        93.86473
379.32        93.38127
379.77        92.84072
380.22        92.15798
380.67        91.33945
381.11        90.42464
381.56        89.56435
382.01        89.01829
382.46        88.84384
382.91        88.96172
383.36        89.18198
383.81        89.20372
384.26        88.94327
384.71        88.47452
385.15        87.91258
385.60        87.50756
386.05        87.29532
386.50        87.19862
386.95        87.10654
387.40        86.85924
387.85         86.4352
388.29        85.86165
388.74        85.33778
389.19        84.93525
389.64         84.6613
390.09        84.44666
390.54        84.24445
390.98        83.96408
391.43        83.64544
391.88        83.33624
392.33        83.00516
392.78        82.63293
393.23        82.25312
393.67        81.72702
394.12        81.28208
394.57        81.35359
395.02        81.68582
395.47        81.71351
395.91        81.36393
396.36        81.14642
396.81        81.08121
397.26        80.85612
397.71        80.51359
398.15        80.27123
398.60        80.23006
399.05        80.14118
399.50        80.03249
399.95        80.19427
400.39        80.49946
400.84        80.34779
401.29        79.77944
401.74        79.26591
402.18        78.94335
402.63        78.79034
403.08        78.76662
403.53        78.63903
403.97        78.39045
404.42        78.23045
404.87        78.15348
405.32        78.09428
405.76        78.03426
406.21        77.90067
406.66        77.72293
407.11        77.73904
407.55        77.86339
408.00        77.66683
408.45        77.18716
408.90        76.58829
409.34        76.07461
409.79        76.14133
410.24        76.63407
410.68        76.80642
411.13        76.58524
411.58        76.41113
412.03        76.35063
412.47        76.32001
412.92        76.31384
413.37        76.37062
413.81        76.43037
414.26        76.46795
414.71        76.45363
415.15        76.41058
415.60        76.35129
416.05        76.36581
416.49        76.47424
416.94        76.63691
417.39        76.78633
417.83        76.81678
418.28        76.70234
418.73        76.46279
419.17        76.19644
419.62        76.06796
420.07        76.12567
420.51        76.31901
420.96        76.54025
421.41         76.6306
421.85        76.53676
422.30        76.18236
422.74        75.73426
423.19        75.95899
423.64        76.67837
424.08        76.88728
424.53        76.50909
424.98        76.37257
425.42        76.49588
425.87        76.82581
426.31        76.22701
426.76        76.48621
427.21        77.07939
427.65        76.95535
428.10        76.25858
428.54        76.08115
428.99         76.5146
429.44        77.08099
429.88        77.50028
430.33        77.41615
430.77        76.86153
431.22        76.39198
431.66        76.16561
432.11        76.29842
432.56        76.79494
433.00        77.31159
433.45        77.48311
433.89        77.46025
434.34        77.38792
434.78        76.51797
435.23        76.30379
435.67        77.08923
436.12        78.13201
436.57        78.28091
437.01        77.40803
437.46        77.48972
437.90        78.00728
438.35        78.41909
438.79         78.4977
439.24        78.53008
439.68        78.55762
440.13        78.53528
440.57        78.50307
441.02        78.70434
441.46        78.98627
441.91        78.74953
442.35        78.12293
442.80        78.14696
443.24        78.79234
443.69         78.9377
444.13        78.59885
444.58        78.68314
445.02        78.93364
445.47        79.15611
445.91        79.23489
446.36        79.29939
446.80        79.31985
447.24        79.30602
447.69        79.32515
448.13        79.19836
448.58        79.43304
449.02        79.38123
449.47        79.24667
449.91        79.22057
450.36        79.33735
450.80        79.44694
451.25        79.52852
451.69        79.60046
452.13        79.63612
452.58        79.56429
453.02        79.43452
453.47        79.32351
453.91        79.22569
454.36        79.30849
454.80        79.46738
455.24         78.8952
455.69        78.44337
456.13        77.98596
456.58        77.87711
457.02         77.8851
457.46          78.258
457.91         78.1597
458.35        77.97727
458.79        77.86704
459.24        77.95519
459.68        77.88139
460.13         77.6372
460.57        77.52159
461.01        77.46702
461.46        76.78217
461.90        76.75273
462.34        76.66108
462.79        77.26658
463.23        77.32983
463.68        76.99007
464.12        76.70591
464.56        76.57894
465.01        76.63358
465.45        76.69495
465.89        76.71349
466.34        76.70266
466.78        76.38788
467.22        75.77269
467.67        76.36124
468.11        75.68768
468.55        75.69038
468.99        75.62843
469.44        75.61308
469.88        75.62288
470.32        75.64077
470.77        75.66135
471.21        75.62988
471.65        75.54053
472.10        75.43233
472.54        75.27005
472.98        75.10202
473.42        74.95676
473.87        74.66392
474.31        74.30027
474.75        74.51292
475.20        75.07439
475.64        74.95309
476.08        74.25475
476.52        73.97151
476.97        74.12323
477.41        74.60618
477.85        74.09653
478.29        74.55027
478.74        74.51004
479.18        73.75264
479.62        74.45556
480.06        74.42234
480.50        74.40359
480.95        74.39069
481.39        74.33548
481.83         74.6667
482.27        74.16013
482.72        74.27949
483.16        74.32951
483.60        73.86119
484.04         73.9418
484.48        73.89671
484.93        74.38467
485.37        73.78172
485.81        74.33836
486.25        75.17423
486.69        75.65643
487.14        74.53209
487.58        74.10577
488.02        74.34792
488.46        74.41346
488.90        74.02428
489.34        73.55473
489.79        73.12985
490.23        73.36663
490.67         73.4059
491.11        73.32957
491.55        73.25746
491.99         73.1902
492.43        73.14616
492.88        73.11465
493.32        73.06808
493.76        73.01015
494.20        73.01792
494.64        73.10323
495.08        73.21681
495.52        73.33353
495.96        73.43316
496.41        73.45364
496.85        73.32645
497.29        73.12617
497.73        72.83512
498.17        73.01339
498.61        73.03378
499.05        73.01276
499.49        72.83418
499.93        72.57872
500.37        72.51494
500.82        72.64156
501.26        72.41175
501.70         73.1487
502.14        72.24195
502.58        72.66053
503.02        72.70566
503.46        72.90359
503.90        72.37141
504.34        72.72423
504.78        72.67052
505.22        72.65987
505.66         72.5658
506.10        72.44501
506.54        72.40012
506.98        72.41172
507.42        72.64591
507.86        72.65173
508.30        72.71078
508.74        72.68589
509.18        72.60106
509.62        72.47746
510.06        72.35847
510.50        72.26717
510.94        72.19317
511.38        72.13903
511.82        72.11211
512.26        72.11662
512.70         72.1246
513.14        72.11495
513.58        72.17419
514.02         72.3239
514.46        72.19023
514.90        72.18082
515.34        72.42657
515.78        72.14362
516.22        72.06832
516.66        71.99207
517.10        72.03143
517.54        72.18201
517.98        72.41859
518.42        72.66323
518.86        72.73874
519.30        72.61093
519.74        72.41488
520.18        72.20722
520.62        71.90031
521.06        71.61652
521.50        71.72385
521.93        72.13996
522.37        72.36179
522.81         72.3373
523.25         72.3231
523.69        72.34006
524.13        72.31094
524.57        72.24684
525.01        72.16872
525.45        72.07674
525.89        71.97671
526.32        71.87227
526.76        71.77894
527.20         71.7222
527.64        71.74863
528.08        71.85764
528.52         72.0246
528.96        72.19685
529.40        72.29337
529.83        72.28689
530.27         72.2146
530.71        72.10043
531.15        71.99518
531.59        71.92023
532.03        71.86486
532.46        71.82598
532.90        71.82159
533.34        71.84241
533.78        71.88351
534.22        71.93233
534.66        71.96655
535.09         71.9696
535.53        71.96835
535.97        71.94219
536.41        71.87829
536.85        71.78127
537.28        71.65947
537.72        71.55186
538.16        71.51118
538.60        71.54872
539.04        71.66091
539.47        71.78084
539.91        71.84556
540.35        71.82127
540.79         71.7457
541.22        71.64381
541.66         71.5665
542.10        71.52797
542.54        71.51115
542.97        71.50771
543.41        71.54678
543.85        71.61093
544.29        71.70012
544.72        71.77122
545.16        71.79158
545.60        71.73798
546.04         71.6181
546.47        71.47505
546.91        71.38358
547.35        71.35137
547.79        71.39064
548.22         71.4394
548.66        71.36249
549.10        71.19334
549.53        71.21478
549.97        71.40655
550.41        71.49204
550.84        71.44221
551.28        71.42007
551.72        71.44704
552.15        71.41766
552.59        71.34272
553.03        71.52109
553.46        71.39839
553.90        71.43144
554.34        71.45025
554.77         71.4005
555.21        71.30633
555.65        71.38077
556.08        71.48447
556.52        71.41286
556.96        71.17423
557.39        71.05171
557.83         71.0877
558.27        71.13845
558.70        71.18545
559.14        71.22339
559.57        71.21896
560.01        71.28732
560.45        71.38612
560.88        71.25971
561.32        71.03855
561.75        71.09798
562.19        71.40112
562.63        71.48207
563.06        71.32071
563.50        71.20689
563.93        71.15503
564.37        71.11343
564.80        71.07227
565.24         71.1052
565.68        71.19312
566.11        71.26583
566.55        71.33566
566.98        71.42422
567.42        71.51608
567.85        71.48409
568.29        71.40252
568.72        71.28948
569.16        71.22796
569.60        71.30379
570.03        71.52563
570.47        71.38212
570.90        71.74379
571.34        71.74891
571.77        71.88548
572.21        71.56511
572.64        71.52364
573.08        71.36495
573.51        71.11392
573.95        71.41706
574.38        71.96342
574.82         71.6892
575.25        71.53912
575.69        71.82627
576.12        71.37548
576.56        71.76223
576.99        71.58129
577.42        71.67391
577.86        71.85196
578.29        72.00098
578.73         71.8056
579.16        71.81847
579.60        71.85803
580.03        71.79069
580.47        71.46253
580.90        71.85879
581.33        71.79612
581.77         71.8819
582.20        71.73354
582.64        72.27332
583.07         71.6754
583.51         71.4364
583.94        71.52863
584.37        71.54241
584.81        71.59757
585.24         71.5759
585.68        71.54208
586.11        71.73672
586.54        71.65335
586.98        71.46841
587.41        72.02477
587.85        71.61489
588.28        71.63603
588.71        71.32849
589.15        71.75741
589.58        71.27022
590.01        71.77001
590.45         71.5336
590.88        71.04598
591.31        71.01878
591.75         71.3418
592.18        71.23835
592.61        70.98061
593.05        71.01593
593.48        71.85159
593.91        71.72032
594.35        71.27241
594.78        71.44884
595.21        71.18452
595.65        71.30805
596.08        71.36568
596.51        71.61221
596.94        71.38702
597.38        71.43145
597.81        71.63415
598.24        71.35023
598.68        71.56992
599.11        71.26598
599.54        71.63141
599.97        71.46409
600.41         71.5116
600.84        71.41612
601.27        71.27786
601.70        71.35497
602.14        71.01308
602.57        71.10235
603.00         71.3855
603.43        71.42104
603.87        71.66084
604.30        71.20892
604.73        71.08421
605.16        71.71685
605.60        71.32549
606.03        71.50388
606.46        71.82827
606.89        71.80379
607.32        71.77448
607.76        71.87221
608.19        71.70705
608.62         71.5471
609.05          71.242
609.48        71.27208
609.92        71.52247
610.35        71.41836
610.78        71.58426
611.21        70.74894
611.64         71.2491
612.07        71.09007
612.50        70.93018
612.94        70.93548
613.37        70.92356
613.80        71.10629
614.23        71.25839
614.66        71.26258
615.09        71.33636
615.52        71.25128
615.96         71.2047
616.39        70.70625
616.82        71.07441
617.25        71.01976
617.68        71.37135
618.11        71.19588
618.54        70.77264
618.97        70.79789
619.40        71.18975
619.84        71.11856
620.27        71.05279
620.70        70.71734
621.13        70.25414
621.56        70.81139
621.99        70.69474
622.42        70.62798
622.85        70.68671
623.28        71.17738
623.71        70.88676
624.14        70.43768
624.57        70.63341
625.00         70.8326
625.43        70.42968
625.86        70.42138
626.29        70.50959
626.72        70.68092
627.15        70.44829
627.58        70.47449
628.01        70.73475
628.44        70.32514
628.87        70.27163
629.30        70.88042
629.73        70.57202
630.16        70.25182
630.59        70.54662
631.02        70.66529
631.45        70.85857
631.88        70.96644
632.31        71.00656
632.74         70.6712
633.17        70.69854
633.60        70.57369
634.03        70.52364
634.46        70.52503
634.89        70.55365
635.32        70.54048
635.75        70.46553
636.18        70.39416
636.61        70.34801
637.04        70.27856
637.47        70.23186
637.89        70.38368
638.32        70.65279
638.75        70.78361
639.18        70.74329
639.61        70.66481
640.04        70.57402
640.47         70.4782
640.90        70.39972
641.33        70.30934
641.76         70.2084
642.18        70.27424
642.61         70.2278
643.04        70.28388
643.47        70.34661
643.90        70.39704
644.33         70.4231
644.76        70.42361
645.18        70.39862
645.61        70.37543
646.04        70.29483
646.47        70.20686
646.90        70.11517
647.33        70.05503
647.75        70.03889
648.18        70.07919
648.61        70.14199
649.04        70.15659
649.47        70.12657
649.89        70.06535
650.32        70.01336
650.75        70.11963
651.18        70.33566
651.61        70.35802
652.03        70.15637
652.46        70.05451
652.89        70.14195
653.32        69.91024
653.74         69.8252
654.17        70.42335
654.60        70.21815
655.03        70.52203
655.46        70.34994
655.88        70.44465
656.31        72.25152
656.74        73.98792
657.16        73.10689
657.59        71.95892
658.02         70.5219
658.45         71.1649
658.87        71.20616
659.30        71.10046
659.73        70.44963
660.15        70.35235
660.58        69.96461
661.01        70.14343
661.44        70.44232
661.86        70.54244
662.29        70.37604
662.72        70.04474
663.14        69.73544
663.57        69.89365
664.00        70.43247
664.42        70.65402
664.85         70.5174
665.27        70.44872
665.70        70.46717
666.13        70.40805
666.55        70.28445
666.98        70.13109
667.41        70.00233
667.83        69.98615
668.26        70.08972
668.69        70.29555
669.11        70.51314
669.54         70.6154
669.96         70.5848
670.39        70.37197
670.82        70.09904
671.24        70.15426
671.67        70.48454
672.09          70.578
672.52        70.45075
672.94        70.46023
673.37        70.61065
673.80        70.67648
674.22        70.64862
674.65        70.57785
675.07        70.48843
675.50        70.35177
675.92        70.21684
676.35        70.14822
676.77        70.16328
677.20        70.25662
677.62         70.3969
678.05         70.4774
678.47        70.46862
678.90         70.5241
679.32         70.4552
679.75        70.47572
680.17        70.53425
680.60        70.64359
681.02        70.75529
681.45        70.77613
681.87        70.73153
682.30        70.60619
682.72        70.47964
683.15        70.65466
683.57        71.03458
684.00        70.99184
684.42        70.59991
684.85        70.50314
685.27        70.71735
685.70         70.9077
686.12        71.00128
686.54        71.01866
686.97        70.95278
687.39        70.92475
687.82        70.96761
688.24        70.87629
688.66        70.99901
689.09        71.09795
689.51        71.24844
689.94        71.32249
690.36        71.30602
690.78        71.24061
691.21        71.16228
691.63        71.07481
692.06        70.99116
692.48        71.09659
692.90        71.03616
693.33        71.02845
693.75        70.96671
694.17        70.87637
694.60        70.78971
695.02        70.77709
695.44        70.83879
695.87         71.0058
696.29        71.20918
696.71        71.21147
697.14        71.03143
697.56        71.01933
697.98         71.1573
698.41        71.20443
698.83        71.14011
699.25        71.13354
699.68        71.17317
700.10        71.21636
700.52        71.24988
700.94        71.29385
701.37        71.32287
701.79        71.33291
702.21        71.30396
702.64        71.24996
703.06        71.19129
703.48        71.18388
703.90        71.24379
704.33        71.35278
704.75         71.4866
705.17        71.55524
705.59        71.53297
706.01        71.46281
706.44        71.41785
706.86        71.35564
707.28        71.52154
707.70        71.74881
708.12        72.01243
708.55        72.00358
708.97        71.75676
709.39        71.64793
709.81        71.70374
710.23        71.68327
710.66        71.59212
711.08        71.61659
711.50        71.71655
711.92        71.75847
712.34         71.7308
712.76         71.6783
713.19        71.61841
713.61        71.62757
714.03        71.69934
714.45        71.80284
714.87        71.92532
715.29        72.05294
715.71        72.17352
716.13        72.29265
716.56        72.36231
716.98        72.37994
717.40        72.32144
717.82        72.20195
718.24        72.08078
718.66        72.05596
719.08        72.14573
719.50        72.31371
719.92         72.5063
720.34        72.63392
720.76        72.66688
721.19        72.62576
721.61        72.53387
722.03        72.39766
722.45        72.23548
722.87        72.04811
723.29        71.88308
723.71        71.81701
724.13         71.8679
724.55        72.02241
724.97        72.22602
725.39        72.38181
725.81        72.45975
726.23        72.47795
726.65        72.47757
727.07         72.5308
727.49        72.65141
727.91        72.80865
728.33        72.95667
728.75        73.02227
729.17        72.98927
729.59        72.89143
730.01        72.76674
730.43         72.6739
730.85        72.63406
731.27         72.6263
731.69        72.65784
732.10        72.74173
732.52        72.85181
732.94        73.02996
733.36        73.23084
733.78        73.26134
734.20        73.08167
734.62        73.26798
735.04        72.69498
735.46        72.86784
735.88        73.03129
736.30        72.88518
736.72        72.41224
737.13        72.33307
737.55        72.63647
737.97        72.85201
738.39        72.91393
738.81        72.93667
739.23        72.93436
739.65        72.98177
740.06        73.05049
740.48        73.08295
740.90        73.04826
741.32        73.09422
741.74        73.10696
742.16        73.13411
742.57        73.14659
742.99        73.15548
743.41        73.15786
743.83        73.12509
744.25        73.05606
744.67        72.94809
745.08        72.86683
745.50        72.87723
745.92        73.00771
746.34        73.23913
746.75        73.46776
747.17        73.53816
747.59        73.41788
748.01        73.09611
748.42        72.72704
748.84        72.64175
749.26        72.82092
749.68        73.03944
750.09          73.188
750.51        73.04498
750.93        72.73968
751.35        72.90365
751.76        73.44399
752.18        73.61078
752.60        73.36606
753.01         73.1547
753.43        73.04073
753.85        72.97018
754.27         72.9725
754.68        73.06564
755.10        73.21214
755.52        73.34264
755.93        73.44267
756.35        73.53493
756.77        73.60153
757.18         73.6843
757.60        73.79786
758.02        73.74703
758.43        73.57117
758.85        73.87676
759.26        73.97386
759.68        73.98959
760.10        74.11645
760.51        73.27402
760.93        73.14443
761.34        73.31212
761.76        73.66866
762.18         73.9943
762.59        74.09231
763.01        74.08235
763.42        74.05975
763.84        74.07179
764.26        74.18554
764.67        74.34396
765.09        74.49726
765.50        74.50383
765.92         74.3549
766.33        74.00798
766.75        73.53699
767.16        73.30196
767.58        73.32305
768.00        73.59811
768.41        74.00909
768.83        74.08252
769.24        73.88381
769.66        73.98111
770.07        74.32317
770.49        74.56692
770.90        74.63815
771.32        74.48518
771.73        74.22095
772.15        74.10899
772.56        74.19202
772.97        74.38223
773.39        74.55776
773.80        74.49962
774.22        74.23232
774.63        74.20914
775.05        74.41423
775.46        74.53665
775.88        74.53328
776.29        74.65072
776.70        74.84922
777.12        74.95683
777.53        74.97533
777.95        74.93635
778.36        74.88343
778.77        74.86346
779.19        74.89217
779.60        74.96077
780.02        75.04259
780.43        75.11325
780.84        75.13412
781.26        75.14511
781.67        75.22255
782.09        75.20583
782.50        75.01342
782.91        75.66809
783.33        75.17746
783.74        75.19756
784.15        75.12627
784.57        74.96492
784.98        74.82631
785.39        74.75593
785.81         75.3055
786.22        75.49305
786.63        75.46851
787.04        75.55662
787.46        75.76459
787.87        75.86504
788.28        75.82346
788.70         75.7439
789.11        75.62398
789.52        75.33389
789.93        75.01166
790.35        75.13764
790.76        75.65089
791.17        75.85686
791.58        75.70825
792.00        75.73172
792.41        75.95098
792.82        75.88765
793.23        75.64955
793.65         75.8444
794.06        76.39138
794.47        76.62869
794.88        76.52695
795.29        76.31419
795.71        76.46355
796.12        76.20833
796.53        75.78645
796.94        75.84512
797.35        76.32127
797.76        76.40811
798.18        76.10689
798.59         76.0661
799.00        76.30626
799.41         76.3451
799.82        76.33401
800.23        76.28017
800.64        76.24186
801.06        76.14903
801.47        76.06808
801.88        76.02428
802.29        76.02698
802.70        76.07981
803.11        76.15588
803.52        76.19979
803.93        76.20056
804.34        76.17201
804.75        76.14634
805.17        76.18184
805.58        76.32192
805.99        76.47145
806.40        76.59363
806.81        76.75111
807.22        76.85748
807.63        76.66166
808.04         76.2712
808.45        76.12318
808.86        76.27933
809.27        76.51852
809.68        76.75847
810.09        76.93941
810.50        77.01637
810.91         77.0043
811.32        76.93713
811.73         76.8875
812.14        76.88086
812.55        76.85186
812.96        76.79387
813.37        76.81348
813.78        76.86122
814.19        76.70052
814.60         76.4109
815.01        76.32631
815.42        76.47687
815.83        76.68979
816.24        76.91782
816.65        77.14777
817.05        77.34063
817.46        77.44695
817.87        77.49541
818.28         77.4841
818.69        77.42175
819.10        77.31564
819.51        77.18304
819.92        77.05917
820.33        76.96748
820.74        76.90751
821.14        76.89487
821.55        76.98071
821.96        77.14527
822.37        77.37839
822.78        77.61799
823.19        77.74917
823.60        77.74001
824.00        77.64295
824.41        77.47661
824.82        77.37294
825.23        77.37297
825.64        77.45139
826.04        77.61405
826.45        77.82533
826.86        78.06987
827.27        78.33957
827.68        78.59856
828.08        78.81734
828.49        78.90778
828.90        78.91649
829.31        78.83862
829.72        78.67928
830.12          78.481
830.53        78.20186
830.94        77.93261
831.35        77.78194
831.75        77.79851
832.16        77.91319
832.57        78.06577
832.97        78.10294
833.38        77.97729
833.79        77.74806
834.20        77.49039
834.60        77.31364
835.01        77.25603
835.42        77.26319
835.82        77.33482
836.23        77.38812
836.64        77.42831
837.04         77.5134
837.45        77.56174
837.86        77.53558
838.26        77.45033
838.67         77.2979
839.08        77.20351
839.48        77.35707
839.89        77.78135
840.29        78.40244
840.70        79.05264
841.11        79.47283
841.51        79.60789
841.92          79.482
842.33        79.22095
842.73        79.03658
843.14        78.95171
843.54        78.95285
843.95        78.97025
844.35        78.91151
844.76        78.74911
845.17        78.53254
845.57         78.3591
845.98        78.33302
846.38        78.49891
846.79        78.78214
847.19        79.08866
847.60        79.21098
848.00        79.12334
848.41         78.8533
848.81        78.52966
849.22        78.28825
849.62        78.21758
850.03        78.25121
850.43        78.36387
850.84        78.42568
851.24        78.45644
851.65        78.43661
852.05        78.46864
852.46        78.59483
852.86        78.81154
853.27        79.08962
853.67         79.2868
854.07        79.41222
854.48         79.4128
854.88        79.34074
855.29        79.12258
855.69        78.85156
856.10        78.47533
856.50        78.09405
856.90        77.72485
857.31        77.42337
857.71        77.25657
858.12        77.15249
858.52        77.17178
858.92        77.27129
859.33        77.40953
859.73        77.63803
860.13        77.82725
860.54        77.78255
860.94        77.50742
861.34        77.00912
861.75        76.46533
862.15        76.22723
862.55        76.33475
862.96        76.71133
863.36        77.12256
863.76        77.15651
864.17        76.71574
864.57        75.95048
864.97        75.13842
865.38        74.69692
865.78        74.78286
866.18        75.25234
866.58        75.85646
866.99        76.16399
867.39        76.07018
867.79        75.67731
868.19        75.20682
868.60        74.94307
869.00        74.95682
869.40        75.19895
869.80        75.52911
870.21        75.70542
870.61        75.72791
871.01        75.60429
871.41        75.49974
871.81        75.65289
872.22        76.06564
872.62        76.67911
873.02        77.28225
873.42        77.47947
873.82         77.1733
874.22        76.53941
874.63        75.82389
875.03        75.33435
875.43        75.16632
875.83        75.21118
876.23        75.43826
876.63        75.79077
877.03        76.20885
877.44        76.70383
877.84        77.13421
878.24        77.22589
878.64        76.93643
879.04        76.34086
879.44        75.68693
879.84        75.33596
880.24        75.36075
880.64        75.68111
881.04        76.09583
881.44        76.25052
881.84        76.04292
882.24        75.55958
882.65        75.01366
883.05        74.86275
883.45        75.16453
883.85        75.79408
884.25        76.43767
884.65        76.64014
885.05          76.316
885.45        75.59091
885.85        74.81573
886.25        74.58831
886.65        75.04624
887.05        75.99355
887.45         76.9904
887.85        77.37063
888.25        76.99187
888.65        76.06107
889.04        74.97978
889.44        74.45621
889.84         74.6546
890.24        75.34191
890.64        76.15839
891.04        76.53849
891.44        76.34175
891.84        75.78863
892.24         75.1126
892.64         74.6629
893.04        74.55802
893.44        74.67445
893.83        74.97989
894.23        75.36783
894.63        75.79953
895.03        76.29147
895.43        76.75796
895.83        77.04757
896.23        77.12218
896.63        77.00329
897.02        76.76283
897.42        76.57067
897.82        76.45751
898.22        76.40277
898.62        76.36877
899.01        76.29665
899.41        76.15782
899.81        76.00101
900.21        75.88523
900.61        75.89682
901.00        76.03901
901.40        76.28417
901.80        76.55631
902.20         76.7531
902.59        76.85337
902.99        76.87366
903.39        76.84294
903.79        76.79881
904.18        76.76121
904.58        76.73154
904.98        76.73381
905.38        76.81796
905.77        76.96815
906.17        77.15952
906.57        77.34109
906.96        77.44382
907.36        77.41695
907.76        77.32186
908.15        77.14273
908.55        76.77862
908.95        76.29101
909.34        75.70657
909.74        75.26643
910.14        75.28221
910.53        75.79745
910.93        76.67522
911.33        77.64495
911.72        78.23344
912.12        78.28404
912.52        77.96255
912.91        77.42313
913.31        76.92853
913.70        76.55705
914.10        76.21775
914.49        75.98434
914.89        75.92596
915.29        76.07101
915.68        76.41949
916.08        76.82505
916.47        77.03097
916.87         76.9939
917.26        76.74419
917.66        76.44476
918.05        76.33122
918.45        76.44744
918.84        76.74397
919.24         77.0442
919.64        77.14558
920.03        77.01764
920.42        76.73654
920.82        76.44333
921.21         76.3387
921.61        76.45798
922.00         76.7413
922.40        77.11149
922.79        77.51636
923.19        77.86201
923.58        78.20004
923.98        78.41385
924.37        78.38589
924.77        78.10297
925.16        77.58404
925.55        77.02526
925.95        76.77147
926.34        76.91005
926.74        77.33339
927.13        77.85392
927.52        78.05643
927.92        77.87468
928.31        77.43401
928.70        76.94044
929.10        76.69769
929.49        76.78168
929.89        77.04357
930.28        77.43615
930.67        77.75241
931.07        77.89743
931.46        77.97232
931.85        77.92424
932.24        77.70323
932.64        77.33622
933.03        76.84162
933.42        76.39371
933.82        76.27384
934.21        76.54736
934.60        77.15213
934.99        77.88675
935.39        78.37885
935.78         78.5466
936.17        78.44508
936.56        78.24833
936.96        78.25337
937.35        78.58162
937.74        79.10175
938.13        79.58643
938.53        79.72245
938.92        79.44825
939.31        78.82878
939.70        78.13338
940.09        77.82742
940.49        77.99632
940.88        78.54426
941.27        79.06766
941.66        78.94566
942.05        78.09122
942.44        76.75012
942.84        75.40231
943.23        74.77155
943.62        75.08558
944.01        76.10551
944.40        77.49448
944.79        78.63617
945.18        79.25374
945.57        79.47797
945.97        79.36538
946.36        79.08882
946.75        78.70527
947.14        78.16938
947.53        77.53966
947.92        76.95979
948.31        76.50625
948.70        76.19977
949.09         76.0774
949.48        76.14849
949.87        76.38187
950.26        76.75544
950.65        77.14438
951.04        77.35116
951.43        77.32566
951.82        77.10392
952.21        76.77304
952.60        76.51914
952.99        76.39623
953.38        76.32788
953.77        76.28446
954.16        76.21536
954.55        76.08946
954.94        75.94672
955.33        75.70472
955.72        75.21528
956.11        74.47812
956.50        73.55003
956.89        72.65297
957.28        72.17192
957.66        72.24928
958.05        72.77625
958.44         73.5342
958.83        74.14948
959.22        74.48481
959.61        74.57935
960.00        74.57687
960.39        74.72433
960.78        75.06447
961.16        75.54503
961.55        75.85416
961.94         75.5997
962.33        74.73484
962.72        73.46603
963.11         72.2168
963.49        71.57815
963.88        71.68168
964.27        72.37263
964.66        73.34378
965.04         74.0462
965.43        74.19678
965.82        73.98243
966.21        73.63866
966.60        73.54414
966.98        73.80659
967.37        74.26086
967.76        74.73516
968.15        74.90402
968.53        74.69051
968.92        74.23143
969.31        73.72918
969.69        73.45567
970.08        73.47708
970.47        73.70947
970.86        74.12851
971.24        74.69941
971.63        75.29591
972.02        75.93646
972.40        76.52716
972.79        76.80381
973.17        76.82823
973.56        76.58091
973.95        76.26145
974.33        76.20238
974.72        76.46486
975.11        76.92079
975.49        77.35419
975.88        77.42447
976.26        77.05564
976.65        76.37318
977.04        75.46193
977.42        74.45581
977.81        73.39934
978.19        72.21984
978.58        71.31028
978.96         71.2729
979.35        72.17645
979.74        73.93478
980.12        75.81855
980.51        76.40228
980.89        75.50783
981.28        73.38069
981.66        71.05804
982.05        70.48885
982.43        72.16183
982.82        75.37386
983.20        78.95495
983.59        80.98162
983.97        81.04882
984.35        79.64305
984.74        77.48183
985.12        75.85117
985.51         75.2433
985.89        75.33925
986.28        75.74312
986.66        75.96266
987.04        75.81812
987.43         75.4411
987.81        75.15331
988.20        75.34987
988.58        76.12155
988.96        77.27559
989.35        78.15122
989.73        77.85143
990.12        76.12213
990.50        73.09969
990.88        69.65213
991.27         67.8811
991.65        68.57139
992.03        71.05957
992.42        73.87595
992.80         75.4991
993.18        75.52079
993.56        74.29989
993.95        72.35994
994.33        70.98553
994.71        70.93114
995.10        71.63948
995.48        72.50234
995.86        72.76736
996.24        72.33687
996.63        71.41306
997.01         70.4866
997.39        70.45255
997.77        71.59956
998.15        73.52243
998.54        75.42271
998.92        76.30319
999.30        75.97032
999.68        74.72093
1000.06        73.09764
1000.45        72.08802
1000.83        72.13047
1001.21        72.87733
1001.59        73.93572
1001.97         74.7257
1002.35         75.0919
1002.73        75.26799
1003.12        75.31661
1003.50        75.20201
1003.88        75.00974
1004.26        74.64685
1004.64        74.32143
1005.02         74.3454
1005.40        74.72565
1005.78        75.42065
1006.16        76.05016
1006.54        75.91441
1006.92        74.87154
1007.30        73.15943
1007.69        71.41941
1008.07         70.5918
1008.45        71.01186
1008.83        72.38493
1009.21        74.10416
1009.59        75.32178
1009.97        75.78316
1010.35        75.58977
1010.73        75.08441
1011.11        75.07629
1011.49         75.8545
1011.86        77.22119
1012.24        78.23112
1012.62        77.86319
1013.00         76.0779
1013.38        73.35702
1013.76        70.70063
1014.14        69.75217
1014.52        70.98274
1014.90        73.90462
1015.28        77.76422
1015.66        80.94253
1016.04         82.6014
1016.41        83.15979
1016.79        82.55567
1017.17        81.16558
1017.55        79.28635
1017.93        76.91747
1018.31        74.58913
1018.69        73.13293
1019.06        72.85885
1019.44        73.77503
1019.82          75.649
1020.20        77.72174
1020.58        79.42493
1020.95        80.54079
1021.33         81.2667
1021.71        81.97523
1022.09         82.6917
1022.46        83.26832
1022.84        83.11205
1023.22        81.02647
1023.60        76.69724
1023.97        70.14882
1024.35        62.88057
1024.73        58.24763
