SpectraSmart Spectrum 2.9.0.0
--------- Device Information -----------
Spectrum Name :  反射率_0
Saving Time :  2024/04/27 23:57:19
Spectro-Module Model Name : SE2030-DUVN
Spectro-Module Serial Number : OS361AC55029948
Wavelength Start : 200
Wavelength End : 1025
Wavelength Unit : Wavelength(nm)
Spectrum Unit : Reflectance(%)
-----------Spectrum Setting ------------
Integration Time : 20ms
Average : 10
Boxcar : 0
Background removal :  enabled
linearity correction :  enabled
SC :  disabled
Intensity correction :  disabled
DWT denoise :  enabled
savitzky-golay :  disabled
FFT :  disabled
Running average :  disabled
Kalman :  disabled
High pass :  disabled
---------------BEGIN--------------------
Wavelength(nm)             Reflectance(%)
200.29               0
200.75        64.84349
201.21        77.50629
201.67        83.49834
202.13        82.34132
202.58        76.71133
203.04        68.33724
203.50        61.53931
203.96        62.68659
204.42        70.78661
204.88        81.74825
205.34        91.25182
205.80        95.82644
206.26        95.19316
206.72        89.04762
207.18        76.56521
207.64        65.37376
208.10        64.17503
208.55        69.60358
209.01        72.91009
209.47         69.5041
209.93        56.66556
210.39        21.97414
210.85       -84.97122
211.31       -223.0177
211.77       -74.64412
212.23        27.28809
212.69        63.70543
213.14        74.42754
213.60        73.03806
214.06        63.08552
214.52        42.16531
214.98        22.77162
215.44        23.41773
215.90        32.97907
216.36        42.92692
216.81        50.81851
217.27        57.08338
217.73        63.58857
218.19        68.81686
218.65        69.19517
219.11        63.80142
219.57        53.11749
220.02        39.36214
220.48        30.76138
220.94        30.63231
221.40        36.00799
221.86        44.10738
222.32        52.00087
222.77        58.55019
223.23        64.11491
223.69         67.6065
224.15        67.63376
224.61        64.47335
225.06          58.498
225.52        51.71287
225.98        48.15208
226.44        48.64414
226.90          51.047
227.36        53.52436
227.81        54.61087
228.27        54.27655
228.73        53.04956
229.19         50.9244
229.65        48.02768
230.10        44.72087
230.56        41.42004
231.02        38.62243
231.48        37.06494
231.93        36.71001
232.39        37.33238
232.85        38.61143
233.31        40.09231
233.77        41.54511
234.22        43.11972
234.68        44.33752
235.14        44.70718
235.60        44.20036
236.05        42.72948
236.51        41.18016
236.97        41.43621
237.43        44.07241
237.88        48.66787
238.34        53.23066
238.80         55.8185
239.26        56.02858
239.71        53.71558
240.17        49.16501
240.63        47.19772
241.08        51.63944
241.54        58.49026
242.00        64.03606
242.46        67.33465
242.91        69.39249
243.37         71.2189
243.83        73.32507
244.28        74.64445
244.74        72.33926
245.20         67.6705
245.66        64.24358
246.11        62.40268
246.57        61.25318
247.03        61.19286
247.48        62.75644
247.94        66.56696
248.40        71.60916
248.85         76.3985
249.31        80.88024
249.77        85.70084
250.22         90.3468
250.68        93.81796
251.14        96.37369
251.59        98.73618
252.05        101.3289
252.51        104.3764
252.96        106.1447
253.42        102.3143
253.88        92.84398
254.33        82.55573
254.79        75.44943
255.25        71.75249
255.70        70.10985
256.16        69.94063
256.62        70.71709
257.07        72.01241
257.53         73.6423
257.99        74.96806
258.44        75.18385
258.90        74.05252
259.35        71.55483
259.81        68.66244
260.27        65.79917
260.72        63.56624
261.18        62.33176
261.63        61.44216
262.09         60.8627
262.55        60.12941
263.00        59.08852
263.46        58.04804
263.91        56.89321
264.37        55.84637
264.83        54.87372
265.28        53.88758
265.74        52.99938
266.19        52.13132
266.65        51.33437
267.11        50.57228
267.56        49.75537
268.02        48.84953
268.47        47.81962
268.93        46.71462
269.38        45.64075
269.84        44.79718
270.30        44.20024
270.75        43.76753
271.21        43.34728
271.66        42.65709
272.12        41.66516
272.57        40.43435
273.03        39.13799
273.48         37.9593
273.94         37.0204
274.39        36.22852
274.85        35.57661
275.31        34.96656
275.76        34.34562
276.22        33.76989
276.67        33.20552
277.13         32.6996
277.58        32.20066
278.04        31.73839
278.49        31.22923
278.95        30.67404
279.40        30.03027
279.86        29.37648
280.31        28.73948
280.77        28.27688
281.22        27.96704
281.68        27.80688
282.13        27.69452
282.59         27.5345
283.04        27.29124
283.50        27.01971
283.95        26.76606
284.41        26.63924
284.86        26.64154
285.32        26.74763
285.77        26.88865
286.22        27.00979
286.68        27.10349
287.13        27.14517
287.59        27.18096
288.04        27.20308
288.50        27.24436
288.95        27.27935
289.41        27.30462
289.86        27.26621
290.32        27.19543
290.77        27.11885
291.22        27.11793
291.68        27.30119
292.13         27.6852
292.59        28.26011
293.04        28.97356
293.50        29.76354
293.95        30.59877
294.40        31.51042
294.86        32.51616
295.31        33.63703
295.77          34.886
296.22        36.22625
296.68        37.66067
297.13         39.1646
297.58        40.71805
298.04        42.31892
298.49        43.92214
298.95        45.50785
299.40        47.08262
299.85         48.6724
300.31        50.35749
300.76        52.20006
301.21         54.1991
301.67        56.32529
302.12        58.44573
302.58        60.45506
303.03         62.2996
303.48        64.04246
303.94        65.80274
304.39        67.67493
304.84        69.70567
305.30        71.85561
305.75        74.00446
306.20        76.06573
306.66         78.0266
307.11        79.86582
307.57        81.63435
308.02        83.28596
308.47        84.83855
308.93        86.29569
309.38        87.63206
309.83        88.91833
310.29        90.19214
310.74        91.42408
311.19        92.60806
311.65        93.69958
312.10        94.65416
312.55        95.49319
313.00        96.25758
313.46        97.01949
313.91        97.78274
314.36        98.54568
314.82        99.25716
315.27        99.82935
315.72         100.247
316.18        100.5526
316.63        100.8081
317.08        101.1498
317.53        101.6079
317.99        102.1383
318.44        102.6728
318.89        103.0718
319.35        103.3057
319.80         103.437
320.25        103.5334
320.70        103.7124
321.16        103.9935
321.61        104.3425
322.06         104.733
322.51        105.1345
322.97         105.506
323.42        105.8992
323.87          106.23
324.32        106.3812
324.78        106.3273
325.23        106.1379
325.68         105.944
326.13        105.9951
326.59        106.3254
327.04        106.9179
327.49        107.5955
327.94        108.0944
328.39        108.3361
328.85        108.3546
329.30        108.3328
329.75        108.4332
330.20        108.7177
330.66        109.0928
331.11        109.5358
331.56        109.8939
332.01        110.1366
332.46        110.3134
332.92        110.4394
333.37         110.687
333.82        111.0376
334.27        111.4509
334.72        111.8897
335.17        112.2991
335.63        112.6345
336.08        112.9769
336.53        113.3002
336.98        113.6031
337.43        113.8966
337.88        114.1785
338.34        114.4789
338.79        114.9045
339.24         115.448
339.69        116.0815
340.14        116.7278
340.59        117.2588
341.05        117.6446
341.50        117.9351
341.95         118.177
342.40        118.4664
342.85        118.8323
343.30        119.2301
343.75        119.6619
344.20        120.1305
344.66        120.6234
345.11        121.1419
345.56        121.5979
346.01        121.8429
346.46        121.8655
346.91        121.7171
347.36        121.5568
347.81        121.6341
348.26        121.9915
348.72        122.5422
349.17        123.1244
349.62        123.4982
350.07        123.5908
350.52        123.4799
350.97        123.2424
351.42        123.0016
351.87        122.8112
352.32        122.6379
352.77         122.484
353.22        122.3587
353.67        122.2504
354.13        122.1647
354.58        122.0494
355.03        121.8788
355.48        121.6303
355.93         121.303
356.38        120.8698
356.83         120.292
357.28         119.584
357.73        118.7861
358.18        117.9652
358.63        117.2183
359.08         116.579
359.53        116.0251
359.98        115.5478
360.43        115.1295
360.88        114.7381
361.33        114.3517
361.78        113.9208
362.23        113.3648
362.68        112.6649
363.13        111.8623
363.58        110.9724
364.03        109.9773
364.48        108.9921
364.93        107.9756
365.38        107.0256
365.83         106.253
366.28        105.6678
366.73        105.2216
367.18        104.8311
367.63        104.3586
368.08        103.7576
368.53        103.0676
368.98        102.2915
369.43        101.4405
369.88        100.5425
370.33        99.60124
370.78         98.6999
371.23        97.97559
371.68        97.45177
372.13        97.08747
372.58        96.78996
373.03        96.39832
373.48        95.86302
373.93        95.23022
374.38        94.53407
374.83        93.83152
375.28        93.15037
375.72        92.45415
376.17        91.80445
376.62        91.23235
377.07        90.73789
377.52        90.30246
377.97        89.88764
378.42        89.42772
378.87        88.90873
379.32        88.36281
379.77        87.79075
380.22        87.18897
380.67        86.56878
381.11         85.9352
381.56        85.34956
382.01        84.92609
382.46        84.68798
382.91        84.60226
383.36        84.56693
383.81        84.41901
384.26         84.1142
384.71         83.6897
385.15        83.21043
385.60        82.84386
386.05         82.6041
386.50        82.44377
386.95        82.28859
387.40        82.02953
387.85        81.65553
388.29        81.17459
388.74        80.74233
389.19        80.38625
389.64        80.10413
390.09        79.83591
390.54        79.57437
390.98        79.29639
391.43        79.04935
391.88        78.84736
392.33         78.5834
392.78        78.21188
393.23         77.7716
393.67        76.99528
394.12        76.15157
394.57        76.41667
395.02        76.56161
395.47        76.53748
395.91        76.01298
396.36        75.75522
396.81        75.78066
397.26        75.65152
397.71        75.38048
398.15         75.1704
398.60        75.10672
399.05        74.96042
399.50        74.77625
399.95        74.83952
400.39        75.04328
400.84        74.85571
401.29        74.30685
401.74        73.78191
402.18        73.40816
402.63         73.2151
403.08        73.16485
403.53        73.00924
403.97        72.73281
404.42        72.54432
404.87        72.44635
405.32        72.38567
405.76        72.34869
406.21        72.26635
406.66        72.15224
407.11        72.21981
407.55        72.39181
408.00        72.22419
408.45        71.75894
408.90        71.29489
409.34        70.95026
409.79        70.87164
410.24        70.98533
410.68        70.97934
411.13        70.82136
411.58        70.72768
412.03        70.69788
412.47        70.63764
412.92         70.5232
413.37        70.39355
413.81        70.27927
414.26        70.28299
414.71         70.3933
415.15        70.59733
415.60        70.78629
416.05        70.83395
416.49        70.71355
416.94        70.45923
417.39        70.16346
417.83        69.96809
418.28        69.90269
418.73        69.90853
419.17        69.95081
419.62         69.9753
420.07        69.97181
420.51        69.96984
420.96        69.94269
421.41        69.85668
421.85        69.69413
422.30        69.33163
422.74        68.91619
423.19         69.1511
423.64        69.88656
424.08        70.18748
424.53        69.90091
424.98        69.80492
425.42        69.93732
425.87        69.57367
426.31        68.94163
426.76        69.03413
427.21        70.26936
427.65        70.23447
428.10        69.10172
428.54        69.57001
428.99        69.49044
429.44        69.84615
429.88        69.86496
430.33        69.75446
430.77        69.50754
431.22        69.35891
431.66        69.34406
432.11        69.45557
432.56        69.70679
433.00        69.73136
433.45        69.39864
433.89        69.54223
434.34        70.13567
434.78        69.23878
435.23        69.04161
435.67        69.08807
436.12        69.95486
436.57        69.94182
437.01        69.06583
437.46        69.84072
437.90        69.43992
438.35        69.99303
438.79        69.95596
439.24        70.03648
439.68        70.06583
440.13        70.00384
440.57        69.93904
441.02        70.30858
441.46        70.87946
441.91        70.65155
442.35        69.81762
442.80        69.71626
443.24        70.31033
443.69        70.52576
444.13        70.32006
444.58        70.32603
445.02        70.51453
445.47        70.60727
445.91        70.59996
446.36        70.63647
446.80        70.70209
447.24        70.82414
447.69        70.79767
448.13        70.96659
448.58        71.18973
449.02        71.09536
449.47        70.76961
449.91        70.63618
450.36        70.74549
450.80        70.83706
451.25        70.88602
451.69        70.93897
452.13        70.96652
452.58         70.8978
453.02        70.75362
453.47        70.60095
453.91        70.44373
454.36        70.38036
454.80        70.35752
455.24        70.00337
455.69        69.43475
456.13        69.20708
456.58        69.49682
457.02        69.07122
457.46        70.09269
457.91         69.8666
458.35        69.40846
458.79        69.13419
459.24        69.15746
459.68        69.06253
460.13        68.86259
460.57        68.53009
461.01        68.39022
461.46        68.37511
461.90        67.98444
462.34        68.24566
462.79        68.27383
463.23        68.36798
463.68        68.29517
464.12        68.16286
464.56        68.01022
465.01        67.98968
465.45        67.95823
465.89        67.78331
466.34        67.55212
466.78        67.35898
467.22        66.70132
467.67        67.67898
468.11        67.24083
468.55        67.33349
468.99        67.12257
469.44        67.04816
469.88        67.10622
470.32        67.07076
470.77        66.95348
471.21        66.83272
471.65         66.7188
472.10        66.61232
472.54        66.48292
472.98        66.36401
473.42        66.27451
473.87        66.09109
474.31        65.85553
474.75          66.063
475.20        66.54746
475.64        66.44189
476.08        65.83097
476.52        65.66123
476.97        65.97214
477.41        65.96272
477.85        66.07857
478.29        66.15276
478.74        65.78738
479.18        65.56212
479.62        66.15862
480.06        66.24067
480.50         66.0508
480.95         66.0101
481.39        66.11649
481.83        65.76564
482.27        66.19305
482.72        65.53938
483.16        65.89677
483.60        65.82323
484.04        65.81462
484.48        65.82524
484.93        66.04097
485.37        66.15965
485.81        66.38196
486.25        67.02199
486.69        67.74346
487.14        66.60316
487.58        66.05238
488.02        66.09081
488.46        66.48765
488.90        66.02547
489.34        65.91167
489.79        65.31895
490.23        65.71175
490.67        65.75992
491.11        65.73339
491.55         65.6692
491.99        65.57151
492.43        65.51813
492.88        65.50494
493.32        65.49156
493.76        65.48147
494.20        65.57327
494.64         65.7808
495.08        65.98666
495.52        66.16134
495.96        66.45494
496.41        66.75399
496.85        66.58313
497.29        66.05777
497.73        65.88092
498.17        65.98307
498.61        66.12623
499.05        66.16971
499.49        66.09568
499.93        65.96154
500.37        65.80011
500.82        65.65134
501.26        65.85325
501.70        66.42989
502.14        65.80561
502.58        66.34612
503.02        66.16694
503.46        66.20587
503.90        66.07269
504.34        65.89577
504.78        65.83936
505.22        65.87566
505.66        65.89191
506.10        65.90057
506.54        65.93362
506.98        65.96151
507.42        66.23158
507.86        66.32867
508.30         66.1647
508.74        66.25226
509.18         66.0937
509.62        65.92281
510.06        65.80582
510.50        65.77312
510.94         65.7969
511.38        65.83494
511.82        65.83291
512.26        65.77266
512.70        65.67484
513.14        65.57877
513.58        65.52047
514.02        65.50956
514.46        65.57845
514.90        65.69815
515.34        65.59122
515.78        65.62197
516.22        65.50248
516.66        65.39716
517.10        65.37714
517.54        65.45827
517.98        65.60966
518.42        65.75889
518.86        65.80074
519.30        65.71271
519.74        65.53277
520.18        65.33405
520.62        65.22924
521.06        65.24736
521.50        65.35412
521.93        65.49887
522.37        65.58523
522.81        65.59085
523.25        65.54155
523.69        65.47149
524.13        65.43356
524.57        65.43993
525.01        65.46797
525.45        65.49053
525.89        65.46804
526.32        65.38765
526.76        65.28275
527.20        65.17107
527.64        65.08585
528.08        65.03811
528.52        65.01449
528.96        65.01471
529.40        65.03823
529.83        65.07251
530.27        65.12895
530.71        65.17535
531.15        65.16959
531.59        65.10666
532.03        64.99915
532.46        64.87979
532.90        64.82486
533.34         64.8439
533.78        64.91486
534.22        65.00217
534.66         65.0507
535.09        65.03852
535.53        65.00253
535.97        64.94984
536.41        64.90714
536.85        64.88255
537.28         64.8653
537.72        64.85618
538.16        64.84886
538.60        64.84337
539.04        64.86014
539.47        64.86594
539.91        64.84486
540.35        64.78024
540.79        64.69231
541.22        64.60699
541.66        64.57497
542.10        64.60256
542.54        64.67242
542.97        64.74878
543.41        64.81194
543.85        64.84127
544.29        64.85365
544.72        64.84258
545.16        64.83311
545.60        64.81618
546.04        64.77673
546.47        64.73988
546.91        64.74844
547.35        64.79672
547.79        64.90638
548.22        64.99961
548.66        64.92059
549.10        64.69992
549.53        64.60487
549.97        64.66782
550.41        64.71774
550.84        64.75723
551.28        64.91184
551.72        65.11769
552.15        65.19639
552.59        65.14063
553.03        64.98974
553.46        64.81034
553.90        64.75163
554.34        64.82368
554.77        64.99741
555.21        65.18941
555.65        65.25954
556.08        65.11005
556.52        64.98039
556.96        64.89162
557.39        64.83114
557.83         64.8121
558.27        64.84125
558.70        64.89462
559.14        64.73267
559.57        64.69082
560.01        64.63567
560.45         64.6596
560.88         64.6888
561.32        64.75694
561.75        64.78774
562.19        64.80611
562.63         64.9025
563.06        65.01119
563.50        64.90466
563.93        64.67121
564.37        64.48142
564.80         64.8507
565.24        64.96101
565.68        64.94353
566.11        64.97878
566.55        65.08407
566.98        65.11645
567.42        65.09749
567.85        65.10175
568.29        65.17756
568.72         65.1774
569.16        65.14239
569.60         65.3058
570.03        65.52528
570.47        65.47555
570.90        65.50558
571.34        65.86109
571.77        65.89047
572.21        65.52426
572.64        65.70787
573.08        65.51772
573.51        65.31701
573.95        65.48254
574.38         65.8591
574.82        65.91067
575.25        65.90643
575.69         65.5628
576.12        65.52854
576.56        65.80136
576.99        65.67324
577.42         65.6269
577.86        65.51946
578.29         66.2207
578.73        65.85492
579.16        65.85711
579.60        65.66249
580.03        65.47253
580.47        65.21827
580.90        65.80167
581.33        65.82591
581.77        65.91007
582.20        66.09142
582.64        66.13139
583.07        65.89964
583.51        65.66415
583.94        65.59199
584.37        65.64095
584.81        65.68919
585.24        65.75212
585.68        65.70562
586.11        65.79881
586.54        65.67085
586.98         64.8319
587.41        65.28797
587.85        65.33153
588.28        65.27072
588.71        65.50567
589.15        65.41489
589.58        65.22038
590.01        64.97129
590.45        65.32687
590.88        64.60551
591.31        64.64497
591.75        64.84497
592.18        64.73241
592.61        64.59108
593.05        64.58672
593.48        65.67639
593.91        65.41727
594.35        65.18181
594.78        65.33985
595.21        65.07395
595.65        65.04398
596.08        64.90901
596.51        64.91887
596.94        64.73148
597.38        64.75838
597.81        64.99685
598.24        64.76504
598.68        65.21178
599.11        65.01154
599.54         65.3322
599.97        65.05307
600.41        65.38863
600.84        65.37469
601.27        65.29166
601.70        64.96584
602.14        64.77433
602.57        64.95589
603.00        64.84981
603.43        65.34163
603.87        65.53111
604.30        65.35287
604.73        65.14749
605.16        65.43205
605.60        65.36593
606.03        65.43339
606.46        65.37028
606.89        65.33586
607.32        65.24613
607.76        65.89514
608.19        65.40186
608.62        65.37962
609.05        65.33302
609.48        65.36357
609.92        65.38512
610.35        65.59019
610.78        65.20981
611.21        65.12946
611.64         65.2687
612.07        65.28308
612.50        65.20734
612.94        65.14103
613.37        65.11227
613.80        65.18637
614.23        65.08456
614.66        65.14272
615.09        65.21777
615.52        65.24867
615.96        65.28228
616.39        64.86832
616.82        65.20456
617.25        65.11365
617.68        65.29936
618.11        65.19243
618.54        65.00465
618.97        65.04362
619.40        65.22276
619.84        65.46419
620.27         65.2977
620.70        65.17249
621.13        64.91127
621.56        65.21655
621.99        64.90422
622.42        64.80186
622.85        64.62798
623.28        65.10416
623.71        64.67915
624.14        64.63889
624.57        64.92488
625.00        64.89238
625.43        64.88221
625.86        64.83484
626.29        64.78352
626.72        65.07455
627.15        64.82937
627.58        64.80675
628.01        64.75822
628.44        64.72372
628.87        64.65662
629.30        64.57984
629.73        64.65652
630.16         64.3133
630.59        64.31751
631.02        64.29234
631.45        64.42457
631.88        64.43773
632.31        64.30184
632.74        64.41352
633.17        64.28718
633.60        64.32988
634.03        64.39215
634.46        64.48309
634.89        64.56392
635.32        64.56596
635.75         64.4833
636.18        64.37849
636.61        64.27555
637.04         64.1235
637.47        63.97356
637.89        64.00488
638.32        64.15694
638.75        64.21295
639.18         64.1496
639.61        64.08209
640.04        64.03371
640.47        64.00846
640.90        64.01751
641.33        64.02879
641.76        64.01325
642.18        64.08669
642.61        63.98563
643.04        63.91785
643.47        63.83545
643.90        63.78348
644.33        63.77035
644.76        63.79049
645.18        63.81682
645.61        63.79076
646.04        63.70394
646.47        63.57118
646.90        63.44499
647.33        63.40358
647.75        63.47022
648.18        63.64237
648.61        63.84371
649.04        63.94276
649.47        63.92377
649.89         63.8073
650.32        63.68592
650.75        63.77692
651.18        64.03614
651.61        64.20016
652.03        64.15633
652.46        63.94965
652.89        63.78878
653.32        63.54748
653.74        63.52718
654.17         64.4493
654.60        64.19273
655.03        63.72636
655.46        63.56602
655.88        64.68089
656.31        66.40572
656.74        69.30105
657.16        67.53577
657.59        66.25488
658.02        65.06503
658.45        65.07108
658.87         65.0229
659.30        64.55762
659.73        64.64585
660.15        64.30674
660.58        64.49018
661.01        64.55195
661.44        64.59735
661.86        64.54039
662.29        64.38362
662.72        64.26293
663.14        64.22868
663.57        64.31303
664.00        64.47057
664.42        64.52386
664.85        64.45856
665.27         64.3682
665.70        64.28162
666.13        64.21915
666.55        64.19787
666.98        64.19481
667.41        64.21942
667.83        64.29028
668.26        64.39599
668.69         64.5416
669.11        64.67893
669.54         64.7465
669.96        64.74074
670.39        64.59479
670.82        64.39882
671.24        64.46626
671.67        64.73652
672.09        64.78223
672.52        64.61724
672.94        64.51188
673.37        64.50183
673.80         64.4987
674.22        64.49965
674.65         64.4554
675.07        64.38317
675.50        64.31847
675.92        64.28455
676.35        64.27345
676.77        64.29345
677.20        64.35054
677.62         64.4306
678.05        64.48832
678.47        64.51486
678.90        64.53055
679.32        64.54951
679.75        64.60859
680.17        64.70609
680.60        64.82893
681.02        64.93919
681.45        64.95805
681.87        64.88583
682.30        64.74321
682.72        64.58552
683.15        64.50237
683.57         64.5177
684.00        64.54289
684.42        64.59183
684.85        64.71321
685.27         64.8814
685.70        65.12081
686.12        65.35068
686.54         65.3522
686.97        65.15409
687.39        65.09006
687.82         65.1811
688.24        65.05889
688.66        65.04224
689.09        65.02374
689.51        65.09077
689.94        65.10284
690.36        65.05802
690.78        64.99029
691.21        64.92068
691.63        64.87843
692.06        64.87318
692.48        64.88505
692.90        64.90574
693.33        64.90291
693.75         64.8755
694.17        64.86669
694.60        64.86542
695.02        64.78366
695.44        64.82062
695.87         64.7299
696.29        64.63295
696.71        64.82146
697.14         65.1963
697.56        65.27936
697.98        65.07706
698.41        65.05548
698.83          65.203
699.25        65.26652
699.68        65.22668
700.10        65.23556
700.52        65.28707
700.94        65.34783
701.37        65.37395
701.79        65.32867
702.21        65.19364
702.64        65.00996
703.06        64.83427
703.48        64.76994
703.90        64.84142
704.33        65.00556
704.75         65.2159
705.17        65.37343
705.59        65.44746
706.01        65.44463
706.44        65.38599
706.86        65.43628
707.28         65.4317
707.70        65.47083
708.12        65.51063
708.55        65.60831
708.97        65.72832
709.39        65.76698
709.81        65.72819
710.23        65.71915
710.66        65.74606
711.08        65.76417
711.50         65.7461
711.92        65.70312
712.34        65.63953
712.76        65.55166
713.19        65.47944
713.61        65.53401
714.03        65.70589
714.45        65.95785
714.87        66.20888
715.29        66.33377
715.71        66.30391
716.13        66.15922
716.56        65.93836
716.98        65.78334
717.40        65.71786
717.82        65.71744
718.24        65.77291
718.66        65.86773
719.08        65.98357
719.50        66.11672
719.92        66.25005
720.34        66.35165
720.76        66.40926
721.19        66.42183
721.61        66.38532
722.03         66.2703
722.45        66.08585
722.87         65.8464
723.29        65.62923
723.71        65.55523
724.13        65.65218
724.55        65.89331
724.97        66.18541
725.39        66.37086
725.81         66.4043
726.23        66.31866
726.65          66.201
727.07        66.19482
727.49        66.33232
727.91        66.56953
728.33        66.80611
728.75        66.87777
729.17        66.75021
729.59        66.48347
730.01        66.19744
730.43        66.08241
730.85        66.17894
731.27         66.4147
731.69        66.69706
732.10         66.8834
732.52        66.91962
732.94        66.90733
733.36        66.87644
733.78        66.77127
734.20        66.59859
734.62         66.8177
735.04        66.41644
735.46        66.72895
735.88        67.27777
736.30        67.27529
736.72        66.77516
737.13         66.5689
737.55        66.68909
737.97        66.82253
738.39        66.89958
738.81        66.71067
739.23        66.36791
739.65        66.55224
740.06        67.10162
740.48        67.26568
740.90        66.97411
741.32        66.69639
741.74        66.46005
742.16        66.38905
742.57        66.50592
742.99        66.78159
743.41        67.09018
743.83        67.21935
744.25         67.1206
744.67        66.84623
745.08        66.53319
745.50         66.3722
745.92        66.43614
746.34        66.66914
746.75         66.9426
747.17        67.06457
747.59        66.98655
748.01        66.71407
748.42        66.40461
748.84        66.38717
749.26        66.64256
749.68        66.93397
750.09        67.12571
750.51        66.99104
750.93        66.63433
751.35        66.60445
751.76        66.86996
752.18        66.88748
752.60        66.65134
753.01        66.50277
753.43        66.49013
753.85        66.56068
754.27        66.72046
754.68        66.98463
755.10         67.2662
755.52        67.41766
755.93         67.4154
756.35        67.30882
756.77        67.16673
757.18        67.13247
757.60        67.25149
758.02        67.36296
758.43         67.4444
758.85        67.66027
759.26        67.92824
759.68        67.68042
760.10        68.06714
760.51        67.04905
760.93        66.80516
761.34        66.94053
761.76         67.4264
762.18        67.65118
762.59        67.48305
763.01        67.54849
763.42        67.88817
763.84        68.00418
764.26        67.91197
764.67        67.93566
765.09        68.05499
765.50        67.85309
765.92        67.44526
766.33        67.28895
766.75        67.36526
767.16        67.40125
767.58        67.33916
768.00        67.45185
768.41        67.68955
768.83        67.72391
769.24        67.56966
769.66        67.42371
770.07        67.32848
770.49        67.38725
770.90        67.57672
771.32         67.6731
771.73        67.66471
772.15        67.67916
772.56        67.71795
772.97        67.72928
773.39         67.7019
773.80        67.60064
774.22        67.48705
774.63        67.72328
775.05         68.1832
775.46         68.3933
775.88        68.26633
776.29        68.09101
776.70         67.9455
777.12        67.85769
777.53        67.88614
777.95        68.01043
778.36        68.18024
778.77        68.29268
779.19        68.31704
779.60         68.2878
780.02        68.25842
780.43        68.30935
780.84         68.4285
781.26        68.66878
781.67        69.00382
782.09        68.99694
782.50        68.60285
782.91        69.08524
783.33        68.66316
783.74        68.67603
784.15         68.5857
784.57        68.52965
784.98        68.50589
785.39        68.50025
785.81        68.51424
786.22        68.51402
786.63        68.51186
787.04        68.57352
787.46        68.71098
787.87        68.87475
788.28        69.01357
788.70        69.08526
789.11        69.06583
789.52        68.89262
789.93        68.66402
790.35        68.73317
790.76        69.05293
791.17        69.08701
791.58        68.84615
792.00          68.753
792.41        68.83101
792.82        68.88374
793.23        68.93557
793.65        68.91122
794.06        68.93228
794.47        69.49911
794.88        70.35425
795.29        70.49511
795.71        70.30314
796.12        69.67969
796.53        68.98431
796.94        68.83672
797.35        69.23424
797.76        69.27989
798.18        68.94538
798.59        69.01105
799.00          69.501
799.41         69.4472
799.82        69.72904
800.23        69.73068
800.64        69.72168
801.06        69.60337
801.47        69.45686
801.88        69.33303
802.29        69.25421
802.70        69.24533
803.11        69.28256
803.52        69.30998
803.93        69.31487
804.34        69.30534
804.75        69.34983
805.17        69.52644
805.58         69.8605
805.99        70.34725
806.40        70.82904
806.81        70.90409
807.22         70.5852
807.63         70.2627
808.04        70.04991
808.45        69.87137
808.86        69.78146
809.27        69.90381
809.68         70.1452
810.09        70.24683
810.50        70.15788
810.91        69.96633
811.32        69.76118
811.73         69.6968
812.14        69.81696
812.55        70.01652
812.96         70.2391
813.37        70.50364
813.78        70.71772
814.19        70.66601
814.60        70.41192
815.01         70.2559
815.42        70.23574
815.83         70.2034
816.24        70.14322
816.65        70.10539
817.05        70.09583
817.46        70.07108
817.87        70.08615
818.28         70.1681
818.69        70.31618
819.10        70.52586
819.51        70.73317
819.92         70.8211
820.33        70.76421
820.74        70.59502
821.14        70.40388
821.55        70.37193
821.96        70.51564
822.37        70.78138
822.78        71.08051
823.19        71.24978
823.60        71.23284
824.00        71.10532
824.41        70.86773
824.82        70.60728
825.23        70.36848
825.64        70.14273
826.04        70.00134
826.45        70.02542
826.86        70.23142
827.27        70.58898
827.68        71.00779
828.08        71.35912
828.49         71.5235
828.90        71.56351
829.31         71.5079
829.72        71.42082
830.12        71.35566
830.53        71.25111
830.94        71.14693
831.35        71.07816
831.75        71.07484
832.16         71.0966
832.57        71.14586
832.97        71.17836
833.38        71.17339
833.79        71.15105
834.20        71.11945
834.60         71.0861
835.01        71.07251
835.42        71.07232
835.82        71.11829
836.23        71.19362
836.64        71.31622
837.04        71.49046
837.45        71.66069
837.86        71.83316
838.26        72.00538
838.67        72.16161
839.08         72.2662
839.48        72.24965
839.89        72.10751
840.29        71.85941
840.70        71.60743
841.11        71.51597
841.51         71.6379
841.92        71.90099
842.33        72.19325
842.73        72.31517
843.14        72.17138
843.54        71.85243
843.95        71.49747
844.35         71.3515
844.76        71.46383
845.17        71.75736
845.57        72.10664
845.98        72.26855
846.38        72.20033
846.79        71.95672
847.19        71.65226
847.60        71.42278
848.00        71.34347
848.41        71.33848
848.81        71.40193
849.22        71.45459
849.62        71.50233
850.03        71.54233
850.43        71.59042
850.84        71.58388
851.24        71.56088
851.65        71.47417
852.05        71.40375
852.46        71.39339
852.86        71.45296
853.27        71.58312
853.67        71.67364
854.07         71.7366
854.48          71.725
854.88        71.68344
855.29        71.54504
855.69         71.3871
856.10        71.15074
856.50        70.91322
856.90        70.67969
857.31        70.48752
857.71        70.39585
858.12        70.34189
858.52        70.36668
858.92         70.4067
859.33         70.4259
859.73        70.47064
860.13         70.4874
860.54        70.40886
860.94        70.26177
861.34        70.03326
861.75        69.76957
862.15        69.61285
862.55        69.56162
862.96        69.59486
863.36        69.64174
863.76        69.56828
864.17        69.34303
864.57        69.03482
864.97        68.73073
865.38        68.54607
865.78        68.55975
866.18        68.70988
866.58        68.93148
866.99        69.12269
867.39        69.25938
867.79        69.32431
868.19        69.33857
868.60         69.3028
869.00        69.21456
869.40        69.10812
869.80        68.96619
870.21        68.77816
870.61        68.63744
871.01        68.50269
871.41         68.4539
871.81        68.59892
872.22        68.91743
872.62        69.40136
873.02        69.92209
873.42        70.21995
873.82        70.21337
874.22        69.98563
874.63        69.67982
875.03        69.48737
875.43         69.4648
875.83        69.53959
876.23        69.67951
876.63        69.82901
877.03        69.95483
877.44        70.08328
877.84        70.16106
878.24        70.06468
878.64        69.79092
879.04        69.38065
879.44        68.98576
879.84        68.82479
880.24        68.92863
880.64        69.23573
881.04         69.5976
881.44        69.75231
881.84        69.62014
882.24        69.26514
882.65        68.80287
883.05        68.53619
883.45        68.50593
883.85        68.64288
884.25        68.81824
884.65        68.83817
885.05        68.66322
885.45        68.35802
885.85         68.0529
886.25        67.96679
886.65        68.14906
887.05        68.51613
887.45        68.91219
887.85        69.10503
888.25        69.03973
888.65        68.79163
889.04        68.46687
889.44        68.28912
889.84        68.29886
890.24        68.41534
890.64        68.57348
891.04        68.67599
891.44        68.68813
891.84        68.66044
892.24        68.57178
892.64        68.37897
893.04        68.09932
893.44        67.75163
893.83         67.4718
894.23        67.41336
894.63        67.62867
895.03        68.05707
895.43        68.55882
895.83        68.89703
896.23        69.00342
896.63        68.94514
897.02        68.80269
897.42        68.73853
897.82        68.78507
898.22        68.89861
898.62        69.04563
899.01        69.18597
899.41        69.28027
899.81        69.35268
900.21        69.41874
900.61        69.49574
901.00        69.57681
901.40        69.67357
901.80        69.74053
902.20        69.72291
902.59        69.62944
902.99         69.4679
903.39        69.32014
903.79        69.30882
904.18        69.44346
904.58        69.66932
904.98        69.89995
905.38        70.01458
905.77        69.96908
906.17        69.81046
906.57        69.54556
906.96        69.21133
907.36        68.82561
907.76        68.41777
908.15        68.05695
908.55          67.786
908.95        67.65482
909.34        67.62965
909.74        67.74585
910.14        67.98253
910.53         68.3202
910.93        68.74565
911.33        69.14028
911.72         69.3137
912.12          69.213
912.52        68.89757
912.91        68.54889
913.31         68.4618
913.70        68.68304
914.10         69.1268
914.49        69.62617
914.89        69.81177
915.29        69.60703
915.68        69.13904
916.08        68.61404
916.47        68.34602
916.87        68.43393
917.26        68.74596
917.66        69.18382
918.05        69.56358
918.45        69.80188
918.84        69.97223
919.24        70.03664
919.64        70.01074
920.03        69.93036
920.42        69.78941
920.82        69.62884
921.21        69.51105
921.61        69.44691
922.00        69.43481
922.40        69.51306
922.79        69.80434
923.19        70.25906
923.58        70.85506
923.98        71.36607
924.37        71.51279
924.77        71.24236
925.16        70.63786
925.55        69.92874
925.95        69.52168
926.34        69.53711
926.74        69.83588
927.13        70.30356
927.52        70.64654
927.92        70.79131
928.31        70.82251
928.70        70.76974
929.10        70.65882
929.49        70.51495
929.89        70.27785
930.28        70.07523
930.67        70.03728
931.07        70.17208
931.46        70.46063
931.85        70.73861
932.24        70.77213
932.64        70.51814
933.03        70.06893
933.42         69.5513
933.82        69.16586
934.21        68.99026
934.60        68.97649
934.99        69.10708
935.39        69.33002
935.78        69.63357
936.17        70.00636
936.56        70.39767
936.96        70.69987
937.35         70.9175
937.74        71.03352
938.13        71.03849
938.53        70.93867
938.92        70.75992
939.31        70.49523
939.70        70.23872
940.09        70.15311
940.49        70.24377
940.88        70.49648
941.27        70.76792
941.66        70.83218
942.05        70.65116
942.44        70.31806
942.84        69.94436
943.23        69.66016
943.62        69.53472
944.01        69.48263
944.40        69.52956
944.79        69.71993
945.18        70.01485
945.57        70.40307
945.97         70.6347
946.36        70.39876
946.75        69.63903
947.14        68.47124
947.53        67.24951
947.92        66.60548
948.31        66.72089
948.70        67.40846
949.09        68.34856
949.48        69.02779
949.87        69.28393
950.26        69.25341
950.65        69.06586
951.04        68.93257
951.43        68.92399
951.82        68.95305
952.21        68.95897
952.60        68.87057
952.99        68.66946
953.38          68.402
953.77        68.13868
954.16        67.95911
954.55        67.87722
954.94        67.87206
955.33        67.84888
955.72        67.65826
956.11        67.26183
956.50        66.68578
956.89        66.07513
957.28        65.68111
957.66        65.60644
958.05        65.79938
958.44         66.0616
958.83        66.06158
959.22        65.73056
959.61        65.14234
960.00        64.59871
960.39        64.57793
960.78        65.15837
961.16        66.21703
961.55        67.27218
961.94         67.5894
962.33        66.99895
962.72        65.78683
963.11        64.46515
963.49        63.78215
963.88        63.92655
964.27        64.68504
964.66        65.77794
965.04        66.70565
965.43        67.17861
965.82        67.37078
966.21        67.41422
966.60        67.53124
966.98        67.78458
967.37         68.0195
967.76        68.16058
968.15         68.0804
968.53        67.77765
968.92        67.38876
969.31        66.95496
969.69         66.4835
970.08         66.0158
970.47        65.55731
970.86        65.40331
971.24        66.05363
971.63        67.44264
972.02        69.32701
972.40        71.17926
972.79         72.1517
973.17        72.20089
973.56        71.48818
973.95        70.43962
974.33        69.79746
974.72        69.80216
975.11        70.21919
975.49        70.76277
975.88        70.98438
976.26        70.74035
976.65        70.20129
977.04        69.46515
977.42        68.65055
977.81        67.81167
978.19        66.89616
978.58        66.17735
978.96         66.0652
979.35        66.60574
979.74        67.71054
980.12        69.01959
980.51        69.71181
980.89        69.68923
981.28        69.04943
981.66        68.15195
982.05        67.73213
982.43        67.98818
982.82        68.64375
983.20        69.42183
983.59        69.72205
983.97         69.4951
984.35        68.91091
984.74        68.15034
985.12        67.50418
985.51        67.11257
985.89        66.91715
986.28        66.94725
986.66        67.34137
987.04        68.03069
987.43         68.9341
987.81        69.87162
988.20        70.42057
988.58        70.49865
988.96        70.21381
989.35        69.60877
989.73        68.86378
990.12        68.02008
990.50        66.96205
990.88        65.98962
991.27        65.76683
991.65         66.4418
992.03        67.84927
992.42        69.15918
992.80        69.59731
993.18        68.92201
993.56        67.24227
993.95        65.17628
994.33         64.1906
994.71        64.95729
995.10        66.70423
995.48        68.51801
995.86        69.34582
996.24        69.08412
996.63        68.01753
997.01        66.54183
997.39         65.4938
997.77         65.3216
998.15        65.77665
998.54        66.45599
998.92         66.8488
999.30        66.80049
999.68        66.48493
1000.06        66.16752
1000.45        66.22817
1000.83        66.81106
1001.21        67.68715
1001.59         68.5179
1001.97        68.83032
1002.35        68.55419
1002.73        67.89499
1003.12         67.1105
1003.50        66.58605
1003.88        66.58815
1004.26        66.89587
1004.64          67.542
1005.02        68.62904
1005.40        70.08791
1005.78        71.90398
1006.16        73.53398
1006.54        73.96323
1006.92        72.95473
1007.30        70.81672
1007.69        68.35683
1008.07        66.86236
1008.45        66.79081
1008.83        67.73664
1009.21         69.1189
1009.59         70.0718
1009.97        70.31081
1010.35        70.06403
1010.73        69.39162
1011.11        68.50706
1011.49        67.65771
1011.86         66.8829
1012.24        66.17789
1012.62        65.79335
1013.00         65.7393
1013.38        66.01894
1013.76        66.54226
1014.14        67.08823
1014.52        67.60979
1014.90        68.19658
1015.28        68.82588
1015.66        69.46758
1016.04        70.05019
1016.41        70.48293
1016.79        70.78943
1017.17        71.44269
1017.55        72.46988
1017.93        73.84261
1018.31        74.93777
1018.69         74.7187
1019.06        73.01499
1019.44        69.98392
1019.82        66.72852
1020.20        65.63679
1020.58        67.31606
1020.95        70.72386
1021.33        74.20896
1021.71        75.59122
1022.09        74.53193
1022.46        71.79997
1022.84        68.06274
1023.22        64.34474
1023.60        61.16814
1023.97        57.92852
1024.35         55.5863
1024.73        55.62483
