SpectraSmart Spectrum 2.9.0.0
--------- Device Information -----------
Spectrum Name :  反射率_0
Saving Time :  2024/04/28 00:10:21
Spectro-Module Model Name : SE2030-DUVN
Spectro-Module Serial Number : OS361AC55029948
Wavelength Start : 200
Wavelength End : 1025
Wavelength Unit : Wavelength(nm)
Spectrum Unit : Reflectance(%)
-----------Spectrum Setting ------------
Integration Time : 20ms
Average : 10
Boxcar : 0
Background removal :  enabled
linearity correction :  enabled
SC :  disabled
Intensity correction :  disabled
DWT denoise :  enabled
savitzky-golay :  disabled
FFT :  disabled
Running average :  disabled
Kalman :  disabled
High pass :  disabled
---------------BEGIN--------------------
Wavelength(nm)             Reflectance(%)
200.29               0
200.75        91.19121
201.21        89.72807
201.67          87.504
202.13        82.25389
202.58        74.49511
203.04        65.72017
203.50        59.93433
203.96         62.9883
204.42        73.24017
204.88        86.04305
205.34        97.20692
205.80         103.727
206.26         105.881
206.72        104.6488
207.18        98.98423
207.64        90.74094
208.10        85.50943
208.55        84.00547
209.01        83.59451
209.47        82.63423
209.93        80.11783
210.39        74.00487
210.85        56.33514
211.31        36.35034
211.77        62.64255
212.23         79.2299
212.69        84.28806
213.14        84.46677
213.60        80.81446
214.06         73.0666
214.52        60.44403
214.98        53.31188
215.44        60.47641
215.90        71.48881
216.36        79.68559
216.81        83.47321
217.27        84.21207
217.73        83.49147
218.19        81.10136
218.65        76.38252
219.11        69.35384
219.57        59.60458
220.02        49.30433
220.48         45.4351
220.94        49.71629
221.40        59.25851
221.86        69.18642
222.32          74.649
222.77        75.65952
223.23         74.1507
223.69        71.88992
224.15        70.66267
224.61        70.70879
225.06        71.20129
225.52        71.80652
225.98        71.55947
226.44        70.40692
226.90        68.95183
227.36        67.57363
227.81        66.31703
228.27        65.11166
228.73        63.76709
229.19         62.0362
229.65        59.69762
230.10        56.93012
230.56        54.36335
231.02        52.43396
231.48        51.72644
231.93        52.16801
232.39         53.4999
232.85        55.43323
233.31        57.64826
233.77        59.88497
234.22         62.1669
234.68        64.03757
235.14        64.99048
235.60        65.01918
236.05        64.17684
236.51        63.09163
236.97        63.18063
237.43        64.92086
237.88        68.02545
238.34        71.20205
238.80        73.43854
239.26        74.60545
239.71        75.00511
240.17        74.66628
240.63         74.8321
241.08        76.27364
241.54        77.68065
242.00        78.56714
242.46        78.86382
242.91        78.76119
243.37        78.10323
243.83        76.72006
244.28        75.33231
244.74         75.9142
245.20        78.09268
245.66        79.63775
246.11          79.814
246.57        78.81348
247.03        76.60138
247.48         73.0201
247.94         70.2428
248.40         70.9369
248.85        74.01696
249.31        78.14059
249.77        82.02579
250.22        85.31007
250.68        88.21449
251.14        90.80948
251.59        93.59588
252.05        97.17668
252.51        101.6552
252.96        107.0728
253.42        111.6992
253.88        112.7604
254.33        110.8242
254.79        107.3503
255.25        102.1313
255.70        95.66785
256.16        89.36787
256.62        84.72698
257.07        83.51643
257.53        85.27173
257.99        87.86511
258.44         89.5033
258.90        89.27788
259.35        87.05222
259.81        84.22922
260.27        81.24954
260.72        78.70232
261.18         77.1254
261.63        75.84337
262.09        75.00022
262.55        74.25137
263.00        73.39816
263.46        72.68108
263.91        71.89999
264.37        71.24055
264.83        70.59734
265.28        69.88198
265.74        69.14015
266.19        68.12134
266.65        66.92489
267.11         65.5643
267.56        64.13538
268.02        62.92043
268.47        61.92729
268.93        61.09858
269.38        60.35773
269.84        59.62228
270.30        58.83723
270.75         58.0333
271.21        57.14156
271.66        55.99076
272.12        54.60919
272.57        53.00523
273.03        51.43457
273.48        50.19481
273.94        49.40843
274.39        48.92582
274.85        48.56913
275.31        47.96175
275.76        47.01296
276.22        45.88964
276.67        44.73474
277.13        43.89029
277.58        43.33302
278.04        43.00535
278.49        42.65006
278.95        42.05182
279.40        41.11664
279.86        40.02704
280.31         38.9271
280.77        38.16938
281.22        37.75372
281.68        37.61885
282.13        37.54985
282.59        37.33157
283.04        36.88958
283.50        36.33421
283.95        35.77497
284.41        35.43535
284.86        35.33298
285.32        35.41231
285.77        35.52864
286.22        35.53704
286.68        35.41969
287.13        35.18519
287.59        34.95115
288.04        34.80109
288.50        34.79087
288.95        34.84942
289.41        34.92365
289.86        34.87535
290.32        34.71815
290.77        34.49749
291.22          34.326
291.68        34.35345
292.13        34.60914
292.59        35.08258
293.04        35.70307
293.50        36.38833
293.95        37.10415
294.40        37.88864
294.86        38.80229
295.31        39.92776
295.77        41.27999
296.22        42.79281
296.68        44.38668
297.13        45.90712
297.58        47.30839
298.04        48.63273
298.49        49.91832
298.95        51.27869
299.40        52.74852
299.85        54.31845
300.31        56.00996
300.76        57.78879
301.21        59.63385
301.67        61.55518
302.12        63.46282
302.58        65.32249
303.03        67.08279
303.48         68.7675
303.94        70.46232
304.39         72.2112
304.84        74.04884
305.30        75.96247
305.75        77.82732
306.20        79.55098
306.66        81.14124
307.11        82.59541
307.57        84.02159
308.02        85.45804
308.47          86.937
308.93        88.42834
309.38        89.86266
309.83        91.24226
310.29        92.57877
310.74         93.8611
311.19        95.06258
311.65        96.11038
312.10        96.96243
312.55        97.63993
313.00        98.24927
313.46        98.97043
313.91        99.81889
314.36         100.759
314.82        101.6486
315.27        102.2477
315.72         102.514
316.18        102.5533
316.63        102.5121
317.08        102.6584
317.53        103.0645
317.99        103.6407
318.44        104.2996
318.89        104.8711
319.35        105.2929
319.80        105.6236
320.25        105.8817
320.70        106.1033
321.16        106.2964
321.61        106.4587
322.06         106.603
322.51         106.772
322.97        106.9577
323.42        107.1929
323.87        107.4378
324.32        107.6398
324.78        107.7728
325.23        107.8959
325.68        108.0163
326.13        108.1752
326.59        108.3599
327.04        108.6003
327.49         108.879
327.94        109.2059
328.39         109.575
328.85        109.9511
329.30        110.3554
329.75        110.6604
330.20        110.8427
330.66         110.894
331.11        110.9568
331.56        111.1451
332.01        111.5049
332.46        112.0099
332.92        112.5348
333.37        113.0117
333.82        113.3498
334.27        113.5873
334.72        113.8168
335.17        114.1941
335.63        114.7292
336.08        115.4221
336.53        116.1426
336.98        116.7234
337.43        117.1188
337.88        117.3824
338.34        117.5823
338.79         117.888
339.24        118.3244
339.69        118.8415
340.14         119.392
340.59        119.8988
341.05        120.3388
341.50         120.759
341.95        121.1492
342.40        121.5058
342.85        121.8372
343.30         122.124
343.75        122.4308
344.20        122.8658
344.66         123.439
345.11        124.1139
345.56        124.7417
346.01        125.0794
346.46        125.0917
346.91        124.8652
347.36        124.5991
347.81        124.6036
348.26        124.9384
348.72        125.4937
349.17        126.0982
349.62        126.4979
350.07        126.6141
350.52        126.5384
350.97        126.3311
351.42        126.0862
351.87         125.856
352.32        125.6111
352.77         125.398
353.22        125.2973
353.67        125.3045
354.13        125.3995
354.58        125.4622
355.03        125.3575
355.48        125.0389
355.93        124.5404
356.38         123.901
356.83        123.1872
357.28        122.4408
357.73        121.6724
358.18        120.9051
358.63        120.1667
359.08        119.4762
359.53        118.8418
359.98        118.2859
360.43         117.836
360.88        117.4714
361.33         117.148
361.78        116.8026
362.23        116.3346
362.68        115.7118
363.13        114.9797
363.58        114.1376
364.03        113.1295
364.48        112.0891
364.93        110.9584
365.38        109.8703
365.83        108.9796
366.28        108.3124
366.73        107.8229
367.18        107.3963
367.63        106.8405
368.08        106.1043
368.53        105.2441
368.98        104.3324
369.43        103.4906
369.88        102.7591
370.33        102.0974
370.78         101.484
371.23        100.8872
371.68        100.2897
372.13        99.70404
372.58        99.12272
373.03        98.53008
373.48        97.92203
373.93        97.29552
374.38        96.65562
374.83        96.01196
375.28        95.36908
375.72        94.71459
376.17        94.08024
376.62        93.44218
377.07        92.80335
377.52        92.16342
377.97        91.55363
378.42          91.024
378.87        90.57583
379.32        90.19093
379.77        89.80474
380.22        89.31357
380.67        88.69839
381.11        87.99949
381.56        87.28218
382.01        86.66988
382.46        86.20993
382.91        85.87563
383.36        85.62692
383.81        85.39474
384.26        85.15019
384.71        84.90654
385.15        84.65794
385.60        84.45412
386.05        84.27519
386.50        84.09914
386.95        83.89319
387.40        83.62184
387.85        83.28275
388.29         82.8419
388.74        82.42797
389.19        82.02718
389.64         81.6348
390.09        81.22933
390.54        80.80022
390.98        80.31828
391.43        79.85028
391.88        79.41075
392.33        78.97884
392.78        78.62185
393.23        78.36386
393.67        77.92876
394.12        77.44315
394.57        77.77937
395.02        77.67882
395.47        77.59615
395.91        77.20586
396.36        76.96546
396.81        76.90083
397.26        76.78032
397.71        76.59676
398.15         76.4163
398.60        76.31767
399.05        76.11857
399.50        75.87713
399.95        75.88162
400.39        76.02589
400.84        75.80003
401.29        75.24006
401.74        74.65854
402.18        74.22404
402.63        74.15845
403.08        74.35271
403.53        74.26588
403.97         73.8484
404.42        73.44622
404.87        73.15633
405.32        72.99619
405.76        72.97336
406.21        73.07994
406.66        73.21101
407.11        73.19664
407.55        73.01823
408.00        72.73926
408.45        72.42642
408.90        72.02789
409.34        71.63085
409.79        71.49548
410.24        71.57529
410.68        71.61268
411.13          71.576
411.58         71.6069
412.03        71.69701
412.47        71.77461
412.92        71.79796
413.37        71.79149
413.81        71.73763
414.26        71.67529
414.71        71.59391
415.15        71.50588
415.60        71.39648
416.05        71.30647
416.49        71.25145
416.94         71.2143
417.39        71.19206
417.83        71.16958
418.28        71.13469
418.73        71.08277
419.17        71.01429
419.62        70.93369
420.07        70.85282
420.51         70.7747
420.96        70.70959
421.41         70.6456
421.85        70.56277
422.30        70.43673
422.74        70.30477
423.19        70.50707
423.64        70.95141
424.08        71.20423
424.53        71.15298
424.98        71.14382
425.42        71.19326
425.87        71.03308
426.31        70.74532
426.76         70.6327
427.21        70.68787
427.65        70.71752
428.10        70.70844
428.54        70.74478
428.99        70.85091
429.44        71.08045
429.88        71.30766
430.33        71.13552
430.77        70.65137
431.22        70.57226
431.66        70.88528
432.11        71.05175
432.56        71.06202
433.00        71.36205
433.45        71.72353
433.89        71.65296
434.34        71.16135
434.78        70.96255
435.23        70.02805
435.67        70.81152
436.12        71.44956
436.57        71.82064
437.01        71.56762
437.46        71.33691
437.90        71.60687
438.35        72.20663
438.79        71.58685
439.24        71.67549
439.68         71.9378
440.13        71.93573
440.57        71.69112
441.02         71.8227
441.46        72.22625
441.91        72.13536
442.35        71.65776
442.80        71.85147
443.24        72.57825
443.69         72.8743
444.13        72.67425
444.58        72.64705
445.02        72.75483
445.47        72.70929
445.91        72.54946
446.36        72.38914
446.80        72.20747
447.24        72.56145
447.69        72.29408
448.13        72.53253
448.58        72.83649
449.02        72.81175
449.47        72.52703
449.91        72.43295
450.36        72.58347
450.80        72.68517
451.25        72.71793
451.69        72.74966
452.13        72.75993
452.58        72.66798
453.02        72.49787
453.47        72.34901
453.91        72.23174
454.36        72.12719
454.80        72.12041
455.24        71.77969
455.69        71.29648
456.13        70.99644
456.58        70.94328
457.02        71.15076
457.46         71.3737
457.91        71.25099
458.35        71.02449
458.79         70.8135
459.24        70.71587
459.68        70.52798
460.13        70.30035
460.57        69.94704
461.01        69.81631
461.46        69.70689
461.90        69.32577
462.34        69.60855
462.79        69.76552
463.23         69.7962
463.68        69.54281
464.12        69.34244
464.56        69.26665
465.01        69.45055
465.45        69.71233
465.89        69.60667
466.34        69.18718
466.78         69.0113
467.22        68.85568
467.67         68.6904
468.11        68.63916
468.55        68.40612
468.99        68.10688
469.44        67.93966
469.88        67.91999
470.32        67.90095
470.77        67.85037
471.21          67.804
471.65        67.74398
472.10        67.67695
472.54        67.57393
472.98        67.44033
473.42        67.28888
473.87        67.10059
474.31        66.89794
474.75        66.91048
475.20        67.10026
475.64        67.14769
476.08        67.08094
476.52        67.10832
476.97        67.28359
477.41        67.12579
477.85         66.7559
478.29        67.19816
478.74        67.15185
479.18        66.42902
479.62        67.04594
480.06        66.95705
480.50        66.86426
480.95        66.84122
481.39        66.87596
481.83        66.68752
482.27        66.79647
482.72         66.4605
483.16        66.46957
483.60         66.3956
484.04         66.3856
484.48        66.45461
484.93        66.79372
485.37        66.90944
485.81        66.65286
486.25        67.83076
486.69        69.39659
487.14        67.71237
487.58        66.90856
488.02        66.47269
488.46        66.61008
488.90        66.92237
489.34        65.76036
489.79        65.63182
490.23        65.72716
490.67        66.01685
491.11        66.23616
491.55         66.1463
491.99         65.8056
492.43        65.64182
492.88        65.69745
493.32        65.71842
493.76        65.66447
494.20        65.66457
494.64         65.7255
495.08        65.71223
495.52         65.6787
495.96        65.91225
496.41        66.30008
496.85        66.33292
497.29         66.0229
497.73         65.8251
498.17        65.73208
498.61         65.9091
499.05         66.2049
499.49        66.25539
499.93        66.07092
500.37        65.79235
500.82        65.48266
501.26         65.4824
501.70        65.96828
502.14        65.21458
502.58        65.61053
503.02        65.59821
503.46        65.59901
503.90        65.65678
504.34        65.65289
504.78        65.62852
505.22        65.53696
505.66        65.20283
506.10         64.7972
506.54        64.85197
506.98        65.28069
507.42        65.57095
507.86        65.64021
508.30        65.32922
508.74        65.64139
509.18        65.47733
509.62        65.19737
510.06        65.01324
510.50        64.96883
510.94        64.98544
511.38        65.02491
511.82        65.05431
512.26        65.05429
512.70        65.05138
513.14        65.05469
513.58        65.04407
514.02        65.01849
514.46        65.02155
514.90        65.06942
515.34        64.96185
515.78        65.07233
516.22        65.09016
516.66        65.11844
517.10        65.13345
517.54        65.13097
517.98        65.11259
518.42        65.06493
518.86        64.97742
519.30        64.85516
519.74         64.7093
520.18         64.5729
520.62         64.4949
521.06        64.48711
521.50        64.53759
521.93        64.62251
522.37        64.68649
522.81        64.71754
523.25        64.72398
523.69        64.71805
524.13        64.72221
524.57        64.73969
525.01        64.75712
525.45        64.76263
525.89        64.74039
526.32        64.68431
526.76         64.6191
527.20        64.54779
527.64        64.48976
528.08        64.45319
528.52        64.40593
528.96        64.36413
529.40        64.41358
529.83          64.517
530.27        64.54095
530.71        64.47743
531.15        64.44082
531.59         64.4351
532.03        64.39075
532.46        64.31716
532.90        64.28882
533.34        64.30797
533.78        64.35223
534.22        64.41033
534.66        64.46504
535.09        64.50005
535.53        64.54024
535.97        64.56409
536.41        64.55182
536.85        64.50365
537.28        64.42747
537.72        64.35255
538.16        64.31876
538.60        64.33615
539.04        64.40376
539.47         64.4724
539.91        64.50469
540.35        64.47519
540.79        64.41058
541.22        64.32179
541.66         64.2591
542.10        64.19356
542.54        64.14648
542.97        64.11263
543.41        64.13997
543.85        64.21548
544.29        64.33045
544.72        64.42968
545.16        64.45885
545.60         64.3904
546.04        64.23862
546.47        64.05629
546.91        63.93153
547.35        63.88012
547.79        63.91134
548.22        63.95825
548.66        63.88266
549.10         63.7092
549.53        63.69516
549.97        63.84506
550.41        63.93386
550.84        63.93774
551.28        64.03708
551.72        64.20026
552.15        64.16528
552.59        63.91071
553.03        64.02483
553.46        63.61461
553.90        63.59661
554.34        63.69559
554.77        63.90888
555.21        64.13148
555.65        64.21241
556.08        64.06427
556.52        63.89548
556.96        63.74752
557.39        63.72303
557.83        63.81906
558.27        63.83799
558.70        63.76473
559.14        63.74257
559.57        63.75753
560.01        63.74099
560.45         63.6856
560.88        63.66544
561.32        63.72734
561.75        63.70567
562.19        63.65289
562.63        63.82427
563.06        64.11077
563.50        64.01958
563.93        63.62031
564.37        63.49332
564.80        63.64367
565.24        63.83158
565.68        63.99269
566.11        64.07204
566.55        64.05904
566.98        64.18761
567.42        64.06861
567.85        64.06633
568.29        64.10894
568.72        64.06892
569.16        64.00256
569.60        64.11835
570.03        64.43262
570.47        64.32406
570.90        64.58109
571.34        64.84816
571.77        64.95318
572.21        64.72418
572.64        64.97057
573.08        64.70348
573.51        64.57355
573.95        64.88968
574.38        65.22265
574.82        65.11619
575.25        64.96458
575.69        64.97729
576.12        64.76089
576.56        64.85381
576.99        65.06033
577.42        64.88999
577.86        65.33562
578.29        65.54574
578.73        65.45017
579.16        65.25326
579.60        64.86951
580.03        64.75166
580.47        64.79195
580.90        65.39872
581.33        65.49497
581.77        65.46898
582.20        65.95249
582.64        66.19131
583.07        65.65428
583.51        65.19636
583.94        64.89428
584.37        64.68542
584.81        64.71473
585.24        64.96018
585.68        65.27833
586.11        65.35743
586.54        65.31121
586.98        64.73974
587.41        65.08783
587.85        65.17368
588.28        64.95146
588.71        65.11716
589.15         65.1282
589.58        64.35339
590.01        64.26347
590.45        64.55565
590.88        63.93986
591.31        63.96569
591.75        64.07678
592.18        63.99561
592.61        63.98016
593.05        64.19678
593.48        65.34138
593.91        64.97302
594.35        64.82004
594.78        64.75255
595.21        64.17222
595.65        64.29298
596.08        64.43388
596.51        64.67985
596.94        64.19209
597.38        64.19211
597.81        64.57837
598.24        64.24323
598.68         64.2915
599.11        64.47556
599.54        64.80582
599.97        64.70296
600.41        64.61581
600.84        64.55299
601.27        64.68198
601.70          64.258
602.14        64.06486
602.57        64.28413
603.00        64.42835
603.43        64.56676
603.87        64.77662
604.30        64.64249
604.73        64.43856
605.16        64.36344
605.60        64.31324
606.03        64.50694
606.46        64.77659
606.89        64.66235
607.32        64.41529
607.76        64.54597
608.19        64.44685
608.62        64.41054
609.05        64.26142
609.48        64.26422
609.92        64.38869
610.35         64.1606
610.78          64.356
611.21        63.81099
611.64        64.20018
612.07        64.11681
612.50        63.99974
612.94        63.96125
613.37        64.03755
613.80        64.01726
614.23        64.06004
614.66        64.13628
615.09        64.23286
615.52        64.28271
615.96        64.32352
616.39        63.88198
616.82         64.1198
617.25        63.96504
617.68        63.88441
618.11        63.77503
618.54        63.74368
618.97        63.80514
619.40        63.84633
619.84         64.1454
620.27        63.99245
620.70         63.8582
621.13        63.49564
621.56        63.91012
621.99        63.60013
622.42        63.45889
622.85        63.61362
623.28        63.87259
623.71        63.82531
624.14        63.12508
624.57        63.89495
625.00        63.59627
625.43        63.47968
625.86        63.39624
626.29        63.58384
626.72        63.29659
627.15        63.37046
627.58        63.38042
628.01        63.60884
628.44        63.18499
628.87        63.07133
629.30        63.33443
629.73        63.23462
630.16        63.02361
630.59        63.20657
631.02        63.25748
631.45        63.36628
631.88        63.42955
632.31        63.45306
632.74        63.30762
633.17        63.29861
633.60        63.21684
634.03        63.16306
634.46        63.10947
634.89        63.06467
635.32        63.06395
635.75        63.10918
636.18        63.08448
636.61        63.21384
637.04        63.15645
637.47        63.01635
637.89        62.98032
638.32        63.03686
638.75        63.05499
639.18        63.03133
639.61        63.05271
640.04        63.10708
640.47         63.1449
640.90        63.16127
641.33        63.14442
641.76        63.08383
642.18        63.11985
642.61        63.00424
643.04        62.93431
643.47        62.85751
643.90        62.81173
644.33        62.80208
644.76          62.824
645.18        62.85775
645.61        62.85563
646.04        62.80956
646.47        62.72863
646.90        62.64315
647.33        62.60556
647.75        62.63488
648.18        62.71392
648.61        62.79998
649.04        62.87342
649.47        62.91141
649.89        62.78585
650.32         62.5796
650.75        62.66737
651.18        62.97478
651.61        63.00174
652.03         62.7388
652.46        62.50732
652.89         62.4398
653.32        62.35323
653.74        62.67745
654.17        62.71817
654.60        62.99124
655.03        62.65591
655.46        62.80327
655.88        63.32088
656.31        66.25789
656.74        70.11803
657.16        68.21125
657.59        66.38474
658.02        64.23695
658.45        64.02728
658.87        63.68978
659.30        63.57619
659.73        62.99492
660.15        62.92212
660.58        62.93071
661.01        63.22385
661.44        63.50781
661.86        63.53197
662.29        63.28402
662.72        63.03558
663.14        62.89783
663.57        62.92706
664.00        63.09007
664.42        63.14761
664.85        63.08376
665.27        63.05482
665.70        63.06788
666.13        63.06036
666.55         63.0357
666.98        63.00228
667.41        62.96846
667.83        62.95039
668.26        62.94638
668.69        62.96244
669.11        62.99731
669.54        63.04951
669.96         63.1207
670.39        63.17075
670.82        63.21738
671.24        63.33647
671.67        63.49292
672.09        63.56125
672.52        63.54234
672.94        63.44574
673.37        63.32078
673.80        63.27029
674.22        63.30562
674.65        63.28764
675.07        63.23214
675.50        63.21625
675.92        63.24802
676.35        63.27823
676.77        63.30667
677.20         63.3467
677.62        63.39009
678.05        63.40646
678.47        63.39273
678.90        63.36336
679.32         63.3391
679.75         63.3681
680.17        63.45458
680.60        63.58718
681.02        63.71548
681.45        63.75847
681.87        63.71465
682.30        63.54533
682.72        63.33383
683.15        63.35073
683.57        63.56676
684.00        63.57664
684.42        63.41721
684.85        63.46719
685.27        63.72029
685.70        63.96105
686.12        64.11942
686.54        64.22041
686.97        64.23917
687.39        64.15909
687.82         64.0021
688.24        63.90403
688.66        63.80705
689.09        63.76597
689.51        63.76202
689.94        63.77596
690.36        63.81168
690.78        63.83211
691.21        63.84064
691.63        63.93507
692.06        64.06097
692.48        63.96522
692.90        63.71243
693.33        63.61401
693.75        63.69965
694.17        63.81391
694.60        63.89429
695.02        63.94336
695.44        63.93866
695.87        63.85344
696.29        63.75314
696.71        63.82233
697.14        64.02321
697.56        64.14039
697.98        64.14821
698.41        64.23174
698.83        64.36478
699.25        64.44868
699.68        64.46196
700.10        64.47961
700.52        64.49374
700.94        64.48935
701.37        64.44194
701.79        64.35072
702.21        64.20459
702.64        64.02952
703.06        63.86673
703.48        63.79116
703.90        63.82529
704.33        63.95134
704.75        64.11684
705.17        64.21203
705.59        64.20541
706.01         64.0936
706.44        63.96637
706.86        64.06362
707.28        64.22198
707.70        64.60529
708.12        65.01362
708.55         65.0292
708.97        64.69254
709.39        64.50822
709.81        64.53673
710.23        64.48519
710.66         64.3745
711.08        64.44144
711.50        64.61954
711.92        64.70155
712.34        64.66313
712.76        64.56524
713.19          64.464
713.61        64.49397
714.03        64.65862
714.45        64.90262
714.87        65.14854
715.29        65.28664
715.71        65.28857
716.13        65.19095
716.56        65.02251
716.98        64.90468
717.40        64.85345
717.82        64.84749
718.24        64.88187
718.66         64.9481
719.08        65.03375
719.50        65.13754
719.92        65.24381
720.34        65.32288
720.76        65.36442
721.19        65.36681
721.61        65.33745
722.03        65.26303
722.45        65.15364
722.87        65.02024
723.29        64.90876
723.71        64.88992
724.13        64.97778
724.55        65.15639
724.97        65.39063
725.39        65.56211
725.81        65.62903
726.23        65.71305
726.65        65.86061
727.07        65.59234
727.49        65.80961
727.91        65.78996
728.33        65.77982
728.75         65.7299
729.17        65.64741
729.59        65.54019
730.01        65.44351
730.43        65.43536
730.85        65.52189
731.27        65.67213
731.69        65.84035
732.10        65.95489
732.52        65.98302
732.94        65.99844
733.36        66.01845
733.78        65.96326
734.20        65.82451
734.62        66.08759
735.04        65.73996
735.46        66.02116
735.88        66.48614
736.30        66.50246
736.72        66.10191
737.13        65.91274
737.55        65.97548
737.97        66.04829
738.39        66.08528
738.81        65.99136
739.23        65.80604
739.65        65.85346
740.06        66.05304
740.48        66.08436
740.90        65.89891
741.32        65.74078
741.74        65.57883
742.16        65.53903
742.57        65.62342
742.99        65.80863
743.41        66.01835
743.83        66.11136
744.25        66.06073
744.67        65.90979
745.08        65.75658
745.50        65.71432
745.92        65.82935
746.34         66.0686
746.75        66.33084
747.17        66.44141
747.59        66.35406
748.01        66.13208
748.42         65.8972
748.84        65.74636
749.26        65.73569
749.68        66.05656
750.09        66.50873
750.51        66.39183
750.93        65.80306
751.35        65.58273
751.76        65.76057
752.18        65.74758
752.60        65.55286
753.01        65.55155
753.43        65.72567
753.85        65.84022
754.27        65.86497
754.68        65.96381
755.10        66.17427
755.52        66.02318
755.93        66.36015
756.35        66.48479
756.77        66.61158
757.18        66.76836
757.60        66.96682
758.02        66.99002
758.43        66.82023
758.85        67.25684
759.26        66.97918
759.68        67.02004
760.10         67.1073
760.51        66.22911
760.93        66.50446
761.34        66.43285
761.76        66.81801
762.18        67.00252
762.59        67.03159
763.01         66.9062
763.42        66.75304
763.84        66.72284
764.26        66.88179
764.67         67.1777
765.09        67.49921
765.50        67.55859
765.92        67.36016
766.33        67.02965
766.75         66.6359
767.16        66.40716
767.58        66.36299
768.00        66.50711
768.41        66.78145
768.83        66.90041
769.24        66.85426
769.66        66.97453
770.07        67.19598
770.49        67.14958
770.90        66.90386
771.32        66.91307
771.73        67.17262
772.15        67.26284
772.56        67.17771
772.97        67.20634
773.39         67.3106
773.80        67.22794
774.22        67.00141
774.63        67.05886
775.05        67.33462
775.46        67.45789
775.88        67.37183
776.29        67.32576
776.70        67.33919
777.12        67.35414
777.53        67.39349
777.95        67.44512
778.36        67.50895
778.77         67.5671
779.19        67.61932
779.60        67.68718
780.02         67.7391
780.43        67.77837
780.84        67.78841
781.26        67.68356
781.67        67.60502
782.09        67.81219
782.50        68.10069
782.91        68.74969
783.33        67.98441
783.74        67.93668
784.15        68.09719
784.57        68.03449
784.98        67.79738
785.39        67.85281
785.81        68.16013
786.22        68.25886
786.63        68.15228
787.04        68.19096
787.46        68.38165
787.87        68.50174
788.28         68.5443
788.70        68.58974
789.11        68.61883
789.52         68.6077
789.93        68.56353
790.35        68.51804
790.76        68.48064
791.17        68.36711
791.58        68.21703
792.00        68.13355
792.41        68.14721
792.82         68.2545
793.23        68.44662
793.65        68.54706
794.06        68.61534
794.47        69.03172
794.88        69.64849
795.29        69.71809
795.71        69.63495
796.12        69.30508
796.53         68.9642
796.94        68.74394
797.35         68.7017
797.76        68.74824
798.18        68.85333
798.59        68.99582
799.00        69.15163
799.41           69.31
799.82         69.4265
800.23        69.45298
800.64        69.37688
801.06        69.17566
801.47         68.9614
801.88        68.85102
802.29        68.88589
802.70        69.05658
803.11        69.26521
803.52        69.33556
803.93        69.21965
804.34        68.95784
804.75         68.7136
805.17        68.68549
805.58        68.93538
805.99        69.55231
806.40        70.29063
806.81        70.28143
807.22        69.65418
807.63         69.5396
808.04        69.96194
808.45        70.04163
808.86        69.75396
809.27        69.66115
809.68        69.76908
810.09        69.78809
810.50        69.70432
810.91        69.62147
811.32        69.53631
811.73        69.44543
812.14        69.35937
812.55        69.21977
812.96        69.08719
813.37          69.181
813.78        69.46684
814.19        69.67159
814.60        69.73976
815.01        69.79649
815.42        69.83231
815.83        69.73774
816.24        69.57461
816.65        69.53667
817.05         69.6646
817.46        69.85628
817.87        70.06455
818.28        70.16911
818.69        70.14172
819.10        70.03587
819.51         69.8826
819.92        69.73326
820.33        69.62727
820.74        69.55128
821.14         69.5425
821.55        69.69829
821.96        70.00064
822.37        70.41764
822.78        70.85612
823.19        71.13773
823.60        71.20405
824.00        71.12868
824.41        70.91257
824.82        70.65909
825.23        70.41759
825.64        70.16301
826.04        70.00657
826.45        70.09183
826.86        70.43807
827.27        71.00625
827.68        71.59079
828.08        71.86974
828.49        71.69397
828.90        71.18752
829.31        70.56485
829.72        70.20052
830.12         70.2296
830.53        70.51022
830.94        70.90163
831.35        71.12843
831.75        71.12485
832.16        70.93417
832.57        70.68993
832.97         70.5781
833.38        70.64988
833.79        70.84126
834.20        71.06186
834.60        71.18616
835.01        71.19563
835.42        71.12253
835.82        71.05968
836.23        71.08311
836.64        71.23974
837.04        71.51347
837.45        71.76649
837.86        71.87637
838.26        71.82247
838.67        71.63435
839.08        71.42216
839.48        71.34761
839.89        71.45339
840.29         71.6853
840.70        71.96307
841.11        72.16389
841.51        72.26415
841.92         72.2608
842.33        72.20197
842.73        72.16015
843.14        72.11426
843.54        72.07713
843.95        72.02573
844.35        71.94657
844.76         71.8308
845.17        71.68938
845.57        71.57596
845.98        71.53361
846.38        71.59302
846.79        71.71961
847.19        71.84787
847.60         71.8224
848.00        71.63231
848.41        71.28159
848.81        70.92245
849.22        70.72906
849.62        70.78895
850.03         71.0484
850.43        71.37207
850.84        71.45887
851.24         71.2922
851.65         70.8782
852.05        70.51995
852.46        70.65587
852.86        71.33765
853.27        72.36652
853.67         73.2745
854.07        73.63009
854.48        73.32846
854.88         72.5592
855.29        71.49406
855.69        70.68855
856.10        70.27974
856.50        70.21451
856.90        70.35606
857.31        70.49702
857.71        70.59724
858.12        70.67467
858.52        70.76275
858.92        70.77221
859.33        70.67499
859.73        70.49974
860.13        70.24951
860.54        69.98738
860.94         69.7842
861.34        69.61025
861.75        69.47567
862.15          69.445
862.55         69.4972
862.96        69.64515
863.36        69.81451
863.76        69.86752
864.17         69.7631
864.57        69.52816
864.97        69.29162
865.38        69.25174
865.78        69.48579
866.18        69.91682
866.58        70.32612
866.99        70.33639
867.39        69.90968
867.79         69.1802
868.19         68.4313
868.60        68.03934
869.00        68.08463
869.40         68.4664
869.80        69.07269
870.21        69.67921
870.61        70.21619
871.01        70.66161
871.41        70.93736
871.81        70.94258
872.22        70.65893
872.62         70.1251
873.02        69.50082
873.42        69.10799
873.82        69.06604
874.22        69.31769
874.63        69.72003
875.03        70.02304
875.43        70.15987
875.83        70.16838
876.23        70.14291
876.63        70.23875
877.03        70.48005
877.44        70.80766
877.84        71.04008
878.24        70.86741
878.64        70.26813
879.04        69.38869
879.44        68.55695
879.84        68.21896
880.24        68.44851
880.64        69.11424
881.04        69.93661
881.44        70.42683
881.84        70.42329
882.24        70.03724
882.65        69.47095
883.05        69.18153
883.45        69.24628
883.85        69.53276
884.25        69.82208
884.65        69.79597
885.05        69.39449
885.45        68.73745
885.85         68.0505
886.25        67.70625
886.65        67.81197
887.05        68.25335
887.45        68.79823
887.85         69.0962
888.25        69.05482
888.65        68.76457
889.04        68.40527
889.44        68.32095
889.84        68.56589
890.24        69.01696
890.64        69.46044
891.04        69.57063
891.44        69.28632
891.84        68.74834
892.24        68.14752
892.64        67.77091
893.04        67.70864
893.44        67.87207
893.83        68.21162
894.23        68.57963
894.63        68.93382
895.03        69.29493
895.43        69.61732
895.83        69.82327
896.23        69.89476
896.63        69.83801
897.02        69.69185
897.42        69.56518
897.82        69.47933
898.22        69.43016
898.62        69.40827
899.01        69.40134
899.41        69.38611
899.81        69.37636
900.21        69.39601
900.61        69.47859
901.00        69.61075
901.40        69.79346
901.80         69.9497
902.20        69.97254
902.59        69.86388
902.99        69.65863
903.39         69.4594
903.79        69.42326
904.18        69.58045
904.58        69.86591
904.98        70.22318
905.38        70.58099
905.77        70.88939
906.17        71.16772
906.57        71.34738
906.96        71.33389
907.36        71.09631
907.76        70.69072
908.15        70.22419
908.55        69.81345
908.95        69.54642
909.34        69.37676
909.74        69.35083
910.14        69.46572
910.53         69.6955
910.93        70.01402
911.33        70.30188
911.72        70.35708
912.12        70.12964
912.52        69.71409
912.91        69.23554
913.31        68.89454
913.70        68.74692
914.10        68.74023
914.49        68.88264
914.89        69.12431
915.29        69.43694
915.68        69.79594
916.08        70.16106
916.47        70.46616
916.87        70.69594
917.26        70.83742
917.66        70.84964
918.05        70.64823
918.45        70.24025
918.84        69.69315
919.24        69.14648
919.64         68.9105
920.03        69.06909
920.42        69.53297
920.82        70.11256
921.21        70.48923
921.61        70.56285
922.00        70.42123
922.40        70.20492
922.79        70.23995
923.19        70.56087
923.58        71.08131
923.98        71.55984
924.37         71.7045
924.77        71.44299
925.16        70.86661
925.55        70.19404
925.95        69.79324
926.34        69.77303
926.74        70.01514
927.13        70.36881
927.52        70.48721
927.92        70.31646
928.31        69.97379
928.70        69.61981
929.10        69.48535
929.49         69.6217
929.89        69.89252
930.28         70.2785
930.67        70.63511
931.07         70.8808
931.46         71.0952
931.85        71.16624
932.24        70.95384
932.64         70.4725
933.03        69.76745
933.42        69.09889
933.82        68.89068
934.21        69.22735
934.60        69.99185
934.99        70.87914
935.39         71.3435
935.78         71.2577
936.17        70.75469
936.56        70.07887
936.96        69.65398
937.35        69.66445
937.74        69.94314
938.13        70.31796
938.53        70.54729
938.92        70.57156
939.31        70.46728
939.70        70.32817
940.09        70.29959
940.49        70.38999
940.88        70.56008
941.27        70.71112
941.66        70.71056
942.05        70.54234
942.44        70.28961
942.84         70.0307
943.23        69.82407
943.62        69.73219
944.01         69.7138
944.40        69.82534
944.79        70.16051
945.18        70.68204
945.57        71.31537
945.97        71.82459
946.36        71.94154
946.75        71.58758
947.14        70.85716
947.53        69.93605
947.92        69.16999
948.31        68.70906
948.70        68.49615
949.09        68.48022
949.48        68.55525
949.87         68.6734
950.26        68.87158
950.65        69.13474
951.04        69.42678
951.43         69.7263
951.82        70.00297
952.21        70.21851
952.60        70.34175
952.99        70.34688
953.38        70.21244
953.77        69.97964
954.16        69.71365
954.55        69.43225
954.94        69.15276
955.33        68.79684
955.72        68.22289
956.11        67.43531
956.50        66.50587
956.89        65.66291
957.28        65.28738
957.66        65.50371
958.05        66.18302
958.44        67.06934
958.83        67.74406
959.22        68.05646
959.61        68.06091
960.00        67.90977
960.39        67.86391
960.78        67.98969
961.16        68.24993
961.55        68.39285
961.94        68.10966
962.33        67.37782
962.72        66.37682
963.11        65.48082
963.49        65.21381
963.88        65.67433
964.27        66.69962
964.66        67.96095
965.04        68.87331
965.43        69.13052
965.82        68.91322
966.21        68.44764
966.60        68.10409
966.98        68.00255
967.37        68.00609
967.76        68.01851
968.15        67.85364
968.53        67.50788
968.92        67.12897
969.31        66.86456
969.69        66.88675
970.08        67.22944
970.47        67.80967
970.86        68.63739
971.24        69.73076
971.63        70.91379
972.02        72.11516
972.40        73.12219
972.79        73.52976
973.17        73.38687
973.56        72.72794
973.95        71.84567
974.33        71.23373
974.72        71.06483
975.11        71.24227
975.49        71.53226
975.88        71.55241
976.26        71.19791
976.65        70.56432
977.04        69.87058
977.42        69.46235
977.81        69.39206
978.19        69.53524
978.58        69.78413
978.96        69.88659
979.35        69.72932
979.74        69.43296
980.12        69.11857
980.51        68.73155
980.89        68.41625
981.28        68.11823
981.66        67.94337
982.05        68.12463
982.43        68.66285
982.82        69.40799
983.20        70.25386
983.59        70.87313
983.97        71.25391
984.35        71.41436
984.74        71.30028
985.12        70.82647
985.51        70.07624
985.89        69.21689
986.28        68.50732
986.66        68.39044
987.04        68.88747
987.43        69.77439
987.81        70.96465
988.20        72.18476
988.58        73.27469
988.96        74.26098
989.35        74.71521
989.73         74.0826
990.12        72.23135
990.50        69.16662
990.88        65.68188
991.27        63.76144
991.65        64.16445
992.03        66.37082
992.42        68.95895
992.80         70.4139
993.18         70.3287
993.56        69.06004
993.95        67.21217
994.33        66.18276
994.71         66.6783
995.10         67.9435
995.48        69.28175
995.86        69.90335
996.24        69.71821
996.63        68.96656
997.01        67.98861
997.39        67.40784
997.77        67.53203
998.15        68.15348
998.54        68.86679
998.92        69.16634
999.30        68.93416
999.68        68.35107
1000.06        67.76475
1000.45        67.71987
1000.83        68.43321
1001.21        69.64348
1001.59        70.96178
1001.97        71.86851
1002.35        72.23142
1002.73         72.1668
1003.12        71.85645
1003.50        71.54214
1003.88        71.40818
1004.26        71.37779
1004.64        71.32337
1005.02        71.06161
1005.40        70.58455
1005.78        70.00004
1006.16        69.46265
1006.54        69.25289
1006.92        69.43423
1007.30         69.8576
1007.69        70.45285
1008.07         70.9386
1008.45        71.27975
1008.83        71.59219
1009.21        71.69239
1009.59        71.29064
1009.97        70.35029
1010.35        68.82938
1010.73        67.30695
1011.11         67.2083
1011.49        69.01935
1011.86        72.28905
1012.24        75.63923
1012.62         77.4847
1013.00        77.57679
1013.38         76.4785
1013.76        74.78765
1014.14        73.52822
1014.52        73.10538
1014.90         73.1518
1015.28        73.81321
1015.66        75.31932
1016.04        77.45147
1016.41        80.14205
1016.79        82.28036
1017.17        82.59158
1017.55        80.94623
1017.93        77.83979
1018.31        74.21399
1018.69        71.56325
1019.06        70.40421
1019.44        70.40319
1019.82         71.4054
1020.20        72.91724
1020.58        74.48064
1020.95         76.0478
1021.33        77.29955
1021.71        77.82483
1022.09        77.57928
1022.46        76.51929
1022.84        74.89399
1023.22        73.07121
1023.60        71.24777
1023.97        69.33911
1024.35        67.58413
1024.73        65.96025
