SpectraSmart Spectrum 2.9.0.0
--------- Device Information -----------
Spectrum Name :  反射率_0
Saving Time :  2024/04/28 00:09:42
Spectro-Module Model Name : SE2030-DUVN
Spectro-Module Serial Number : OS361AC55029948
Wavelength Start : 200
Wavelength End : 1025
Wavelength Unit : Wavelength(nm)
Spectrum Unit : Reflectance(%)
-----------Spectrum Setting ------------
Integration Time : 20ms
Average : 10
Boxcar : 0
Background removal :  enabled
linearity correction :  enabled
SC :  disabled
Intensity correction :  disabled
DWT denoise :  enabled
savitzky-golay :  disabled
FFT :  disabled
Running average :  disabled
Kalman :  disabled
High pass :  disabled
---------------BEGIN--------------------
Wavelength(nm)             Reflectance(%)
200.29               0
200.75        65.52777
201.21        67.92314
201.67        72.40141
202.13         71.2543
202.58        65.52304
203.04         58.4908
203.50        54.68667
203.96        60.04012
204.42        72.57078
204.88        87.08487
205.34        99.48734
205.80         107.213
206.26        110.6972
206.72        111.0544
207.18        106.5167
207.64        96.09483
208.10        85.73158
208.55        79.70382
209.01        76.02615
209.47        71.53287
209.93        63.44785
210.39        45.08385
210.85       -6.813686
211.31       -61.73658
211.77        18.53214
212.23        66.39993
212.69        82.28821
213.14        86.73724
213.60        85.43658
214.06        79.82977
214.52        67.88583
214.98        55.11169
215.44         52.3566
215.90        54.98957
216.36        59.40798
216.81        64.36596
217.27        69.59293
217.73        76.12806
218.19        81.49991
218.65        80.84413
219.11        72.85117
219.57        57.92805
220.02         40.4311
220.48        33.15455
220.94        39.93419
221.40        55.09972
221.86        70.76901
222.32        79.33997
222.77        80.65224
223.23        77.86454
223.69        73.57348
224.15        70.17986
224.61        68.01865
225.06        66.08432
225.52        63.93113
225.98        60.99259
226.44        57.89194
226.90        55.35157
227.36        53.77254
227.81         53.2051
228.27        53.36413
228.73        53.97853
229.19        54.38324
229.65        53.38557
230.10         50.7316
230.56        47.28873
231.02        43.87007
231.48        41.65487
231.93        40.77125
232.39        40.78998
232.85        41.54399
233.31        42.84153
233.77        44.46124
234.22        46.55291
234.68        48.31828
235.14        48.76571
235.60        47.81107
236.05        45.45862
236.51        43.06355
236.97        43.59324
237.43        47.92458
237.88        55.14928
238.34        62.46074
238.80         67.0937
239.26        68.55548
239.71        67.00562
240.17        62.36246
240.63        58.97937
241.08        61.19519
241.54        66.01472
242.00        70.31154
242.46        72.94154
242.91        74.61516
243.37        76.34993
243.83        79.24946
244.28         83.8773
244.74        86.94308
245.20        86.26383
245.66        84.20178
246.11        82.89377
246.57        82.31498
247.03        81.89157
247.48        82.86375
247.94        88.52161
248.40        98.21775
248.85        108.5898
249.31        115.0419
249.77        114.2851
250.22        108.8622
250.68         101.813
251.14        95.77567
251.59        92.86087
252.05        92.91626
252.51        94.91849
252.96         98.0183
253.42         99.4898
253.88        97.33237
254.33        93.60471
254.79        89.81705
255.25        85.45101
255.70         80.5343
256.16        75.91816
256.62        72.68295
257.07        72.16926
257.53        73.93986
257.99        76.24413
258.44        77.52566
258.90        76.97908
259.35        74.52466
259.81        71.37829
260.27        68.08958
260.72        65.36171
261.18        63.65786
261.63        62.37546
262.09        61.39219
262.55        60.14002
263.00        58.50149
263.46        56.80904
263.91        55.24958
264.37        54.44366
264.83        54.29485
265.28        54.48578
265.74         54.6435
266.19        54.07305
266.65        52.78904
267.11        50.97947
267.56        48.99712
268.02        47.49919
268.47        46.60013
268.93        46.12262
269.38        45.78984
269.84        45.20248
270.30        44.24446
270.75        43.05565
271.21        41.79887
271.66        40.65709
272.12        39.71146
272.57        38.85631
273.03        38.05171
273.48        37.16687
273.94        36.24195
274.39         35.3056
274.85        34.47434
275.31        33.81731
275.76        33.31478
276.22        32.94175
276.67        32.60053
277.13        32.25673
277.58        31.84129
278.04        31.42357
278.49        30.94087
278.95        30.41673
279.40        29.81833
279.86        29.20911
280.31        28.62594
280.77        28.24394
281.22        28.03579
281.68        27.98883
282.13        27.96834
282.59        27.83439
283.04        27.54502
283.50         27.1677
283.95        26.78321
284.41        26.55526
284.86        26.50008
285.32        26.58272
285.77        26.70258
286.22        26.75357
286.68        26.72937
287.13        26.63669
287.59        26.56626
288.04        26.57681
288.50        26.70807
288.95        26.89577
289.41        27.10508
289.86        27.23941
290.32        27.30444
290.77        27.33173
291.22        27.37575
291.68        27.50546
292.13        27.74442
292.59         28.1076
293.04        28.59703
293.50        29.23688
293.95        30.02154
294.40        30.96048
294.86         32.0529
295.31        33.28463
295.77        34.65038
296.22         36.1225
296.68        37.68097
297.13        39.26386
297.58        40.84697
298.04        42.43587
298.49         44.0237
298.95        45.65363
299.40        47.34621
299.85        49.11131
300.31        50.99681
300.76        53.00871
301.21        55.13043
301.67        57.34952
302.12        59.55415
302.58        61.67461
303.03        63.65976
303.48        65.55108
303.94        67.45267
304.39        69.43656
304.84        71.54532
305.30        73.75581
305.75         75.9408
306.20        78.00489
306.66         79.9417
307.11        81.73177
307.57        83.46893
308.02        85.16935
308.47        86.85841
308.93        88.52267
309.38        90.07103
309.83        91.47619
310.29        92.76149
310.74        93.92891
311.19        95.04541
311.65        96.18343
312.10        97.32047
312.55        98.43241
313.00        99.48911
313.46         100.457
313.91        101.3095
314.36        102.0763
314.82        102.7469
315.27        103.2979
315.72         103.737
316.18        104.0927
316.63        104.4058
317.08          104.78
317.53         105.244
317.99        105.7711
318.44        106.3223
318.89        106.8187
319.35        107.2357
319.80        107.5708
320.25        107.8453
320.70        108.2758
321.16        108.5908
321.61        109.0011
322.06         109.392
322.51         109.732
322.97        109.9892
323.42        110.2166
323.87        110.4102
324.32        110.5779
324.78        110.7145
325.23        110.8622
325.68        111.0176
326.13         111.204
326.59        111.4028
327.04        111.6616
327.49        111.9578
327.94        112.2882
328.39        112.6488
328.85        113.0049
329.30        113.4098
329.75        113.7852
330.20        114.1184
330.66        114.3877
331.11        114.6888
331.56        115.0582
332.01        115.5187
332.46        116.0513
332.92         116.576
333.37        117.1168
333.82        117.5958
334.27        118.0188
334.72        118.4024
335.17        118.7775
335.63        119.1337
336.08        119.5337
336.53        119.9306
336.98        120.2949
337.43        120.6299
337.88         120.947
338.34        121.3035
338.79        121.8479
339.24        122.5729
339.69        123.4294
340.14        124.2849
340.59        124.9249
341.05         125.304
341.50        125.5053
341.95         125.633
342.40        125.8752
342.85         126.289
343.30        126.8021
343.75        127.3974
344.20        128.0434
344.66        128.7101
345.11        129.4115
345.56        130.0358
346.01         130.397
346.46        130.4774
346.91          130.33
347.36        130.1609
347.81        130.2959
348.26        130.7944
348.72        131.5576
349.17        132.3573
349.62        132.8488
350.07        132.9367
350.52         132.722
350.97        132.3755
351.42        132.1707
351.87         132.184
352.32        132.3313
352.77        132.4797
353.22        132.4309
353.67        132.1372
354.13        131.6764
354.58        131.1459
355.03         130.761
355.48        130.5572
355.93        130.4543
356.38         130.298
356.83        129.8521
357.28        129.0788
357.73        128.0866
358.18        127.0218
358.63        126.1013
359.08        125.3952
359.53         124.841
359.98        124.3914
360.43         123.973
360.88        123.5389
361.33        123.0935
361.78        122.6147
362.23        122.0559
362.68        121.4034
363.13        120.6836
363.58        119.8889
364.03        118.9282
364.48        117.9704
364.93        116.9306
365.38        115.9301
365.83        115.0845
366.28        114.4105
366.73        113.8578
367.18         113.357
367.63        112.7947
368.08        112.1307
368.53        111.4041
368.98        110.6002
369.43        109.6989
369.88        108.7206
370.33        107.6742
370.78        106.6661
371.23        105.8727
371.68        105.3221
372.13        104.9564
372.58        104.6484
373.03        104.1817
373.48         103.498
373.93        102.6708
374.38        101.7685
374.83        100.8981
375.28        100.1079
375.72        99.34961
376.17        98.68553
376.62        98.14454
377.07        97.71455
377.52        97.36607
377.97        97.04023
378.42        96.63879
378.87        96.13759
379.32        95.57909
379.77        94.95853
380.22        94.26674
380.67        93.52373
381.11        92.73887
381.56        92.01743
382.01        91.54724
382.46        91.36067
382.91         91.3968
383.36        91.49093
383.81         91.3802
384.26        90.99692
384.71        90.41157
385.15        89.72555
385.60         89.1702
386.05        88.78119
386.50        88.48865
386.95        88.22658
387.40        87.89931
387.85         87.4922
388.29        87.01492
388.74        86.58932
389.19        86.17191
389.64        85.75983
390.09        85.32323
390.54        84.91499
390.98        84.60722
391.43          84.461
391.88        84.44193
392.33        84.39658
392.78        84.18853
393.23         83.8286
393.67        83.15336
394.12        82.40559
394.57         82.5716
395.02        82.38112
395.47         82.4475
395.91        82.31677
396.36        82.13953
396.81        81.90113
397.26        81.52744
397.71        81.09846
398.15        80.75397
398.60        80.59997
399.05        80.42746
399.50        80.28061
399.95        80.37089
400.39        80.59844
400.84        80.62863
401.29        80.39737
401.74         79.8109
402.18        79.07312
402.63        78.82938
403.08        79.04818
403.53        78.98469
403.97        78.61012
404.42        78.44041
404.87        78.44586
405.32        78.36574
405.76        78.16928
406.21        77.89079
406.66        77.60902
407.11        77.50056
407.55        77.54987
408.00         77.6291
408.45        77.65327
408.90        77.20761
409.34        76.49038
409.79        76.45677
410.24        76.99727
410.68        77.15829
411.13         76.8847
411.58        76.74235
412.03        76.77282
412.47        76.78489
412.92          76.756
413.37         76.7578
413.81        76.75724
414.26        76.76533
414.71        76.76188
415.15        76.75976
415.60        76.74233
416.05        76.75532
416.49        76.80846
416.94        76.87251
417.39        76.93114
417.83        76.95562
418.28        76.93356
418.73        76.86589
419.17        76.77281
419.62        76.69125
420.07        76.64351
420.51        76.62146
420.96        76.61965
421.41        76.61093
421.85        76.55899
422.30        76.40948
422.74        76.22951
423.19        76.43679
423.64        76.91641
424.08        77.17564
424.53        77.10009
424.98        76.80744
425.42        77.05013
425.87        76.69479
426.31         76.1685
426.76        76.48032
427.21        77.44292
427.65        77.63106
428.10         77.0731
428.54        76.98062
428.99        77.41058
429.44        77.79448
429.88        77.93935
430.33        77.71043
430.77        77.21111
431.22        76.91549
431.66        76.92529
432.11        77.40526
432.56        78.21573
433.00        78.55666
433.45        78.22438
433.89        78.14191
434.34        78.36217
434.78        77.92467
435.23         77.5227
435.67        77.77094
436.12        78.63972
436.57        78.71886
437.01        78.14916
437.46        77.97046
437.90        78.49339
438.35        79.04254
438.79        79.12717
439.24        79.17591
439.68        79.09333
440.13        78.85417
440.57        78.60617
441.02         78.9224
441.46        79.61137
441.91        79.68302
442.35        79.19862
442.80        79.41591
443.24        80.18391
443.69         80.3755
444.13         79.9916
444.58        79.90225
445.02        80.09727
445.47        80.21406
445.91        80.23067
446.36        80.23815
446.80        80.20132
447.24        80.45207
447.69        80.27918
448.13        80.54423
448.58        80.93337
449.02        80.98101
449.47        80.74081
449.91        80.67377
450.36        80.82872
450.80        80.89371
451.25        80.88796
451.69        80.95078
452.13        81.06451
452.58        81.12579
453.02        81.11568
453.47        81.00371
453.91        80.77216
454.36        80.61996
454.80        80.59478
455.24        79.94147
455.69        79.68539
456.13        79.38168
456.58        79.61104
457.02        78.78602
457.46        80.51415
457.91        80.25447
458.35        79.52432
458.79         79.1404
459.24        79.24545
459.68        79.16395
460.13         78.8905
460.57        78.54865
461.01        78.52191
461.46        78.54048
461.90        77.97265
462.34        78.70478
462.79        78.47226
463.23        78.56123
463.68        78.36617
464.12        78.13937
464.56        77.95164
465.01        77.93645
465.45        77.95413
465.89        77.87578
466.34        77.76917
466.78         77.5088
467.22        77.12121
467.67         77.7851
468.11        77.54638
468.55        77.55899
468.99        77.27902
469.44        77.13211
469.88        77.12591
470.32        77.03233
470.77        76.88725
471.21        76.83351
471.65        76.87764
472.10        76.99293
472.54        77.08368
472.98        77.08797
473.42        77.00284
473.87        76.74048
474.31        76.37519
474.75        76.45639
475.20        76.82242
475.64        76.64771
476.08        76.05363
476.52        75.83206
476.97        75.98036
477.41        76.40949
477.85        76.49406
478.29        76.33114
478.74        76.30357
479.18        75.68367
479.62        76.19706
480.06        76.13239
480.50        75.98853
480.95        75.93546
481.39        75.89814
481.83        75.86125
482.27           76.16
482.72         75.2877
483.16         75.7151
483.60        75.56156
484.04        75.52597
484.48          75.367
484.93        75.32929
485.37        75.81699
485.81        75.94485
486.25        76.75944
486.69        76.92249
487.14        75.61118
487.58        75.40296
488.02        75.67805
488.46        75.78589
488.90        76.09037
489.34        75.28615
489.79        75.07948
490.23        75.65909
490.67        75.75478
491.11        75.49421
491.55        75.21749
491.99        75.03101
492.43        74.95876
492.88        75.02175
493.32        75.20798
493.76        75.42109
494.20        75.59035
494.64        75.70079
495.08        75.66806
495.52        75.54704
495.96        75.68655
496.41        75.98029
496.85         75.7813
497.29         75.2115
497.73        75.11974
498.17        75.40109
498.61        75.74001
499.05        75.91941
499.49        75.79637
499.93        75.44019
500.37        75.10155
500.82        74.89147
501.26        74.77233
501.70        75.48647
502.14        74.89607
502.58        75.76434
503.02        75.89411
503.46        75.72279
503.90        75.44832
504.34        75.10317
504.78        74.93909
505.22        74.93707
505.66        74.99903
506.10        75.11757
506.54        75.16369
506.98        75.06141
507.42        75.68717
507.86         75.4077
508.30         75.4842
508.74        75.43698
509.18        75.31319
509.62        75.14206
510.06        75.01257
510.50        74.96356
510.94        74.95632
511.38        74.98884
511.82        75.04889
512.26        75.12133
512.70        75.21371
513.14        75.29033
513.58        75.27099
514.02        75.15714
514.46        74.98633
514.90         74.8222
515.34        74.63527
515.78        74.90771
516.22        74.73627
516.66        75.10194
517.10        75.19486
517.54        75.25657
517.98        75.28259
518.42        75.27762
518.86        75.24364
519.30        75.18156
519.74        75.09897
520.18        75.01907
520.62         74.9819
521.06         74.9973
521.50        75.05777
521.93        75.14366
522.37        75.20389
522.81        75.22779
523.25        75.22063
523.69        75.19438
524.13        75.16999
524.57        75.15263
525.01        75.13657
525.45        75.10545
525.89        75.03455
526.32        74.91873
526.76        74.78685
527.20        74.66764
527.64        74.61401
528.08        74.63654
528.52        74.71149
528.96        74.80859
529.40        74.89124
529.83        74.92997
530.27        74.92335
530.71        74.87693
531.15        74.83467
531.59         74.8023
532.03        74.75513
532.46        74.68434
532.90        74.60765
533.34        74.52474
533.78        74.44678
534.22        74.37058
534.66        74.28662
535.09        74.18893
535.53        74.10237
535.97        74.04463
536.41        74.05991
536.85         74.1519
537.28        74.30687
537.72        74.47545
538.16        74.56821
538.60        74.56732
539.04        74.51057
539.47        74.42612
539.91        74.40331
540.35         74.4397
540.79        74.52258
541.22        74.60261
541.66        74.61034
542.10        74.52976
542.54        74.39307
542.97        74.23734
543.41        74.15895
543.85        74.16445
544.29        74.23014
544.72        74.30974
545.16        74.37058
545.60        74.37859
546.04        74.33804
546.47        74.26924
546.91        74.20683
547.35        74.15053
547.79        74.12939
548.22        74.09222
548.66        73.92113
549.10        73.66142
549.53        73.60211
549.97        73.75053
550.41        73.84196
550.84        73.83895
551.28        73.98815
551.72        74.26403
552.15        74.24588
552.59         73.8751
553.03        74.28237
553.46        73.77182
553.90         73.6614
554.34        73.93775
554.77        74.21118
555.21        74.48044
555.65        74.52908
556.08        74.27168
556.52        73.94205
556.96         73.6405
557.39        73.61452
557.83        73.86542
558.27        73.98676
558.70        73.96049
559.14        74.02463
559.57        74.14019
560.01        74.24128
560.45        74.27681
560.88        74.10865
561.32        73.89305
561.75         73.8877
562.19        74.09016
562.63        74.33376
563.06        74.49635
563.50        74.25963
563.93        73.75149
564.37        73.71341
564.80        74.07611
565.24        74.19751
565.68        74.05529
566.11        74.04891
566.55        74.19818
566.98        74.27882
567.42        74.30069
567.85        74.27669
568.29        74.28088
568.72        74.29314
569.16        74.35509
569.60        74.47297
570.03        74.64198
570.47        74.50462
570.90        74.66186
571.34        74.76061
571.77        74.72181
572.21        74.45629
572.64        74.54386
573.08        74.15115
573.51        74.18835
573.95        74.54419
574.38        75.07399
574.82        74.39906
575.25        74.37611
575.69        74.37917
576.12        74.17513
576.56        74.44109
576.99        74.23628
577.42        74.42975
577.86        74.32887
578.29        74.80973
578.73        74.80568
579.16        74.85234
579.60        74.65825
580.03         74.5564
580.47        74.46343
580.90        74.76611
581.33        75.19333
581.77        74.72093
582.20        74.60709
582.64        74.72849
583.07        74.33862
583.51        74.30685
583.94        74.51334
584.37        74.61468
584.81        74.62567
585.24        74.56515
585.68         74.4704
586.11        74.81814
586.54         74.4036
586.98        74.20155
587.41        74.50772
587.85        74.17373
588.28        74.41862
588.71        74.20102
589.15        74.57364
589.58        74.24702
590.01        74.55161
590.45        74.60644
590.88        73.91597
591.31        73.72117
591.75        73.74608
592.18        73.84473
592.61        74.24343
593.05        74.00613
593.48        75.04417
593.91         74.6155
594.35        74.09843
594.78        74.17551
595.21        73.84325
595.65        73.94275
596.08        73.93728
596.51        74.36671
596.94        73.74365
597.38        73.85496
597.81         74.4109
598.24        74.12971
598.68        74.18555
599.11        74.67743
599.54        74.41124
599.97        74.07172
600.41        74.37032
600.84        74.32326
601.27        74.23768
601.70        74.16001
602.14        73.99968
602.57        74.33022
603.00        74.24122
603.43        74.63115
603.87        74.65694
604.30        74.41455
604.73        74.36427
605.16        74.41212
605.60        74.14511
606.03        74.32052
606.46        74.66556
606.89        74.75798
607.32        74.26418
607.76        74.91592
608.19        74.54668
608.62        74.47836
609.05        74.13228
609.48        74.52096
609.92         74.4444
610.35        74.56321
610.78        74.54004
611.21        74.05933
611.64        74.52306
612.07        74.34894
612.50        74.02582
612.94         73.9308
613.37        74.14645
613.80        74.18203
614.23        74.45974
614.66        74.53567
615.09        74.53316
615.52          74.479
615.96        74.43903
616.39        74.02569
616.82        74.20573
617.25        74.00845
617.68        74.31906
618.11        74.32198
618.54        74.25333
618.97        74.35062
619.40         74.4897
619.84        74.84849
620.27        74.58513
620.70         74.3609
621.13         73.9248
621.56        74.26328
621.99        73.84081
622.42        73.78426
622.85        73.78087
623.28        73.98316
623.71        74.06438
624.14        73.64153
624.57        73.98537
625.00        74.12936
625.43        73.94553
625.86        73.86162
626.29         73.6735
626.72        74.22262
627.15        73.67823
627.58        73.80759
628.01        74.15021
628.44        73.65309
628.87        73.37762
629.30        73.97591
629.73        73.78664
630.16        73.33902
630.59        73.53016
631.02        73.49012
631.45        73.59106
631.88        73.65291
632.31        73.70879
632.74         73.4365
633.17        73.58256
633.60         73.5843
634.03        73.65925
634.46         73.7792
634.89        73.90498
635.32        73.94817
635.75        73.88229
636.18        73.77518
636.61        73.66142
637.04        73.51219
637.47        73.38936
637.89        73.48421
638.32        73.71231
638.75        73.80412
639.18         73.7274
639.61        73.61936
640.04        73.52859
640.47        73.49527
640.90        73.53903
641.33        73.61272
641.76        73.65697
642.18        73.76123
642.61        73.61462
643.04        73.47517
643.47        73.31361
643.90        73.22409
644.33        73.22665
644.76        73.29433
645.18        73.38864
645.61        73.43239
646.04        73.40644
646.47         73.3291
646.90        73.23005
647.33        73.16397
647.75        73.15666
648.18        73.17973
648.61        73.20303
649.04        73.26637
649.47        73.33607
649.89        73.18777
650.32        72.92798
650.75        73.05564
651.18        73.48214
651.61        73.61666
652.03         73.4202
652.46        73.17956
652.89        73.05927
653.32        73.05373
653.74        73.51334
654.17        73.73468
654.60        73.37229
655.03        73.36425
655.46        73.35283
655.88        74.36058
656.31        75.81113
656.74        77.38612
657.16        75.37945
657.59        74.06679
658.02        73.41729
658.45        74.46357
658.87        74.36275
659.30        74.02119
659.73        73.88639
660.15        73.57657
660.58        73.58166
661.01        73.79601
661.44        74.10822
661.86         74.1196
662.29        73.81599
662.72        73.47247
663.14        73.24202
663.57        73.34959
664.00        73.71862
664.42        73.85979
664.85        73.74216
665.27        73.67277
665.70        73.67995
666.13        73.66459
666.55        73.63641
666.98        73.60933
667.41        73.59295
667.83        73.60159
668.26        73.63123
668.69         73.6945
669.11        73.75919
669.54        73.79279
669.96         73.8009
670.39        73.69653
670.82        73.56746
671.24        73.75153
671.67        74.16588
672.09        74.30123
672.52        74.16669
672.94        74.10963
673.37        74.15079
673.80        74.09427
674.22        73.96435
674.65           73.84
675.07        73.76118
675.50        73.70753
675.92        73.69148
676.35        73.70489
676.77        73.74898
677.20        73.82519
677.62        73.92706
678.05        74.01994
678.47        74.09041
678.90        74.15047
679.32        74.18991
679.75        74.21101
680.17        74.21632
680.60        74.21763
681.02        74.20197
681.45        74.15728
681.87        74.10527
682.30        73.95679
682.72        73.79252
683.15        73.94498
683.57         74.3401
684.00        74.40348
684.42        74.17474
684.85        74.18995
685.27         74.4515
685.70        74.64386
686.12        74.69412
686.54         74.7453
686.97        74.78364
687.39        74.63897
687.82        74.31735
688.24        74.51576
688.66         74.3092
689.09        74.41006
689.51        74.52379
689.94        74.61367
690.36        74.66313
690.78         74.6998
691.21        74.71716
691.63        74.66586
692.06        74.55144
692.48        74.37969
692.90        74.20985
693.33        74.11697
693.75        74.12451
694.17        74.24689
694.60        74.39838
695.02        74.43806
695.44        74.35841
695.87        74.23361
696.29        74.14858
696.71        74.31228
697.14        74.63964
697.56        74.75109
697.98        74.62885
698.41        74.63784
698.83         74.7571
699.25        74.78074
699.68        74.70437
700.10        74.69775
700.52        74.75952
700.94        74.84389
701.37        74.89839
701.79        74.87974
702.21        74.76077
702.64        74.58898
703.06        74.40614
703.48        74.29484
703.90        74.28258
704.33        74.33467
704.75        74.44097
705.17        74.56048
705.59        74.67553
706.01         74.7701
706.44        74.83157
706.86        74.98643
707.28        75.02344
707.70        75.07127
708.12        75.08926
708.55        75.15567
708.97        75.24023
709.39        75.22347
709.81         75.1172
710.23        75.06211
710.66        75.06862
711.08        75.07448
711.50        75.05812
711.92        75.04359
712.34        75.03179
712.76        75.02264
713.19        75.00476
713.61        75.01059
714.03        75.02406
714.45        75.04002
714.87        75.07842
715.29        75.16926
715.71        75.31133
716.13        75.49487
716.56        75.65262
716.98        75.75144
717.40        75.75223
717.82        75.67968
718.24        75.58972
718.66        75.57655
719.08        75.66006
719.50        75.79961
719.92        75.96113
720.34        76.08885
720.76         76.1591
721.19        76.18631
721.61        76.16242
722.03        76.03824
722.45        75.82244
722.87        75.53465
723.29        75.26586
723.71        75.16018
724.13        75.24358
724.55        75.49758
724.97        75.83589
725.39        76.03672
725.81        76.03516
726.23        76.16576
726.65        75.97508
727.07        75.95919
727.49        75.99349
727.91        76.05553
728.33        76.11796
728.75        76.14547
729.17        76.13212
729.59        76.11281
730.01        76.09392
730.43        76.04118
730.85        75.97876
731.27         75.9843
731.69        76.06378
732.10        76.15689
732.52        76.23827
732.94        76.39895
733.36        76.61384
733.78        76.65906
734.20        76.48293
734.62        76.76982
735.04         76.3283
735.46        76.37782
735.88        76.50566
736.30        76.44095
736.72        76.19263
737.13        76.03948
737.55        76.01017
737.97        76.05367
738.39        76.14231
738.81        76.18898
739.23        76.18655
739.65        76.24558
740.06        76.33089
740.48        76.41132
740.90        76.44927
741.32        76.54256
741.74        76.57867
742.16        76.66311
742.57        76.76768
742.99        76.87951
743.41         76.9693
743.83        76.97417
744.25        76.88892
744.67        76.72469
745.08        76.58509
745.50        76.59343
745.92        76.79388
746.34        77.14989
746.75        77.51878
747.17        77.68398
747.59        77.59219
748.01        77.23852
748.42        76.80729
748.84        76.68353
749.26        76.85649
749.68        77.08316
750.09        77.21665
750.51        76.97375
750.93          76.494
751.35         76.4705
751.76        76.86497
752.18         76.9866
752.60        76.81457
753.01        76.77839
753.43        76.88776
753.85        76.98519
754.27        77.06036
754.68        77.16721
755.10        77.28483
755.52        77.32983
755.93        77.33065
756.35        77.41191
756.77        77.52629
757.18        77.58865
757.60        77.62396
758.02         77.4281
758.43        77.11034
758.85        77.43684
759.26         78.2234
759.68        77.87574
760.10        77.45183
760.51        76.70467
760.93        77.22634
761.34        76.65096
761.76         77.7979
762.18        78.00185
762.59        77.97762
763.01        77.74728
763.42        77.58742
763.84        77.46758
764.26        77.48956
764.67        77.65852
765.09        77.89201
765.50        77.96619
765.92        77.85988
766.33        77.56473
766.75        77.16643
767.16        77.02509
767.58        77.15129
768.00        77.55143
768.41        78.05738
768.83        78.08677
769.24         77.7116
769.66        77.58361
770.07        77.71734
770.49          77.835
770.90        77.88932
771.32        77.82992
771.73         77.7047
772.15        77.66585
772.56        77.73241
772.97        77.83985
773.39        77.92966
773.80        77.91274
774.22        77.79657
774.63        78.04111
775.05        78.52927
775.46        78.79189
775.88        78.74149
776.29         78.6827
776.70        78.64832
777.12        78.57974
777.53        78.52315
777.95        78.48403
778.36        78.46683
778.77        78.45117
779.19        78.43199
779.60        78.42438
780.02        78.44087
780.43        78.50002
780.84        78.57687
781.26        78.72758
781.67        78.96652
782.09        78.96608
782.50        78.68619
782.91        79.23037
783.33        78.93096
783.74         79.0393
784.15        79.03915
784.57        79.01183
784.98        78.99039
785.39        79.08265
785.81        79.26896
786.22        79.37191
786.63        79.36726
787.04        79.38357
787.46        79.43616
787.87        79.42817
788.28        79.38082
788.70        79.39778
789.11        79.47423
789.52        79.49076
789.93        79.47584
790.35        79.70104
790.76        80.08012
791.17         80.0312
791.58        79.62743
792.00         79.4938
792.41         79.6927
792.82        79.83895
793.23        79.92822
793.65         80.1077
794.06        80.36295
794.47        80.66357
794.88        80.90939
795.29        80.72288
795.71        80.58682
796.12         80.0627
796.53        79.46451
796.94        79.31158
797.35        79.61421
797.76        79.82053
798.18        79.84246
798.59        79.94962
799.00        80.11188
799.41         80.1044
799.82        79.97545
800.23        79.95288
800.64        80.06625
801.06        80.21474
801.47        80.37901
801.88        80.44684
802.29        80.39475
802.70        80.26932
803.11        80.12117
803.52        80.02439
803.93         80.0036
804.34        80.03003
804.75        80.09732
805.17        80.17001
805.58        80.26311
805.99        80.39932
806.40        80.52824
806.81        80.49129
807.22        80.30638
807.63        80.14345
808.04        80.07773
808.45        80.10774
808.86        80.24906
809.27        80.54182
809.68        80.89522
810.09        81.09965
810.50        81.10566
810.91        80.97903
811.32        80.78596
811.73        80.65575
812.14        80.63687
812.55        80.63924
812.96         80.6716
813.37        80.87078
813.78        81.16558
814.19        81.28071
814.60        81.21757
815.01        81.21358
815.42        81.28104
815.83        81.26869
816.24        81.19674
816.65        81.19473
817.05        81.28531
817.46        81.38938
817.87        81.51198
818.28        81.60427
818.69         81.6513
819.10        81.67232
819.51        81.66473
819.92        81.62238
820.33        81.55112
820.74        81.44855
821.14          81.342
821.55        81.30836
821.96        81.34207
822.37         81.4376
822.78        81.54179
823.19        81.55597
823.60         81.4558
824.00        81.28763
824.41        81.08458
824.82        81.00041
825.23        81.06883
825.64        81.25769
826.04        81.50146
826.45        81.64447
826.86         81.6565
827.27        81.57041
827.68        81.46452
828.08        81.50091
828.49        81.64355
828.90        81.88946
829.31        82.14209
829.72        82.24641
830.12        82.18923
830.53        81.96355
830.94        81.70294
831.35        81.59184
831.75        81.70079
832.16        81.91924
832.57        82.15614
832.97        82.21333
833.38        82.03439
833.79         81.7149
834.20        81.35387
834.60        81.08443
835.01        80.96214
835.42        80.92957
835.82        81.01093
836.23        81.15988
836.64        81.37908
837.04        81.70045
837.45        81.99002
837.86        82.13245
838.26        82.11254
838.67        81.93128
839.08        81.72049
839.48        81.68879
839.89        81.88242
840.29        82.24464
840.70        82.64437
841.11        82.87273
841.51        82.89911
841.92        82.74986
842.33        82.55235
842.73        82.51276
843.14        82.62901
843.54        82.85678
843.95        83.09779
844.35        83.22417
844.76        83.18393
845.17        83.03358
845.57        82.81953
845.98        82.56765
846.38        82.33781
846.79        82.10004
847.19        81.91193
847.60        81.80676
848.00        81.81851
848.41        81.90524
848.81        82.06525
849.22        82.20272
849.62        82.32697
850.03        82.42841
850.43        82.52144
850.84        82.54811
851.24        82.56022
851.65        82.49135
852.05        82.47226
852.46        82.59951
852.86        82.87413
853.27        83.26175
853.67        83.54848
854.07        83.64548
854.48        83.48871
854.88         83.1679
855.29        82.67319
855.69        82.24164
856.10        81.86724
856.50        81.60514
856.90        81.43052
857.31        81.32942
857.71        81.33638
858.12        81.40183
858.52        81.53957
858.92        81.63148
859.33        81.62213
859.73        81.56274
860.13        81.43426
860.54        81.25002
860.94        81.06913
861.34        80.85703
861.75        80.61504
862.15        80.40314
862.55        80.21175
862.96        80.06218
863.36        79.93906
863.76        79.79061
864.17        79.60497
864.57        79.40463
864.97        79.26296
865.38        79.27871
865.78        79.50704
866.18        79.88391
866.58        80.25056
866.99        80.34244
867.39        80.13134
867.79        79.67528
868.19        79.15334
868.60        78.78906
869.00        78.63792
869.40        78.67296
869.80        78.82996
870.21        78.99211
870.61         79.1767
871.01        79.33549
871.41        79.48518
871.81        79.65101
872.22        79.80782
872.62         79.9814
873.02        80.10885
873.42        80.07992
873.82        79.89087
874.22        79.60176
874.63         79.3814
875.03        79.43034
875.43        79.78718
875.83        80.36983
876.23        81.02666
876.63        81.49832
877.03        81.69209
877.44        81.66325
877.84        81.48005
878.24        81.23227
878.64        80.97324
879.04         80.6806
879.44        80.40643
879.84        80.21977
880.24        80.12923
880.64        80.14295
881.04        80.19653
881.44        80.16438
881.84        80.01507
882.24        79.76462
882.65        79.48946
883.05        79.43473
883.45        79.59582
883.85         79.9085
884.25        80.21402
884.65        80.27702
885.05        80.05955
885.45        79.64153
885.85        79.18862
886.25        78.98745
886.65        79.11863
887.05        79.48862
887.45        79.94646
887.85        80.26378
888.25        80.37035
888.65        80.32469
889.04        80.19762
889.44        80.14526
889.84        80.18983
890.24        80.27392
890.64        80.32747
891.04        80.25207
891.44        80.03564
891.84         79.7395
892.24        79.43267
892.64        79.20781
893.04        79.10364
893.44        79.10263
893.83        79.21326
894.23        79.38104
894.63         79.5979
895.03        79.83903
895.43        80.08453
895.83        80.30081
896.23        80.46778
896.63        80.59837
897.02        80.62459
897.42        80.49817
897.82        80.22086
898.22         79.8332
898.62        79.49522
899.01        79.48304
899.41        79.83023
899.81        80.46277
900.21        81.18906
900.61        81.68851
901.00         81.8443
901.40        81.73981
901.80        81.48428
902.20        81.27317
902.59        81.18551
902.99        81.16545
903.39        81.15224
903.79        81.03905
904.18        80.81377
904.58         80.5462
904.98        80.35778
905.38        80.42575
905.77        80.75115
906.17        81.26176
906.57        81.78458
906.96        82.04865
907.36        81.95507
907.76        81.63371
908.15        81.20454
908.55        80.80025
908.95        80.52914
909.34        80.30173
909.74        80.26558
910.14        80.58832
910.53        81.26376
910.93        82.23607
911.33        83.14551
911.72        83.37657
912.12        82.80994
912.52        81.66873
912.91        80.42909
913.31        79.81194
913.70        79.94942
914.10        80.64284
914.49        81.55499
914.89        81.98816
915.29         81.7537
915.68        81.05351
916.08        80.24081
916.47        79.86418
916.87        80.06489
917.26        80.62083
917.66        81.24475
918.05        81.46245
918.45        81.16024
918.84         80.5537
919.24        79.84557
919.64        79.44234
920.03        79.48688
920.42        79.83376
920.82        80.37318
921.21         80.9356
921.61         81.4238
922.00        81.88969
922.40        82.30428
922.79        82.69702
923.19        83.01351
923.58        83.26153
923.98        83.33617
924.37        83.15846
924.77         82.7255
925.16        82.06332
925.55         81.3894
925.95        81.06354
926.34        81.18096
926.74        81.64519
927.13        82.20901
927.52        82.35791
927.92        82.01817
928.31        81.34173
928.70         80.6502
929.10        80.42963
929.49        80.78523
929.89        81.50355
930.28         82.3921
930.67          82.979
931.07        83.08264
931.46        82.87526
931.85        82.42617
932.24        81.88548
932.64        81.33929
933.03         80.7486
933.42        80.22902
933.82        79.96604
934.21        80.00412
934.60        80.33495
934.99        80.80339
935.39        81.09526
935.78        81.16385
936.17        81.05701
936.56        80.94237
936.96        81.10881
937.35        81.65219
937.74        82.40507
938.13        83.14933
938.53        83.59447
938.92        83.67599
939.31        83.47153
939.70        83.12681
940.09        82.89309
940.49         82.8336
940.88        82.92188
941.27         83.0209
941.66         82.9257
942.05        82.60654
942.44        82.15756
942.84        81.75204
943.23        81.60624
943.62        81.80231
944.01         82.2625
944.40        82.83373
944.79        83.24578
945.18        83.38937
945.57        83.30849
945.97        83.07625
946.36         82.8865
946.75        82.74682
947.14        82.59033
947.53         82.3423
947.92        81.88667
948.31        81.23892
948.70        80.52865
949.09        79.84609
949.48         79.2979
949.87         78.9379
950.26        78.72833
950.65        78.76704
951.04        79.20531
951.43         80.0238
951.82        81.15389
952.21        82.28133
952.60        82.86761
952.99        82.76087
953.38        82.08764
953.77        81.19157
954.16        80.62388
954.55        80.52883
954.94        80.76955
955.33         81.1023
955.72        81.11407
956.11        80.69068
956.50        79.96603
956.89        79.18695
957.28         78.7593
957.66        78.83556
958.05        79.27823
958.44        79.82053
958.83        80.03807
959.22         79.8159
959.61        79.24422
960.00        78.63464
960.39        78.47404
960.78        78.85961
961.16        79.69425
961.55        80.47919
961.94        80.48783
962.33        79.57387
962.72        78.02338
963.11        76.45783
963.49        75.77649
963.88        76.17056
964.27        77.38496
964.66        78.91171
965.04        79.84367
965.43        79.80259
965.82        79.12109
966.21        78.24895
966.60        77.87975
966.98        78.20712
967.37        78.95579
967.76        79.87144
968.15        80.46228
968.53        80.55253
968.92        80.31725
969.31        79.90788
969.69         79.5148
970.08        79.21735
970.47        78.95923
970.86        78.84835
971.24        79.10328
971.63        79.66599
972.02        80.46516
972.40        81.30942
972.79        81.80614
973.17        81.95489
973.56        81.76186
973.95        81.37402
974.33        81.03088
974.72        80.80431
975.11        80.64011
975.49        80.43427
975.88        80.02982
976.26        79.43721
976.65        78.74549
977.04        78.11515
977.42        77.77712
977.81        77.74094
978.19        77.89159
978.58        78.30919
978.96        79.06472
979.35         80.0535
979.74        81.28084
980.12        82.34753
980.51        82.40371
980.89        81.42947
981.28        79.50962
981.66         77.4437
982.05        76.72382
982.43        77.72636
982.82        79.96577
983.20        82.48681
983.59        83.62318
983.97        83.08849
984.35        81.33892
984.74          79.103
985.12        77.69524
985.51        77.55683
985.89         78.2646
986.28        79.41931
986.66        80.54277
987.04        81.41129
987.43        82.15117
987.81        82.74017
988.20        82.98167
988.58        82.90091
988.96        82.50747
989.35        81.81169
989.73         80.9688
990.12        79.99773
990.50        78.85975
990.88        77.86639
991.27         77.6848
991.65        78.47557
992.03        79.99741
992.42        81.45831
992.80        82.11499
993.18        81.77342
993.56        80.60157
993.95        79.02251
994.33         78.1321
994.71        78.47057
995.10          79.484
995.48         80.7107
995.86        81.66299
996.24        82.27666
996.63        82.70527
997.01        82.95396
997.39         82.7782
997.77        82.17637
998.15         81.2768
998.54         80.3344
998.92        79.71238
999.30        79.49664
999.68        79.62469
1000.06        80.15976
1000.45        81.08569
1000.83        82.32137
1001.21        83.67463
1001.59        84.83435
1001.97        85.37614
1002.35        85.23304
1002.73        84.56078
1003.12        83.36094
1003.50        81.74763
1003.88        80.04623
1004.26        78.30432
1004.64        77.14005
1005.02        77.26336
1005.40         78.6369
1005.78        81.12965
1006.16        83.67426
1006.54        84.30223
1006.92        82.51808
1007.30        78.84767
1007.69        74.84023
1008.07        73.06461
1008.45         74.2436
1008.83        77.53652
1009.21          81.419
1009.59        83.71685
1009.97        83.84013
1010.35        82.23931
1010.73        79.71898
1011.11        78.31728
1011.49        79.00491
1011.86        81.18411
1012.24         83.5289
1012.62        84.52249
1013.00         83.9118
1013.38          82.333
1013.76        80.62194
1014.14        80.08552
1014.52        81.14234
1014.90        83.36304
1015.28        86.21191
1015.66        88.60219
1016.04        89.93802
1016.41        90.51564
1016.79        90.28346
1017.17        89.57858
1017.55        88.60368
1017.93        87.36604
1018.31        86.04366
1018.69        84.91082
1019.06        84.12936
1019.44        83.68654
1019.82        83.79887
1020.20        84.73972
1020.58        86.35501
1020.95        88.23683
1021.33        89.86475
1021.71        90.58189
1022.09        90.28851
1022.46        89.13046
1022.84        87.29649
1023.22        85.01466
1023.60        82.45589
1023.97        79.46328
1024.35        76.58266
1024.73        74.70014
