SpectraSmart Spectrum 2.9.0.0
--------- Device Information -----------
Spectrum Name :  反射率_0
Saving Time :  2024/04/27 23:59:08
Spectro-Module Model Name : SE2030-DUVN
Spectro-Module Serial Number : OS361AC55029948
Wavelength Start : 200
Wavelength End : 1025
Wavelength Unit : Wavelength(nm)
Spectrum Unit : Reflectance(%)
-----------Spectrum Setting ------------
Integration Time : 20ms
Average : 10
Boxcar : 0
Background removal :  enabled
linearity correction :  enabled
SC :  disabled
Intensity correction :  disabled
DWT denoise :  enabled
savitzky-golay :  disabled
FFT :  disabled
Running average :  disabled
Kalman :  disabled
High pass :  disabled
---------------BEGIN--------------------
Wavelength(nm)             Reflectance(%)
200.29               0
200.75        33.30667
201.21        46.57048
201.67        58.22609
202.13        61.74239
202.58        59.80528
203.04        55.86731
203.50        53.32153
203.96        56.66317
204.42        64.92598
204.88        74.47191
205.34        83.34218
205.80         91.0215
206.26        98.28836
206.72         107.008
207.18        115.7478
207.64        113.9924
208.10        99.84214
208.55        84.53812
209.01        73.12028
209.47        63.87136
209.93        52.41402
210.39        29.33323
210.85       -32.44032
211.31       -90.72363
211.77        9.806801
212.23        66.80805
212.69        85.64957
213.14        91.79556
213.60        92.28448
214.06        88.52435
214.52        78.53741
214.98        65.97611
215.44        60.83649
215.90        61.46766
216.36        63.78009
216.81        65.32771
217.27        65.95223
217.73        66.74036
218.19        67.51566
218.65        67.62187
219.11        66.98716
219.57        65.50327
220.02        63.56818
220.48        63.52694
220.94        65.42626
221.40        68.08352
221.86        70.40568
222.32        71.44468
222.77        71.22038
223.23        70.24448
223.69        68.62852
224.15        66.22057
224.61        63.06383
225.06        59.00414
225.52        55.09959
225.98         53.2515
226.44        53.69044
226.90        55.19134
227.36        56.59343
227.81        56.93441
228.27        56.20815
228.73        54.68964
229.19        52.42611
229.65        49.71169
230.10        46.93771
230.56        44.53102
231.02        42.76293
231.48        42.03135
231.93        42.25965
232.39        43.31037
232.85        45.06342
233.31        47.36871
233.77        49.99386
234.22        52.91541
234.68        55.51246
235.14        57.11823
235.60        57.72452
236.05        57.43002
236.51        57.09323
236.97        58.44451
237.43        61.93018
237.88        67.01302
238.34        72.05682
238.80        75.88094
239.26        78.52752
239.71        80.62536
240.17        82.43684
240.63        84.63277
241.08        86.79731
241.54        87.73547
242.00        88.05351
242.46        88.59173
242.91        89.89345
243.37        92.46092
243.83        98.52057
244.28        110.1667
244.74        119.6925
245.20        120.8584
245.66        117.8231
246.11        115.7551
246.57        115.0203
247.03        113.6959
247.48        111.4546
247.94        108.8444
248.40          107.37
248.85        108.1188
249.31        109.0731
249.77        107.3891
250.22        103.9153
250.68        100.3866
251.14        98.13145
251.59        98.44267
252.05        101.6937
252.51        107.9719
252.96        117.0106
253.42        124.5902
253.88        126.1854
254.33        123.0703
254.79        119.3123
255.25        116.5559
255.70        114.3781
256.16        112.8966
256.62        111.6492
257.07        110.4132
257.53        109.7879
257.99        109.2569
258.44        108.2982
258.90        107.1798
259.35        105.3913
259.81         103.689
260.27        101.9227
260.72        100.0764
261.18        98.67983
261.63        97.17519
262.09        95.93372
262.55        94.67504
263.00        93.20937
263.46         91.8279
263.91        90.24548
264.37        88.67104
264.83        87.05624
265.28        85.38247
265.74        83.86471
266.19        82.37252
266.65        81.00593
267.11        79.66112
267.56        78.32496
268.02        77.12763
268.47         76.0134
268.93        74.99245
269.38        73.93192
269.84         72.6836
270.30         71.2177
270.75        69.58667
271.21        67.94363
271.66        66.44745
272.12        65.16981
272.57        64.00035
273.03        62.90568
273.48        61.71996
273.94        60.48174
274.39        59.18339
274.85        57.92505
275.31        56.69527
275.76        55.48085
276.22         54.3527
276.67        53.25153
277.13        52.26574
277.58        51.32129
278.04        50.46178
278.49        49.62854
278.95        48.90398
279.40        48.20751
279.86        47.60548
280.31        46.96095
280.77        46.25261
281.22        45.42424
281.68        44.57514
282.13        43.76217
282.59        43.16361
283.04        42.75532
283.50        42.52388
283.95        42.34117
284.41        42.08274
284.86        41.70644
285.32        41.31176
285.77        40.96484
286.22        40.82807
286.68        40.93407
287.13        41.15488
287.59        41.45647
288.04         41.6929
288.50        41.85683
288.95        41.94711
289.41        41.97403
289.86        41.87727
290.32        41.71534
290.77        41.51262
291.22        41.38997
291.68        41.51183
292.13         41.9119
292.59        42.59152
293.04        43.49261
293.50        44.54959
293.95        45.71225
294.40        46.99351
294.86        48.40681
295.31        49.96458
295.77        51.66338
296.22        53.45333
296.68        55.26691
297.13        56.97127
297.58        58.53645
298.04        60.00418
298.49        61.44233
298.95        63.02649
299.40        64.79197
299.85        66.71684
300.31        68.77019
300.76        70.82252
301.21        72.83157
301.67        74.84512
302.12        76.80826
302.58        78.76349
303.03        80.67421
303.48        82.55617
303.94        84.49316
304.39        86.50576
304.84        88.62981
305.30        90.86446
305.75        93.07413
306.20        95.17073
306.66        97.15502
307.11         98.9956
307.57        100.7957
308.02        102.5702
308.47        104.3433
308.93        106.0945
309.38        107.7244
309.83         109.216
310.29        110.5923
310.74         111.854
311.19         113.036
311.65        114.1572
312.10        115.1898
312.55        116.1281
313.00        117.0213
313.46        117.9571
313.91        118.9275
314.36        119.9366
314.82        120.8749
315.27        121.5562
315.72        121.9553
316.18        122.1524
316.63        122.2984
317.08        122.6783
317.53        123.3528
317.99        124.2214
318.44        125.1396
318.89         125.842
319.35        126.2489
319.80         126.452
320.25        126.5358
320.70        126.6459
321.16        126.8265
321.61         127.057
322.06        127.3193
322.51        127.6022
322.97        127.8728
323.42        128.1801
323.87        128.4969
324.32        128.7942
324.78        129.0409
325.23        129.2891
325.68        129.4973
326.13        129.6406
326.59        129.6951
327.04        129.7274
327.49        129.7873
327.94             130
328.39         130.394
328.85         130.901
329.30        131.5106
329.75        131.9923
330.20        132.2916
330.66         132.428
331.11         132.576
331.56        132.8844
332.01        133.4113
332.46        134.0966
332.92        134.8113
333.37        135.5252
333.82        136.1202
334.27        136.6196
334.72        137.0415
335.17        137.4207
335.63        137.7462
336.08        138.0799
336.53         138.384
336.98        138.6551
337.43         138.909
337.88        139.1653
338.34         139.464
338.79        139.9305
339.24        140.5494
339.69        141.2749
340.14        142.0209
340.59        142.6441
341.05        143.1113
341.50         143.493
341.95        143.8026
342.40        144.0845
342.85        144.3746
343.30        144.6406
343.75        144.9974
344.20        145.6322
344.66        146.5453
345.11        147.6552
345.56        148.6905
346.01        149.2133
346.46        149.1446
346.91         148.636
347.36        147.9819
347.81         147.641
348.26        147.7335
348.72        148.1261
349.17        148.6389
349.62        149.0082
350.07        149.1371
350.52        149.1083
350.97        148.9791
351.42         148.828
351.87        148.6918
352.32        148.5471
352.77        148.3622
353.22        148.1047
353.67        147.7686
354.13        147.3669
354.58         146.953
355.03        146.6784
355.48        146.5371
355.93        146.4602
356.38        146.2611
356.83        145.6483
357.28        144.5908
357.73        143.2335
358.18        141.7702
358.63        140.4948
359.08        139.5091
359.53        138.7299
359.98        138.1442
360.43        137.7254
360.88        137.4126
361.33        137.1878
361.78        136.9107
362.23        136.3394
362.68        135.4194
363.13          134.24
363.58        132.9288
364.03        131.5598
364.48        130.4542
364.93        129.3929
365.38        128.4225
365.83         127.487
366.28        126.5686
366.73        125.6857
367.18        124.8526
367.63        124.0871
368.08        123.3805
368.53        122.7111
368.98        122.0187
369.43         121.215
369.88        120.2887
370.33        119.2748
370.78        118.2516
371.23        117.3472
371.68        116.5973
372.13        115.9622
372.58        115.4014
373.03        114.8468
373.48        114.2658
373.93        113.6746
374.38        113.0517
374.83        112.3602
375.28        111.5984
375.72        110.7547
376.17        109.9069
376.62        109.1074
377.07        108.3718
377.52        107.6735
377.97        107.0044
378.42        106.3483
378.87        105.7003
379.32        105.0876
379.77        104.4658
380.22        103.7553
380.67        102.9541
381.11        102.0909
381.56        101.2804
382.01        100.7302
382.46        100.4835
382.91        100.4721
383.36        100.5374
383.81          100.43
384.26        100.0816
384.71        99.55627
385.15        98.94654
385.60        98.47046
386.05        98.15555
386.50         97.9352
386.95        97.72758
387.40        97.41628
387.85        96.98373
388.29        96.43316
388.74        95.93143
389.19        95.47934
389.64        95.07568
390.09         94.6749
390.54          94.276
390.98        93.86181
391.43        93.49522
391.88        93.18839
392.33        92.85998
392.78         92.4719
393.23        92.05782
393.67        91.42607
394.12        90.78094
394.57        91.06768
395.02        90.89241
395.47        91.07719
395.91        91.11549
396.36        91.06148
396.81        90.87962
397.26         90.5204
397.71        90.07983
398.15         89.6879
398.60        89.47174
399.05        89.27741
399.50        89.09391
399.95        88.98949
400.39        88.91385
400.84         88.6525
401.29        88.24022
401.74        87.81051
402.18         87.4537
402.63        87.26651
403.08        87.22691
403.53        87.09889
403.97        86.86829
404.42        86.73063
404.87        86.62708
405.32        86.45306
405.76        86.19031
406.21        85.72924
406.66        85.23136
407.11        85.23238
407.55        85.62016
408.00        85.72301
408.45        85.45789
408.90        84.79917
409.34        84.02892
409.79        84.09043
410.24        84.79112
410.68        84.93357
411.13         84.4376
411.58        84.02923
412.03        83.82324
412.47        83.67896
412.92        83.60381
413.37        83.66219
413.81        83.74522
414.26        83.74773
414.71        83.62399
415.15        83.42413
415.60         83.1915
416.05        83.08585
416.49        83.14736
416.94        83.30108
417.39        83.47654
417.83        83.56061
418.28        83.51625
418.73        83.37698
419.17        83.17213
419.62        82.95252
420.07        82.74705
420.51        82.53538
420.96         82.3582
421.41        82.21387
421.85        82.06728
422.30        81.98659
422.74        81.92475
423.19        81.90553
423.64        81.91306
424.08        82.04594
424.53        82.16478
424.98        82.15903
425.42        82.04124
425.87        81.68625
426.31        81.25555
426.76        81.35831
427.21        81.84658
427.65        81.73285
428.10        81.11397
428.54        80.95579
428.99        81.32027
429.44        81.74623
429.88        82.01788
430.33        81.89578
430.77        81.45988
431.22        81.10999
431.66        81.37923
432.11        81.43241
432.56        81.51845
433.00        81.55624
433.45        81.28693
433.89        81.58237
434.34        82.48503
434.78        80.31199
435.23        80.34749
435.67        80.64006
436.12        81.54714
436.57        81.74943
437.01        81.13278
437.46        80.72284
437.90        81.03574
438.35        81.81334
438.79        81.37188
439.24         81.4141
439.68        81.46031
440.13        81.41523
440.57        81.35357
441.02        81.77856
441.46        82.43253
441.91        82.35327
442.35        81.63902
442.80        81.35004
443.24         81.6321
443.69          81.672
444.13        81.51289
444.58        81.52309
445.02        81.67772
445.47        81.86691
445.91        82.01671
446.36        82.10389
446.80        82.09698
447.24        81.94405
447.69         81.7299
448.13        81.75128
448.58        81.94208
449.02        81.79094
449.47        81.40408
449.91        81.30997
450.36        81.55424
450.80        81.81867
451.25        82.01613
451.69        82.12001
452.13        82.08057
452.58        81.82858
453.02        81.47298
453.47        81.23388
453.91        81.15255
454.36        81.28976
454.80        81.43862
455.24        81.13274
455.69        80.52206
456.13        79.87206
456.58        79.44889
457.02        79.74558
457.46        80.55093
457.91        80.42395
458.35        79.73942
458.79        79.38458
459.24        79.46887
459.68        79.32656
460.13        79.04548
460.57          78.704
461.01        78.68397
461.46        78.85054
461.90        78.81478
462.34        78.86575
462.79        79.17643
463.23        78.95028
463.68        78.43135
464.12        78.18863
464.56        78.26228
465.01        78.47935
465.45        78.56655
465.89        78.32254
466.34        77.90404
466.78        77.55291
467.22         77.0646
467.67         78.0028
468.11        77.71845
468.55        77.68565
468.99        77.24525
469.44        77.10603
469.88        77.28329
470.32        77.37506
470.77        77.34079
471.21        77.27911
471.65         77.1787
472.10        77.02631
472.54        76.82052
472.98        76.64841
473.42        76.53777
473.87        76.36561
474.31        76.13275
474.75        76.25783
475.20        76.59233
475.64        76.35311
476.08        75.65002
476.52        75.47964
476.97        75.90543
477.41        75.85792
477.85        76.08283
478.29        76.39493
478.74        76.43928
479.18        75.96825
479.62        76.19989
480.06         76.0611
480.50        75.96223
480.95        75.95815
481.39        76.00654
481.83        75.68591
482.27        76.15859
482.72        75.35825
483.16        75.77427
483.60         75.5798
484.04        75.41617
484.48        75.27862
484.93        75.39176
485.37        75.12479
485.81        76.11251
486.25        75.89105
486.69        76.59468
487.14        75.75809
487.58        75.43825
488.02        75.63595
488.46        75.84067
488.90        76.12095
489.34        75.31516
489.79        74.79533
490.23        75.20882
490.67        75.09335
491.11        74.76746
491.55        74.76083
491.99        75.03091
492.43        75.11977
492.88        74.97737
493.32        74.82716
493.76        74.70794
494.20        74.66529
494.64        74.73251
495.08        74.82294
495.52         74.9017
495.96        75.09528
496.41        75.31403
496.85        75.12036
497.29        74.62111
497.73        74.62924
498.17        74.98161
498.61         75.0193
499.05        74.68232
499.49        74.59861
499.93        74.78663
500.37        74.66714
500.82        74.26036
501.26        74.35619
501.70        75.01587
502.14        74.23923
502.58        74.68648
503.02         74.6219
503.46        74.52693
503.90        74.39771
504.34        74.26846
504.78        74.20951
505.22        74.19382
505.66        74.14481
506.10        74.12789
506.54        74.11004
506.98        74.04138
507.42        74.55206
507.86        74.81609
508.30        74.33239
508.74         74.7235
509.18        74.51116
509.62        74.30039
510.06        74.13506
510.50        74.06413
510.94        74.04158
511.38        74.03048
511.82         74.0181
512.26        73.99015
512.70        73.96323
513.14        73.95426
513.58        73.95702
514.02        73.96938
514.46        74.03512
514.90        74.15331
515.34        74.06371
515.78        74.18455
516.22        74.17001
516.66         74.1555
517.10        74.14309
517.54        74.13547
517.98        74.12801
518.42        74.09618
518.86         74.0003
519.30         73.8403
519.74        73.67316
520.18        73.54233
520.62        73.42869
521.06        73.38699
521.50         73.5826
521.93        73.93491
522.37        74.13091
522.81        74.13093
523.25        74.07009
523.69        74.00246
524.13        73.96737
524.57        73.98487
525.01        74.03666
525.45        74.08247
525.89        74.06175
526.32        73.95792
526.76        73.81223
527.20        73.65909
527.64        73.55858
528.08        73.52657
528.52        73.54045
528.96        73.58066
529.40        73.61637
529.83         73.6291
530.27         73.6452
530.71        73.64948
531.15        73.62754
531.59        73.58175
532.03        73.51321
532.46        73.44586
532.90        73.44513
533.34        73.51021
533.78         73.6165
534.22        73.72089
534.66         73.7571
535.09        73.70226
535.53        73.60465
535.97        73.47434
536.41        73.34474
536.85        73.23438
537.28        73.13834
537.72        73.07987
538.16        73.08492
538.60        73.15487
539.04        73.29433
539.47        73.43808
539.91        73.52667
540.35        73.52646
540.79        73.46973
541.22        73.38232
541.66         73.3185
542.10        73.29239
542.54        73.28794
542.97        73.28874
543.41        73.31129
543.85        73.33452
544.29        73.36289
544.72        73.37035
545.16        73.33469
545.60        73.23569
546.04        73.12742
546.47        73.02908
546.91        72.86435
547.35        72.69315
547.79        72.78378
548.22        73.03185
548.66        73.04803
549.10        72.83371
549.53         72.7561
549.97         72.8386
550.41         72.8667
550.84        72.84196
551.28         72.8877
551.72        72.97102
552.15        72.97833
552.59        72.91633
553.03            72.8
553.46         72.6664
553.90        72.62659
554.34        72.67784
554.77        72.80588
555.21        72.93587
555.65        72.95545
556.08         72.7764
556.52        72.61211
556.96        72.47677
557.39        72.48824
557.83        72.60581
558.27        72.50345
558.70        72.23849
559.14        72.17082
559.57         72.2914
560.01        72.48949
560.45        72.67692
560.88        72.62237
561.32        72.43906
561.75        72.51067
562.19        72.80637
562.63         72.8343
563.06        72.59593
563.50        72.45631
563.93        72.42111
564.37        72.36055
564.80        72.26412
565.24        72.25574
565.68        72.32643
566.11        72.40029
566.55        72.49008
566.98        72.60995
567.42        72.73674
567.85        72.73891
568.29        72.68557
568.72        72.57506
569.16        72.47287
569.60        72.53136
570.03        72.78956
570.47        72.54499
570.90        72.65742
571.34        73.01161
571.77        73.13685
572.21        72.61231
572.64        72.73853
573.08        72.84458
573.51        72.17824
573.95        72.49123
574.38         73.1251
574.82        72.82028
575.25        72.47776
575.69        72.35651
576.12        72.42063
576.56        72.97269
576.99        72.67727
577.42        72.94636
577.86        73.02332
578.29         72.9454
578.73        72.94177
579.16        72.96031
579.60        73.03588
580.03        72.91978
580.47        72.47462
580.90        73.21581
581.33        73.07105
581.77        73.16705
582.20        72.87326
582.64        72.99357
583.07        72.78052
583.51        72.66113
583.94        72.66547
584.37        72.65497
584.81        72.69655
585.24        72.69772
585.68        72.71173
586.11        72.81265
586.54        72.77425
586.98        72.50365
587.41        72.77055
587.85        72.33762
588.28        72.84006
588.71        72.25669
589.15        72.76795
589.58        72.53467
590.01        72.74847
590.45        72.81765
590.88         71.8737
591.31        71.82217
591.75        72.23557
592.18         72.2718
592.61        72.10526
593.05        72.31433
593.48        72.84532
593.91          72.704
594.35         72.2439
594.78        72.51003
595.21        72.26629
595.65        72.57242
596.08        72.17011
596.51        72.38081
596.94        72.18163
597.38        72.31474
597.81        72.71726
598.24        71.78937
598.68        72.18552
599.11        72.20793
599.54        72.59277
599.97        72.24065
600.41        72.54348
600.84        72.45294
601.27        72.32996
601.70        72.31632
602.14        71.74158
602.57        72.02407
603.00        72.13209
603.43        72.10276
603.87          72.057
604.30        71.94118
604.73        71.89915
605.16        72.14951
605.60        72.12096
606.03          72.399
606.46        72.84013
606.89        72.26582
607.32         72.1652
607.76        72.60745
608.19        72.19763
608.62        72.21857
609.05        72.17047
609.48         72.2501
609.92        72.34359
610.35         72.2498
610.78        72.34013
611.21        71.53683
611.64        71.83624
612.07        71.82773
612.50        71.98632
612.94        72.06897
613.37        72.10119
613.80        71.82355
614.23        71.96249
614.66        71.89981
615.09        71.93653
615.52        72.01649
615.96        72.21458
616.39        71.83528
616.82        72.08871
617.25        72.21001
617.68        72.08353
618.11         72.0685
618.54        72.08369
618.97        72.12837
619.40        72.07167
619.84        72.29876
620.27        72.03016
620.70        71.72771
621.13        71.20966
621.56        71.69909
621.99        71.61292
622.42          71.744
622.85        71.60598
623.28        71.67867
623.71        71.97941
624.14        71.52784
624.57        71.94875
625.00        72.03072
625.43        71.65015
625.86        71.61562
626.29         71.8316
626.72        71.29401
627.15        71.46002
627.58        71.42419
628.01        71.67736
628.44        71.34949
628.87        71.03134
629.30        71.70413
629.73        71.56727
630.16        71.20611
630.59        71.35051
631.02        71.27568
631.45        71.33498
631.88         71.3908
632.31        71.47986
632.74        71.27368
633.17        71.47552
633.60        71.48579
634.03        71.50297
634.46          71.567
634.89        71.63766
635.32        71.51744
635.75        71.24287
636.18        71.12206
636.61        71.17481
637.04        71.13734
637.47        71.05145
637.89        71.23852
638.32        71.59422
638.75        71.75153
639.18         71.6666
639.61        71.49879
640.04        71.32621
640.47        71.24078
640.90        71.27804
641.33        71.37867
641.76        71.46776
642.18         71.5942
642.61        71.44379
643.04        71.29488
643.47        71.14009
643.90         71.0024
644.33        71.06599
644.76        71.16978
645.18        71.29978
645.61        71.34048
646.04        71.26832
646.47        71.11149
646.90        70.93597
647.33         70.8566
647.75        70.91327
648.18        71.06447
648.61        71.22974
649.04        71.36636
649.47         71.4144
649.89        71.17287
650.32        70.81195
650.75         70.8806
651.18        71.32343
651.61         71.6694
652.03        71.74483
652.46        71.43324
652.89        70.95389
653.32        70.68182
653.74        71.04094
654.17        71.48874
654.60        71.18693
655.03        71.27554
655.46        70.92138
655.88        71.57938
656.31        73.37024
656.74        74.80678
657.16        73.02732
657.59        72.03922
658.02        71.30083
658.45          71.784
658.87        71.63239
659.30        71.84888
659.73        71.02078
660.15        71.12039
660.58        71.15961
661.01        71.42142
661.44        71.58219
661.86        71.62087
662.29         71.5201
662.72        71.32229
663.14        71.13018
663.57        71.10743
664.00        71.24635
664.42        71.29197
664.85        71.23946
665.27        71.26358
665.70        71.33952
666.13        71.34284
666.55        71.26809
666.98         71.1404
667.41         71.0176
667.83        70.99481
668.26        71.08469
668.69        71.26624
669.11        71.46603
669.54        71.58627
669.96        71.60855
670.39        71.47039
670.82        71.26743
671.24        71.33235
671.67        71.60053
672.09        71.61684
672.52        71.40824
672.94        71.26896
673.37        71.25551
673.80        71.31277
674.22        71.42609
674.65        71.47657
675.07         71.4694
675.50        71.44073
675.92        71.45952
676.35         71.3929
676.77        71.27002
677.20        71.12537
677.62         71.0114
678.05        70.96397
678.47         70.9782
678.90        71.14954
679.32        71.32558
679.75        71.44516
680.17         71.4189
680.60        71.79277
681.02        71.72379
681.45         71.6163
681.87        71.48418
682.30        71.26456
682.72        71.10588
683.15        71.19356
683.57        71.48783
684.00        71.58492
684.42        71.48783
684.85        71.54255
685.27        71.74065
685.70        71.84363
686.12        71.81557
686.54        71.81277
686.97        71.84693
687.39        71.57748
687.82         71.6681
688.24        71.47266
688.66        71.53561
689.09        71.55588
689.51        71.63348
689.94        71.68865
690.36        71.70993
690.78        71.71641
691.21        71.70068
691.63        71.64843
692.06         71.5695
692.48        71.47021
692.90        71.37886
693.33        71.32764
693.75        71.32858
694.17        71.37858
694.60        71.45058
695.02         71.5296
695.44        71.59335
695.87        71.64107
696.29        71.68302
696.71        71.75289
697.14          71.826
697.56        71.87378
697.98        71.88023
698.41        71.90571
698.83        71.93035
699.25        71.94659
699.68        71.93626
700.10        71.93794
700.52        71.94171
700.94        71.94173
701.37        71.92203
701.79        71.89597
702.21        71.84628
702.64        71.79004
703.06        71.72832
703.48         71.6819
703.90         71.6643
704.33        71.66837
704.75        71.69571
705.17        71.72567
705.59        71.74909
706.01        71.73875
706.44        71.72364
706.86         71.8557
707.28        71.92911
707.70        72.16177
708.12        72.41493
708.55        72.36459
708.97        72.07375
709.39         72.0257
709.81        72.22187
710.23        72.26112
710.66        72.13242
711.08        72.10786
711.50        72.16985
711.92        72.18752
712.34         72.1573
712.76        72.11646
713.19        72.08091
713.61        72.12504
714.03        72.23672
714.45        72.38829
714.87        72.54233
715.29        72.64627
715.71        72.68552
716.13         72.6761
716.56        72.61737
716.98        72.59109
717.40        72.59095
717.82        72.60339
718.24        72.63281
718.66        72.68629
719.08         72.7586
719.50        72.84648
719.92        72.92502
720.34        72.95212
720.76        72.91795
721.19        72.82359
721.61        72.70862
722.03        72.60719
722.45         72.5344
722.87        72.48567
723.29        72.45388
723.71        72.42226
724.13        72.39291
724.55        72.38265
724.97        72.40288
725.39        72.46865
725.81        72.57768
726.23        72.70703
726.65        72.85599
727.07         73.0295
727.49        73.21502
727.91         73.4044
728.33        73.53958
728.75        73.52796
729.17        73.35906
729.59        73.06877
730.01        72.74815
730.43        72.54585
730.85        72.49915
731.27        72.56389
731.69        72.68807
732.10        72.78282
732.52        72.80538
732.94        72.84435
733.36        72.90153
733.78        72.85491
734.20        72.68998
734.62        72.94321
735.04        72.51543
735.46        72.82534
735.88        73.40862
736.30        73.44748
736.72        73.20242
737.13        73.07073
737.55        73.16166
737.97        73.20702
738.39        73.19174
738.81        73.12518
739.23        73.03011
739.65        73.08419
740.06        73.21069
740.48          73.228
740.90        73.08714
741.32        72.95887
741.74        72.81091
742.16        72.82923
742.57        73.01005
742.99        73.32787
743.41        73.66145
743.83        73.75645
744.25        73.59608
744.67        73.34516
745.08        73.13394
745.50        73.03284
745.92        73.10336
746.34        73.35696
746.75        73.66001
747.17        73.77028
747.59        73.63668
748.01        73.30125
748.42        72.92257
748.84        72.78797
749.26        72.90401
749.68        73.13757
750.09        73.37013
750.51        73.28001
750.93        72.98995
751.35        73.19411
751.76        73.78645
752.18        73.96475
752.60        73.68822
753.01        73.41548
753.43        73.24033
753.85        73.16254
754.27        73.21854
754.68        73.40026
755.10        73.63613
755.52        73.80619
755.93        73.88998
756.35        73.93381
756.77        73.92947
757.18        73.96764
757.60        74.07915
758.02        73.94816
758.43        73.68587
758.85        74.12666
759.26        74.67691
759.68         74.5874
760.10        73.95669
760.51        72.64468
760.93        73.18508
761.34        73.19593
761.76        73.79932
762.18        73.99935
762.59        73.95704
763.01        73.95536
763.42        74.08961
763.84        74.13123
764.26         74.1275
764.67          74.283
765.09        74.52317
765.50        74.47619
765.92         74.2011
766.33        73.92568
766.75          73.695
767.16         73.8303
767.58        73.76002
768.00        74.20029
768.41        74.80828
768.83        74.71286
769.24        74.08175
769.66        74.01686
770.07        74.45869
770.49        74.67707
770.90        74.57361
771.32        74.26358
771.73        73.90769
772.15        73.79853
772.56        73.98342
772.97        74.32028
773.39        74.66349
773.80        74.78578
774.22        74.68893
774.63        74.81969
775.05        75.11744
775.46        75.20484
775.88        75.03507
776.29         74.8764
776.70        74.78625
777.12        74.75665
777.53        74.82832
777.95        74.98962
778.36        75.18401
778.77        75.28757
779.19        75.27296
779.60        75.18927
780.02        75.08168
780.43        75.04625
780.84        75.08846
781.26        75.18349
781.67        75.37492
782.09        75.53696
782.50        75.50948
782.91         76.1233
783.33        75.43736
783.74        75.43572
784.15        75.54648
784.57        75.58144
784.98        75.53973
785.39        75.60993
785.81        75.77273
786.22        75.83302
786.63        75.79976
787.04        75.83932
787.46        75.96944
787.87        76.08715
788.28         76.1526
788.70        76.17636
789.11        76.13897
789.52        75.93479
789.93        75.66901
790.35        75.76849
790.76        76.16326
791.17        76.17132
791.58        75.80787
792.00        75.67528
792.41        75.81755
792.82        75.82163
793.23        75.75457
793.65        75.94373
794.06        76.38106
794.47        76.88121
794.88        77.28882
795.29        77.28114
795.71        77.31229
796.12        76.85686
796.53        76.24395
796.94        76.23368
797.35          76.775
797.76        76.88602
798.18        76.55731
798.59        76.55092
799.00        76.87322
799.41        77.05742
799.82        77.04997
800.23        77.01656
800.64        76.95753
801.06        76.79774
801.47        76.63565
801.88         76.5596
802.29        76.59636
802.70         76.7337
803.11         76.9127
803.52        77.01897
803.93        77.02094
804.34        76.94888
804.75        76.85763
805.17        76.82731
805.58        76.91093
805.99        77.05219
806.40        77.19653
806.81        77.26295
807.22         77.2158
807.63        77.06566
808.04        76.87847
808.45        76.78154
808.86        76.80644
809.27        76.90736
809.68        77.03346
810.09        77.10519
810.50        77.09839
810.91        77.03857
811.32        76.96828
811.73        76.97057
812.14        77.06944
812.55        77.19469
812.96        77.31231
813.37        77.48248
813.78        77.63235
814.19        77.51747
814.60        77.23638
815.01         77.1648
815.42        77.34162
815.83         77.5851
816.24        77.81591
816.65        77.96433
817.05        77.99132
817.46        77.88557
817.87        77.74007
818.28        77.64218
818.69          77.618
819.10        77.64002
819.51        77.69349
819.92        77.74983
820.33        77.79372
820.74        77.83764
821.14        77.86074
821.55         77.8617
821.96         77.8222
822.37        77.74258
822.78        77.64847
823.19        77.59055
823.60        77.58588
824.00        77.64767
824.41        77.70152
824.82        77.71551
825.23        77.68036
825.64        77.61793
826.04        77.58703
826.45        77.64137
826.86        77.80234
827.27        78.03719
827.68         78.2974
828.08        78.53709
828.49        78.65878
828.90        78.71349
829.31        78.70547
829.72        78.64947
830.12        78.58001
830.53        78.44115
830.94        78.27998
831.35         78.1379
831.75        78.05474
832.16        77.99043
832.57        77.94032
832.97        77.85001
833.38        77.70576
833.79        77.53452
834.20         77.3998
834.60         77.3891
835.01        77.52572
835.42        77.77039
835.82        78.06031
836.23        78.20384
836.64        78.17992
837.04        78.05334
837.45        77.86237
837.86        77.77576
838.26        77.84838
838.67        78.01902
839.08        78.23427
839.48        78.38741
839.89        78.44418
840.29        78.43757
840.70        78.42118
841.11        78.47894
841.51        78.65114
841.92        78.87633
842.33         79.1036
842.73        79.24703
843.14        79.23434
843.54        79.11879
843.95        78.98448
844.35        78.99219
844.76        79.15814
845.17        79.43106
845.57        79.70307
845.98        79.75085
846.38         79.5582
846.79        79.18826
847.19        78.76768
847.60        78.44711
848.00        78.31076
848.41        78.26486
848.81        78.35078
849.22        78.55317
849.62        78.87354
850.03        79.28752
850.43        79.66463
850.84        79.70645
851.24        79.41302
851.65        78.78233
852.05        78.11868
852.46        77.87268
852.86        78.16106
853.27        78.83631
853.67        79.52236
854.07        79.90836
854.48        79.87856
854.88        79.57449
855.29        79.04548
855.69        78.62016
856.10        78.32303
856.50        78.16427
856.90        78.04237
857.31         77.8306
857.71        77.55396
858.12        77.22524
858.52         76.9818
858.92        76.89636
859.33        76.96958
859.73        77.19857
860.13        77.47652
860.54        77.64631
860.94        77.69148
861.34         77.6142
861.75        77.43913
862.15        77.27789
862.55        77.13589
862.96        76.99521
863.36        76.84637
863.76        76.66294
864.17        76.43497
864.57        76.19636
864.97        75.98351
865.38        75.81889
865.78        75.76031
866.18        75.79086
866.58        75.83816
866.99        75.79362
867.39        75.66422
867.79        75.43102
868.19        75.22614
868.60        75.21335
869.00        75.40485
869.40        75.79354
869.80        76.18142
870.21        76.21326
870.61        75.89424
871.01        75.29189
871.41        74.69488
871.81        74.51102
872.22        74.78703
872.62         75.4295
873.02        76.21757
873.42        76.71324
873.82        76.76334
874.22        76.52029
874.63        76.15984
875.03        75.90247
875.43        75.82835
875.83          75.842
876.23        75.93761
876.63        76.11804
877.03        76.35264
877.44        76.64277
877.84        76.88821
878.24        76.87459
878.64        76.57401
879.04        76.06417
879.44        75.51668
879.84        75.17417
880.24        75.08972
880.64        75.20457
881.04        75.42018
881.44        75.56084
881.84        75.56525
882.24        75.47003
882.65        75.32973
883.05        75.34208
883.45        75.49783
883.85        75.74146
884.25        75.95652
884.65        75.97481
885.05        75.78151
885.45        75.45174
885.85        75.12391
886.25        75.03603
886.65        75.24212
887.05        75.63499
887.45        76.10727
887.85        76.49947
888.25        76.74536
888.65        76.89413
889.04        76.88242
889.44        76.65269
889.84        76.20641
890.24        75.56451
890.64        74.91506
891.04        74.56284
891.44         74.5764
891.84        74.89683
892.24        75.30696
892.64        75.44255
893.04        75.22819
893.44        74.77524
893.83        74.33654
894.23        74.25415
894.63        74.62336
895.03         75.2948
895.43        76.03548
895.83        76.47214
896.23        76.50565
896.63        76.27569
897.02        75.91409
897.42        75.65603
897.82        75.56088
898.22        75.55949
898.62        75.65438
899.01        75.86572
899.41        76.15374
899.81        76.53564
900.21        76.92056
900.61         77.1496
901.00        77.17058
901.40        77.01929
901.80        76.79232
902.20        76.66894
902.59        76.70653
902.99        76.85522
903.39        77.01904
903.79        77.02168
904.18        76.83676
904.58        76.55328
904.98        76.30941
905.38        76.31416
905.77        76.58293
906.17        77.02521
906.57        77.50658
906.96        77.82398
907.36        77.87666
907.76        77.76229
908.15        77.50165
908.55        77.05873
908.95        76.51801
909.34        75.87927
909.74        75.38231
910.14        75.33603
910.53        75.79047
910.93         76.6406
911.33        77.59975
911.72         78.1603
912.12        78.16525
912.52        77.77435
912.91         77.2201
913.31        76.88543
913.70        76.85152
914.10        76.98834
914.49        77.20679
914.89        77.28123
915.29        77.16764
915.68        76.96139
916.08        76.72811
916.47        76.54738
916.87        76.46667
917.26        76.42484
917.66         76.4493
918.05        76.55214
918.45        76.71533
918.84        76.96944
919.24        77.20318
919.64        77.31788
920.03        77.30579
920.42        77.17262
920.82        77.04039
921.21        77.09451
921.61         77.3574
922.00        77.79874
922.40        78.26309
922.79         78.5649
923.19        78.59902
923.58        78.44881
923.98        78.19655
924.37         78.0258
924.77        77.97144
925.16        77.98026
925.55        77.98083
925.95        77.84594
926.34        77.55628
926.74        77.16036
927.13        76.80013
927.52        76.58221
927.92        76.55972
928.31        76.68114
928.70        76.89064
929.10        77.08869
929.49        77.23824
929.89        77.31976
930.28        77.41362
930.67        77.53614
931.07        77.67084
931.46        77.81951
931.85        77.89398
932.24        77.80159
932.64        77.54781
933.03        77.20036
933.42        76.87026
933.82        76.72181
934.21        76.81072
934.60        77.08776
934.99        77.51597
935.39        78.00726
935.78        78.52957
936.17         79.0515
936.56         79.4838
936.96        79.67699
937.35        79.64185
937.74        79.39189
938.13        78.98563
938.53        78.51332
938.92        78.02333
939.31        77.50564
939.70        77.05013
940.09        76.80192
940.49        76.77966
940.88        77.00265
941.27        77.32562
941.66        77.51791
942.05        77.53008
942.44        77.41647
942.84        77.32469
943.23        77.45707
943.62         77.8759
944.01        78.48399
944.40        79.11595
944.79        79.48769
945.18        79.49887
945.57        79.23121
945.97        78.76825
946.36        78.30315
946.75        77.87295
947.14        77.44292
947.53        77.02943
947.92        76.66558
948.31        76.37586
948.70        76.19379
949.09        76.10255
949.48         76.0491
949.87         76.0197
950.26        76.01838
950.65        76.07281
951.04         76.2354
951.43        76.50502
951.82        76.84569
952.21        77.18925
952.60        77.42686
952.99        77.51797
953.38        77.48544
953.77        77.37576
954.16        77.26476
954.55        77.17915
954.94        77.10235
955.33        77.01748
955.72        76.90017
956.11         76.7378
956.50        76.53303
956.89        76.31686
957.28        76.12757
957.66        76.01608
958.05        75.99241
958.44        75.98548
958.83        75.86987
959.22        75.62694
959.61        75.24835
960.00        74.96998
960.39        75.16722
960.78        75.87847
961.16        77.03208
961.55        78.09079
961.94        78.24634
962.33        77.33208
962.72        75.64646
963.11        73.86128
963.49        72.95928
963.88        73.16935
964.27        74.24004
964.66        75.67937
965.04        76.60133
965.43        76.62518
965.82        76.05341
966.21        75.32969
966.60        75.14242
966.98        75.65791
967.37        76.59105
967.76        77.57085
968.15        77.91047
968.53        77.41846
968.92        76.37638
969.31        75.14931
969.69        74.22952
970.08        73.78819
970.47        73.71328
970.86         74.0369
971.24        74.81429
971.63        75.88269
972.02        77.16351
972.40        78.46033
972.79         79.3885
973.17        79.96384
973.56        80.19775
973.95        80.16228
974.33        79.98199
974.72        79.70367
975.11        79.27203
975.49         78.7945
975.88        78.47401
976.26        78.37961
976.65        78.51137
977.04        78.63876
977.42        78.31793
977.81        77.40011
978.19        75.97164
978.58        74.59971
978.96        74.22966
979.35        75.05433
979.74        76.84653
980.12        78.83451
980.51        79.55109
980.89        78.76378
981.28        76.73375
981.66        74.39498
982.05        73.48182
982.43        74.47505
982.82        76.79501
983.20        79.41981
983.59        80.62827
983.97        80.10157
984.35         78.2887
984.74        76.02111
985.12        74.75649
985.51        74.93922
985.89        76.11377
986.28        77.58454
986.66        78.44321
987.04        78.43727
987.43        77.83224
987.81        77.07733
988.20        76.81747
988.58        77.27543
988.96        78.18787
989.35        79.00726
989.73        79.02391
990.12        77.99014
990.50        76.03062
990.88        73.72607
991.27         72.4569
991.65        72.77046
992.03        74.29057
992.42        75.93961
992.80        76.60824
993.18        75.99434
993.56        74.34213
993.95        72.38408
994.33        71.79792
994.71        73.21632
995.10        75.68525
995.48        78.11124
995.86        79.40772
996.24        79.50982
996.63         78.7012
997.01        77.42084
997.39        76.51293
997.77        76.38689
998.15        76.77873
998.54        77.25303
998.92        77.20336
999.30        76.50858
999.68        75.46005
1000.06        74.41003
1000.45        73.91593
1000.83        74.23356
1001.21         75.0334
1001.59        76.12284
1001.97        77.27402
1002.35        78.40128
1002.73        79.66212
1003.12        80.68633
1003.50        80.61279
1003.88        79.36622
1004.26         77.2626
1004.64        75.30688
1005.02        74.76522
1005.40        75.77024
1005.78        78.00468
1006.16        80.56508
1006.54        81.77511
1006.92        81.11578
1007.30        79.03839
1007.69        76.55402
1008.07        75.27571
1008.45        75.72235
1008.83        77.35827
1009.21        79.24189
1009.59        80.02511
1009.97        79.32673
1010.35        77.40273
1010.73        74.90758
1011.11          73.521
1011.49        74.03095
1011.86        75.97209
1012.24        78.09959
1012.62         78.9645
1013.00        78.29414
1013.38        76.64291
1013.76        74.65916
1014.14        73.38449
1014.52        73.19703
1014.90        73.75346
1015.28        74.87455
1015.66        76.19347
1016.04        77.41283
1016.41        78.69279
1016.79        79.62177
1017.17        79.96337
1017.55         79.7405
1017.93        79.07529
1018.31        78.29241
1018.69        77.92303
1019.06         78.2136
1019.44        79.10009
1019.82        80.54574
1020.20         82.3145
1020.58        84.02758
1020.95        85.37226
1021.33        86.29823
1021.71         86.7788
1022.09        86.81258
1022.46        86.44029
1022.84        85.34219
1023.22        82.79703
1023.60        78.67812
1023.97        72.91904
1024.35        66.87778
1024.73        63.47862
