SpectraSmart Spectrum 2.9.0.0
--------- Device Information -----------
Spectrum Name :  反射率_0
Saving Time :  2024/04/27 23:38:39
Spectro-Module Model Name : SE2030-DUVN
Spectro-Module Serial Number : OS361AC55029948
Wavelength Start : 200
Wavelength End : 1025
Wavelength Unit : Wavelength(nm)
Spectrum Unit : Reflectance(%)
-----------Spectrum Setting ------------
Integration Time : 20ms
Average : 10
Boxcar : 0
Background removal :  enabled
linearity correction :  enabled
SC :  disabled
Intensity correction :  disabled
DWT denoise :  enabled
savitzky-golay :  disabled
FFT :  disabled
Running average :  disabled
Kalman :  disabled
High pass :  disabled
---------------BEGIN--------------------
Wavelength(nm)             Reflectance(%)
200.29               0
200.75        4.098859
201.21        46.68746
201.67        74.98092
202.13        81.35441
202.58        73.68095
203.04        58.68606
203.50        43.28929
203.96        37.63848
204.42        42.15514
204.88        51.26195
205.34        59.94939
205.80        64.20683
206.26        63.41015
206.72        57.45105
207.18        45.97206
207.64        36.59109
208.10        37.20945
208.55        44.31725
209.01        48.41572
209.47         45.2782
209.93        32.56918
210.39       -2.466841
210.85       -106.1472
211.31        -213.119
211.77       -48.10581
212.23        48.62215
212.69        80.62749
213.14        89.56978
213.60        87.83807
214.06        77.43226
214.52         55.2635
214.98        33.21518
215.44        31.09844
215.90        39.47149
216.36        48.53631
216.81          54.297
217.27        57.27964
217.73        59.83271
218.19        61.32407
218.65        59.90692
219.11        55.25136
219.57         47.1971
220.02        37.58445
220.48        33.19464
220.94        35.86688
221.40        42.74363
221.86        50.48957
222.32        55.76809
222.77        58.28778
223.23        59.29917
223.69        58.97806
224.15        57.21736
224.61        54.27609
225.06        49.93545
225.52        45.83913
225.98        44.89202
226.44        47.05908
226.90         50.3933
227.36        53.09368
227.81         53.7401
228.27        52.41854
228.73        49.62682
229.19        45.65394
229.65        41.39365
230.10        37.57098
230.56        34.49002
231.02        32.29194
231.48        31.14269
231.93        30.88615
232.39        31.45376
232.85        32.74925
233.31        34.61449
233.77        36.80366
234.22        39.27301
234.68        41.30028
235.14        42.11375
235.60        41.64546
236.05        39.91703
236.51        37.95081
236.97        37.92308
237.43        40.60159
237.88        45.52921
238.34        50.64954
238.80        54.02417
239.26        55.33144
239.71        54.59241
240.17        52.43623
240.63        53.02238
241.08        58.54261
241.54         65.0639
242.00        69.34518
242.46        70.52052
242.91        69.03055
243.37        63.80861
243.83        52.34672
244.28        38.21249
244.74        38.55176
245.20        52.95366
245.66        64.98611
246.11        67.88743
246.57        63.23914
247.03        51.58892
247.48         32.2863
247.94        17.08798
248.40        20.10038
248.85        34.27281
249.31        52.03479
249.77        67.56211
250.22        78.91261
250.68        87.28197
251.14        92.42857
251.59        94.19557
252.05         93.1548
252.51        88.66726
252.96        80.40101
253.42         72.6869
253.88        69.42678
254.33        69.91982
254.79        71.32483
255.25        70.47404
255.70        67.57488
256.16        64.48527
256.62        62.36036
257.07        62.43979
257.53        64.38844
257.99        66.58864
258.44        67.88367
258.90        67.76847
259.35        66.14666
259.81        64.02166
260.27        61.67103
260.72        59.46574
261.18        57.86762
261.63        56.46371
262.09         55.3806
262.55        54.36831
263.00        53.29663
263.46        52.34074
263.91        51.43632
264.37        50.83644
264.83        50.44848
265.28        50.14589
265.74        49.81228
266.19        49.09606
266.65        48.04359
267.11        46.71999
267.56         45.3057
268.02        44.18817
268.47        43.41501
268.93        42.89997
269.38        42.47918
269.84        41.91943
270.30        41.15182
270.75        40.25554
271.21        39.32058
271.66        38.43254
272.12        37.64409
272.57        36.88079
273.03        36.15402
273.48        35.40905
273.94         34.6883
274.39        33.98076
274.85        33.33108
275.31        32.71632
275.76        32.11224
276.22        31.54104
276.67        30.97562
277.13        30.47278
277.58        29.98922
278.04        29.56595
278.49        29.11182
278.95         28.6024
279.40        27.99528
279.86        27.36814
280.31        26.77418
280.77        26.40532
281.22        26.23629
281.68        26.23717
282.13        26.26224
282.59        26.15281
283.04         25.8688
283.50         25.4885
283.95        25.09913
284.41        24.86975
284.86        24.82204
285.32        24.91338
285.77         25.0587
286.22        25.17258
286.68        25.24298
287.13        25.26439
287.59        25.28899
288.04        25.31996
288.50        25.38808
288.95        25.45231
289.41        25.51288
289.86        25.52887
290.32        25.52101
290.77        25.50706
291.22        25.52543
291.68        25.62132
292.13        25.80785
292.59        26.10074
293.04        26.50529
293.50        27.04808
293.95        27.72299
294.40        28.53808
294.86        29.47451
295.31        30.49221
295.77        31.58604
296.22        32.73953
296.68         33.9716
297.13        35.28605
297.58        36.66664
298.04        38.08571
298.49        39.48941
298.95        40.84301
299.40        42.14193
299.85        43.41199
300.31        44.71431
300.76         46.0861
301.21        47.53983
301.67         49.0719
302.12        50.59738
302.58        52.06477
303.03        53.43695
303.48        54.74838
303.94        56.10429
304.39        57.58836
304.84        59.22755
305.30        60.98302
305.75         62.6976
306.20        64.21387
306.66        65.51686
307.11        66.61932
307.57         67.6517
308.02        68.71097
308.47        69.84317
308.93        71.00843
309.38        72.11383
309.83        73.10016
310.29        73.97251
310.74        74.74841
311.19        75.47164
311.65        76.18286
312.10        76.86972
312.55        77.52474
313.00        78.16167
313.46        78.81229
313.91        79.46619
314.36         80.1255
314.82        80.74481
315.27        81.24502
315.72        81.60733
316.18        81.86041
316.63        82.04659
317.08        82.27054
317.53        82.56062
317.99        82.89066
318.44        83.21817
318.89         83.4473
319.35        83.56284
319.80        83.61198
320.25        83.66078
320.70        83.81942
321.16        84.10078
321.61        84.47298
322.06        84.87797
322.51        85.23213
322.97        85.48898
323.42         85.7021
323.87         85.8503
324.32        85.91873
324.78        85.90966
325.23        85.86203
325.68        85.82986
326.13        85.92767
326.59        86.15911
327.04        86.53248
327.49        86.96954
327.94        87.36332
328.39        87.67516
328.85        87.90543
329.30        88.10959
329.75        88.26719
330.20        88.38853
330.66        88.44041
331.11        88.51883
331.56        88.68286
332.01        88.95792
332.46        89.33943
332.92        89.73389
333.37        90.09098
333.82        90.34127
334.27        90.50679
334.72        90.66557
335.17        90.95187
335.63        91.37582
336.08        91.94292
336.53        92.53104
336.98        92.97466
337.43        93.23714
337.88        93.37548
338.34        93.49057
338.79        93.79107
339.24        94.31094
339.69        94.98198
340.14        95.71086
340.59        96.34575
341.05        96.83888
341.50        97.25195
341.95        97.60227
342.40        97.93199
342.85        98.26659
343.30        98.57716
343.75        98.91605
344.20        99.37396
344.66        99.95484
345.11        100.6258
345.56        101.2608
346.01        101.6491
346.46        101.7583
346.91        101.6682
347.36        101.5313
347.81        101.5833
348.26        101.8851
348.72        102.3654
349.17        102.9281
349.62        103.4345
350.07        103.8241
350.52        104.1272
350.97        104.3544
351.42         104.523
351.87        104.6387
352.32        104.6854
352.77        104.6544
353.22        104.5455
353.67        104.3673
354.13        104.1456
354.58        103.8886
355.03        103.6644
355.48        103.4845
355.93        103.3342
356.38        103.1678
356.83        102.9101
357.28        102.5463
357.73        102.1069
358.18        101.6332
358.63        101.1861
359.08        100.7893
359.53        100.4313
359.98        100.0969
360.43        99.76485
360.88        99.41957
361.33        99.04922
361.78        98.66972
362.23        98.30804
362.68        97.96039
363.13        97.61862
363.58        97.20424
364.03        96.61063
364.48        95.81039
364.93        94.87562
365.38        93.94128
365.83        93.23019
366.28        92.78578
366.73        92.53703
367.18        92.35133
367.63        92.00893
368.08        91.45233
368.53        90.75631
368.98        89.99925
369.43        89.30843
369.88          88.728
370.33        88.20856
370.78        87.74265
371.23        87.32444
371.68        86.93436
372.13        86.57529
372.58        86.19797
373.03        85.71649
373.48         85.1199
373.93        84.44059
374.38        83.73744
374.83        83.10337
375.28        82.57033
375.72        82.10211
376.17        81.71705
376.62         81.3746
377.07        81.05335
377.52         80.7439
377.97        80.43879
378.42        80.12664
378.87        79.80032
379.32        79.46798
379.77        79.09192
380.22        78.61426
380.67        78.03909
381.11        77.39478
381.56        76.78017
382.01        76.36795
382.46        76.19505
382.91        76.20482
383.36        76.27456
383.81        76.20827
384.26         75.9526
384.71        75.56422
385.15        75.09949
385.60        74.70795
386.05        74.40969
386.50        74.15806
386.95        73.93094
387.40        73.70156
387.85        73.46213
388.29        73.19328
388.74        72.96133
389.19        72.68184
389.64        72.34403
390.09        71.94242
390.54        71.53896
390.98        71.22345
391.43         71.0608
391.88        71.01495
392.33        70.96365
392.78         70.8073
393.23        70.55642
393.67        70.05376
394.12        69.48766
394.57        69.71359
395.02        69.63325
395.47        69.65244
395.91        69.44574
396.36        69.34045
396.81        69.34023
397.26        69.27764
397.71        69.13055
398.15        68.93811
398.60        68.77733
399.05        68.46003
399.50        68.10778
399.95        68.12425
400.39        68.39851
400.84         68.3651
401.29        67.98336
401.74        67.42807
402.18        66.87893
402.63        66.73793
403.08         66.9521
403.53        66.91427
403.97        66.60218
404.42        66.45106
404.87         66.4473
405.32        66.43477
405.76        66.39795
406.21        66.21214
406.66         65.9721
407.11        66.16597
407.55        66.63808
408.00        66.60222
408.45        66.05551
408.90        65.34578
409.34        64.75114
409.79        64.84671
410.24        65.46764
410.68        65.70143
411.13        65.47207
411.58         65.3595
412.03        65.42109
412.47        65.46986
412.92        65.48847
413.37        65.53745
413.81        65.58597
414.26        65.64117
414.71        65.68453
415.15         65.7328
415.60        65.75327
416.05        65.74961
416.49        65.73027
416.94         65.6855
417.39        65.64595
417.83        65.65966
418.28        65.72432
418.73        65.80654
419.17        65.88628
419.62        65.93291
420.07        65.95162
420.51        65.96949
420.96        65.96476
421.41        65.91893
421.85        65.82238
422.30        65.54001
422.74        65.22899
423.19        65.62599
423.64        66.57174
424.08        67.05985
424.53        66.90808
424.98        66.91782
425.42        67.12251
425.87        66.80142
426.31        66.18214
426.76        66.32645
427.21        67.10474
427.65        67.30994
428.10        66.95889
428.54         66.9607
428.99        67.33706
429.44        67.79834
429.88        68.14103
430.33        67.78944
430.77        67.01646
431.22         67.0537
431.66        67.81934
432.11        68.39376
432.56        68.65097
433.00        68.66727
433.45        68.32487
433.89         68.3142
434.34        68.78856
434.78        67.74023
435.23        68.05759
435.67        68.49947
436.12        69.20579
436.57        69.40325
437.01        69.03679
437.46        69.11523
437.90        69.32372
438.35        69.96453
438.79        69.82104
439.24        69.93247
439.68         70.0036
440.13        70.09263
440.57        70.22485
441.02        70.44331
441.46         70.5909
441.91        70.66628
442.35        70.16966
442.80        70.01579
443.24        70.74232
443.69        71.01083
444.13        70.97892
444.58        71.07782
445.02        71.28923
445.47        71.37934
445.91         71.3358
446.36        71.33247
446.80        71.37078
447.24        71.34185
447.69         71.3027
448.13        71.49014
448.58        71.82807
449.02        71.88398
449.47        71.70325
449.91        71.67297
450.36        71.82886
450.80        71.91454
451.25        71.93884
451.69        72.01463
452.13        72.12617
452.58        72.17289
453.02        72.16295
453.47        72.14851
453.91        72.12663
454.36        72.19177
454.80        72.22561
455.24        71.91777
455.69        71.41432
456.13        70.96709
456.58        70.74684
457.02        71.05721
457.46         71.6008
457.91        71.59474
458.35        71.26882
458.79        71.05062
459.24        71.02369
459.68        70.80357
460.13        70.53597
460.57         70.1922
461.01        70.09904
461.46        70.44891
461.90        70.67828
462.34        70.34879
462.79        70.66453
463.23        70.52179
463.68        70.36948
464.12        70.16785
464.56        70.06804
465.01        70.09489
465.45        70.60994
465.89        70.60477
466.34        70.33784
466.78        69.82938
467.22        69.18256
467.67        69.97063
468.11        69.72144
468.55        69.88403
468.99        69.71857
469.44        69.71256
469.88        69.84994
470.32        69.85313
470.77        69.74616
471.21        69.67771
471.65        69.65656
472.10        69.64571
472.54        69.60236
472.98        69.52341
473.42        69.41327
473.87        69.24434
474.31        69.03175
474.75        69.03578
475.20        69.18388
475.64        69.09978
476.08        68.81605
476.52        68.75086
476.97        68.91864
477.41        69.04237
477.85        68.97544
478.29        69.13832
478.74        69.49644
479.18        68.74451
479.62        68.87464
480.06        68.65794
480.50         68.7263
480.95         68.7373
481.39        68.57941
481.83        68.91679
482.27        69.05618
482.72        68.41087
483.16        68.87727
483.60        68.80637
484.04        68.80155
484.48        68.77534
484.93        68.89484
485.37        69.04659
485.81        69.17659
486.25        69.60008
486.69        69.51326
487.14        68.71773
487.58        68.96974
488.02        68.77293
488.46        69.39915
488.90        69.00757
489.34        69.13074
489.79        68.51379
490.23        68.62738
490.67         68.4508
491.11        68.32413
491.55        68.36308
491.99        68.51234
492.43        68.59539
492.88        68.56616
493.32        68.52636
493.76        68.49084
494.20        68.51114
494.64        68.61945
495.08        68.71796
495.52        68.77852
495.96        69.00485
496.41          69.291
496.85        68.99744
497.29        68.33682
497.73        68.36597
498.17        69.15971
498.61        69.32027
499.05        68.83953
499.49        68.59714
499.93        68.66854
500.37        68.56283
500.82        68.29876
501.26        68.39323
501.70        68.88034
502.14         68.4287
502.58        68.82808
503.02        68.81685
503.46        68.64804
503.90        68.42484
504.34        68.14791
504.78        68.02776
505.22        68.06197
505.66        68.09212
506.10        68.10384
506.54         68.2166
506.98        68.42134
507.42        68.46861
507.86        68.65154
508.30        68.65843
508.74        68.58246
509.18         68.4264
509.62        68.25053
510.06         68.1526
510.50        68.15466
510.94        68.23022
511.38        68.34047
511.82        68.41904
512.26          68.443
512.70        68.43541
513.14        68.40156
513.58        68.33125
514.02        68.23338
514.46        68.12498
514.90        68.10794
515.34        67.95964
515.78        68.09899
516.22        68.19112
516.66        68.32797
517.10         68.4558
517.54        68.55602
517.98        68.63136
518.42        68.66547
518.86        68.64634
519.30        68.57714
519.74        68.46587
520.18        68.34299
520.62         68.2562
521.06        68.22192
521.50        68.23489
521.93        68.28419
522.37        68.33331
522.81        68.37427
523.25        68.40736
523.69        68.43876
524.13        68.47919
524.57        68.52641
525.01        68.57278
525.45        68.59195
525.89        68.54557
526.32         68.4263
526.76         68.2649
527.20        68.10141
527.64        68.00712
528.08        67.99757
528.52        68.04825
528.96        68.12537
529.40        68.17413
529.83        68.17171
530.27        68.14933
530.71        68.10622
531.15        68.05284
531.59        67.99821
532.03        67.93514
532.46        67.88488
532.90        67.90636
533.34        67.99742
533.78         68.1398
534.22        68.28315
534.66        68.35043
535.09        68.31696
535.53        68.22412
535.97        68.10332
536.41        68.02193
536.85         67.9995
537.28        68.02003
537.72        68.05685
538.16        68.05739
538.60         68.0123
539.04        67.95403
539.47        67.88889
539.91         67.8627
540.35        67.86476
540.79        67.89413
541.22        67.91856
541.66        67.89568
542.10        67.81793
542.54        67.70736
542.97        67.59026
543.41        67.54413
543.85        67.56582
544.29        67.63381
544.72        67.71341
545.16        67.76124
545.60        67.74704
546.04        67.75636
546.47        67.78156
546.91        67.65115
547.35        67.44931
547.79        67.55161
548.22        67.86056
548.66        67.95657
549.10        67.80611
549.53        67.68398
549.97        67.64286
550.41        67.60421
550.84        67.54679
551.28        67.62325
551.72        67.83247
552.15        67.75755
552.59        67.32053
553.03         68.1107
553.46        67.44912
553.90        67.55803
554.34        67.62066
554.77        67.81806
555.21          68.103
555.65        67.82868
556.08        67.86192
556.52         67.7075
556.96        67.69029
557.39        67.52792
557.83        67.85332
558.27        67.82432
558.70        67.64492
559.14        67.53721
559.57        67.51331
560.01        67.59463
560.45        67.70638
560.88        67.58226
561.32        67.34196
561.75         67.3623
562.19        67.64098
562.63         67.7752
563.06        67.71479
563.50        67.68316
563.93          67.719
564.37        67.51727
564.80        67.72234
565.24        67.77689
565.68        67.83916
566.11        67.87231
566.55        67.89768
566.98        67.87013
567.42        67.80901
567.85        67.80217
568.29        67.89891
568.72        67.81826
569.16        67.59833
569.60        67.88274
570.03        68.02526
570.47        67.85011
570.90         67.9997
571.34        68.25373
571.77        68.38808
572.21        67.95428
572.64        68.27366
573.08        67.95324
573.51        67.81683
573.95        67.87893
574.38        68.20799
574.82         67.7342
575.25        68.22602
575.69        67.86288
576.12        67.63846
576.56        68.07263
576.99        68.01114
577.42        67.94918
577.86        68.11479
578.29        68.57846
578.73        68.28898
579.16        68.29125
579.60        68.18121
580.03        68.06317
580.47        67.85625
580.90        68.10896
581.33        68.28013
581.77        68.24218
582.20        68.03889
582.64        68.21954
583.07        68.10249
583.51        67.93114
583.94        67.70178
584.37        67.85176
584.81        67.95097
585.24        68.06469
585.68        68.06092
586.11        68.28054
586.54        67.97529
586.98        67.96409
587.41        67.99219
587.85        67.57504
588.28        68.09731
588.71         68.0164
589.15         68.1613
589.58        67.65976
590.01        67.70508
590.45        67.91721
590.88        67.32957
591.31        67.30886
591.75         67.4472
592.18        67.35986
592.61        67.24334
593.05        67.68337
593.48        68.17432
593.91        68.06268
594.35        67.92119
594.78        68.04669
595.21        67.54891
595.65        67.33104
596.08        67.06561
596.51        67.80082
596.94        67.51853
597.38        67.73971
597.81        67.92675
598.24        67.65575
598.68        67.64111
599.11        67.71667
599.54        68.12603
599.97         67.8522
600.41        68.03392
600.84        67.96895
601.27        67.96614
601.70        67.74163
602.14        67.50523
602.57        67.68706
603.00        67.56536
603.43        68.10318
603.87        68.10165
604.30        67.95305
604.73        68.05499
605.16        67.66169
605.60        68.08214
606.03        68.12476
606.46        68.04057
606.89        68.14167
607.32        67.87308
607.76        67.90075
608.19        67.86343
608.62        67.85444
609.05        67.82954
609.48        67.82451
609.92         67.8149
610.35        67.93293
610.78        67.80365
611.21        67.75125
611.64        67.86176
612.07         67.8569
612.50        67.82824
612.94        67.72172
613.37        67.52725
613.80         67.9917
614.23        67.64314
614.66        67.76171
615.09        67.83331
615.52        67.87926
615.96         67.9481
616.39        67.44198
616.82        67.59499
617.25        67.78516
617.68        67.70297
618.11        67.69987
618.54        67.64547
618.97        67.75141
619.40        67.91602
619.84        68.13181
620.27        68.06619
620.70        67.89246
621.13        67.52626
621.56        67.94147
621.99        67.89767
622.42        67.78979
622.85        67.33593
623.28        67.52695
623.71        67.16039
624.14        67.31936
624.57        67.39447
625.00        67.67117
625.43        67.41289
625.86        67.40884
626.29        67.48702
626.72        67.57286
627.15        67.45048
627.58        67.58015
628.01        67.91907
628.44        67.58892
628.87        67.26463
629.30        67.70294
629.73        67.38147
630.16        67.16454
630.59        67.18882
631.02         67.2738
631.45        67.54343
631.88        67.59949
632.31        67.40197
632.74        67.57108
633.17        67.27987
633.60         67.2512
634.03        67.24155
634.46        67.25851
634.89        67.27618
635.32        67.26143
635.75        67.21281
636.18        67.17284
636.61        67.14138
637.04        67.03611
637.47        66.89952
637.89         66.9158
638.32        67.05305
638.75        67.14343
639.18         67.1714
639.61        67.23625
640.04        67.31502
640.47        67.33835
640.90        67.30263
641.33        67.19899
641.76        67.04836
642.18        67.05435
642.61        66.96637
643.04        66.98104
643.47        67.00632
643.90        67.02448
644.33          67.023
644.76        67.00127
645.18        66.96979
645.61        66.94744
646.04        66.93024
646.47        66.87392
646.90        66.78202
647.33         66.7049
647.75        66.65842
648.18        66.61069
648.61        66.56701
649.04        66.61309
649.47        66.72838
649.89        66.71632
650.32        66.62657
650.75        66.79858
651.18        67.16295
651.61        67.26983
652.03        67.07731
652.46        66.93999
652.89        67.01682
653.32        66.88822
653.74        66.83525
654.17        67.55939
654.60          67.196
655.03         66.7081
655.46        67.02749
655.88        67.56808
656.31        68.92416
656.74        69.70539
657.16        68.53551
657.59        68.15344
658.02        67.10791
658.45        67.70104
658.87        67.89448
659.30        67.50027
659.73        67.21938
660.15         67.2608
660.58          66.824
661.01        67.08096
661.44        67.52647
661.86        67.50818
662.29        67.04066
662.72        66.84994
663.14        66.98581
663.57        66.98211
664.00        66.84671
664.42        66.79564
664.85        66.84077
665.27        66.90858
665.70        66.98058
666.13        67.04513
666.55        67.09351
666.98        67.12183
667.41        67.14063
667.83        67.16318
668.26        67.18728
668.69        67.22491
669.11        67.26222
669.54        67.28348
669.96        67.29372
670.39        67.23904
670.82        67.17596
671.24        67.29097
671.67        67.53407
672.09          67.648
672.52         67.6162
672.94        67.51269
673.37        67.38453
673.80        67.29462
674.22        67.26889
674.65        67.21297
675.07        67.15342
675.50        67.15426
675.92        67.21957
676.35        67.29055
676.77        67.36143
677.20        67.44893
677.62        67.53283
678.05        67.56205
678.47        67.52913
678.90        67.45115
679.32         67.3685
679.75        67.36278
680.17        67.44859
680.60        67.61086
681.02        67.77286
681.45        67.82283
681.87        67.75626
682.30        67.50249
682.72        67.19192
683.15        67.27214
683.57        67.67938
684.00          67.745
684.42        67.50636
684.85        67.55942
685.27         67.8987
685.70        68.17393
686.12        68.31541
686.54        68.40781
686.97        68.41463
687.39        68.30682
687.82        68.13572
688.24        67.87828
688.66        67.90171
689.09        67.84979
689.51        67.89102
689.94        67.87935
690.36        67.84789
690.78        67.70104
691.21        67.50912
691.63         67.6405
692.06        67.98593
692.48        67.91679
692.90        67.50024
693.33        67.35262
693.75        67.50835
694.17        67.62115
694.60        67.64442
695.02        67.70768
695.44        67.79294
695.87        67.82549
696.29        67.82531
696.71        67.92589
697.14        68.06728
697.56        68.03041
697.98        67.84727
698.41        67.80952
698.83        67.91084
699.25        68.01797
699.68        68.09044
700.10        68.17936
700.52        68.26082
700.94        68.32569
701.37        68.34167
701.79        68.29475
702.21        68.17149
702.64        68.00094
703.06        67.82882
703.48        67.74546
703.90         67.7756
704.33        67.88866
704.75        68.05156
705.17        68.17295
705.59        68.22272
706.01        68.21867
706.44        68.19551
706.86        68.21698
707.28        68.28893
707.70        68.40047
708.12        68.51717
708.55        68.54698
708.97        68.48604
709.39        68.42525
709.81        68.39389
710.23         68.3876
710.66        68.41593
711.08        68.51414
711.50        68.62755
711.92        68.67496
712.34        68.64337
712.76        68.55791
713.19        68.45212
713.61        68.43031
714.03        68.49321
714.45        68.60772
714.87        68.73682
715.29        68.82496
715.71        68.85326
716.13        68.84041
716.56        68.77412
716.98        68.70869
717.40        68.63735
717.82        68.55898
718.24        68.49501
718.66        68.48119
719.08        68.52086
719.50        68.59917
719.92        68.69591
720.34        68.77417
720.76        68.81997
721.19        68.83765
721.61         68.8283
722.03        68.76515
722.45         68.6533
722.87        68.49979
723.29        68.36333
723.71        68.33788
724.13        68.44267
724.55        68.66001
724.97        68.92374
725.39         69.0771
725.81        69.07806
726.23        69.04124
726.65         69.0605
727.07        68.86296
727.49        69.15382
727.91        69.34255
728.33        69.55386
728.75        69.64391
729.17        69.58521
729.59        69.41727
730.01        69.19673
730.43        69.04214
730.85        68.98589
731.27        68.97517
731.69        68.99136
732.10        69.08771
732.52        69.11072
732.94        69.22571
733.36        69.35809
733.78         69.4049
734.20        69.34367
734.62        69.54589
735.04        68.95201
735.46        69.55444
735.88        69.91672
736.30        69.96074
736.72        69.42677
737.13        69.27561
737.55        69.51901
737.97        69.43438
738.39        69.09502
738.81         69.2123
739.23        69.68707
739.65        69.72738
740.06        69.33422
740.48        69.18504
740.90        69.26193
741.32        69.27968
741.74        69.14652
742.16        69.16307
742.57        69.31818
742.99        69.53859
743.41        69.76865
743.83         69.9064
744.25        69.92473
744.67        69.84309
745.08        69.74337
745.50        69.71738
745.92        69.80547
746.34        69.98209
746.75        70.14303
747.17        70.13259
747.59        69.92484
748.01        69.52189
748.42        69.08489
748.84        68.96445
749.26        69.15156
749.68        69.36834
750.09        69.50487
750.51        69.47405
750.93        69.32644
751.35        69.36945
751.76        69.59026
752.18         69.6605
752.60        69.57763
753.01        69.56012
753.43        69.60295
753.85        69.63033
754.27        69.64069
754.68         69.6558
755.10        69.68853
755.52        69.75092
755.93        69.85599
756.35        70.00981
756.77        70.15118
757.18        70.27557
757.60        70.39235
758.02         70.2382
758.43        69.93578
758.85        70.33725
759.26         70.8451
759.68        70.74864
760.10        70.69586
760.51        69.53021
760.93        69.88756
761.34        69.92908
761.76        70.54087
762.18        70.89336
762.59        70.98661
763.01        70.75538
763.42        70.42667
763.84        70.24294
764.26        70.33283
764.67        70.54762
765.09        70.78312
765.50        70.86189
765.92        70.79975
766.33         70.4425
766.75        70.26785
767.16        70.19994
767.58        70.15437
768.00        70.38757
768.41        70.74767
768.83        70.66003
769.24        70.21412
769.66        70.27638
770.07        70.73849
770.49        70.66774
770.90         70.1692
771.32          70.227
771.73        70.78982
772.15        71.02011
772.56        70.89008
772.97        70.82961
773.39        70.85735
773.80        70.84541
774.22        70.80485
774.63        70.91079
775.05        71.08488
775.46        71.16735
775.88        71.10374
776.29        71.00921
776.70        70.92345
777.12        70.88821
777.53        70.94518
777.95        71.06947
778.36        71.21755
778.77         71.2991
779.19        71.29018
779.60         71.2188
780.02        71.15025
780.43        71.19256
780.84        71.33687
781.26        71.61259
781.67        71.97606
782.09        72.00017
782.50        71.60918
782.91         72.0078
783.33        71.38776
783.74        71.37221
784.15        71.43248
784.57        71.53542
784.98        71.64385
785.39         71.8791
785.81        72.14378
786.22          72.049
786.63        71.69866
787.04        71.61692
787.46        71.85286
787.87        72.12082
788.28          72.311
788.70        72.38967
789.11         72.3184
789.52        72.02647
789.93        71.65771
790.35        71.68419
790.76        72.05692
791.17        72.09948
791.58        71.82751
792.00        71.79611
792.41        72.03065
792.82        72.20098
793.23        72.29678
793.65        72.37382
794.06        72.47482
794.47        72.76907
794.88        73.14706
795.29         73.0947
795.71        73.04939
796.12        72.66281
796.53          72.215
796.94        72.27395
797.35        72.76253
797.76        72.79662
798.18        72.39907
798.59        72.33923
799.00        72.63931
799.41        72.83589
799.82        72.87251
800.23         72.9024
800.64        72.91637
801.06        72.84219
801.47        72.75668
801.88        72.71229
802.29        72.73036
802.70        72.81353
803.11        72.91629
803.52        72.95059
803.93          72.892
804.34        72.75728
804.75        72.62922
805.17        72.60501
805.58        72.73228
805.99        73.03786
806.40        73.38188
806.81         73.3416
807.22         72.9607
807.63        72.72038
808.04        72.71202
808.45         72.7244
808.86        72.77854
809.27        73.05689
809.68        73.45758
810.09        73.67897
810.50        73.65922
810.91         73.4846
811.32        73.24831
811.73        73.12041
812.14        73.15485
812.55        73.25244
812.96         73.3601
813.37        73.50298
813.78        73.60042
814.19        73.44228
814.60        73.12109
815.01        72.98303
815.42        73.06722
815.83        73.19999
816.24        73.33453
816.65        73.46194
817.05         73.5555
817.46        73.58093
817.87        73.58339
818.28        73.57971
818.69        73.57954
819.10        73.58146
819.51        73.58368
819.92        73.58385
820.33        73.58542
820.74        73.59013
821.14        73.61118
821.55        73.70299
821.96        73.84946
822.37        74.03479
822.78        74.21073
823.19        74.29089
823.60        74.25024
824.00        74.13513
824.41        73.94365
824.82        73.76697
825.23         73.6359
825.64        73.53798
826.04        73.50352
826.45        73.53824
826.86        73.64577
827.27        73.82251
827.68        74.01803
828.08         74.1739
828.49         74.2019
828.90         74.1543
829.31        74.07289
829.72        74.03824
830.12         74.0956
830.53        74.16974
830.94        74.25514
831.35        74.30938
831.75        74.33495
832.16        74.29874
832.57        74.21795
832.97        74.08505
833.38        73.90717
833.79        73.71268
834.20        73.53276
834.60         73.4006
835.01        73.34645
835.42        73.36512
835.82        73.48878
836.23        73.68867
836.64        73.96843
837.04         74.3196
837.45        74.66206
837.86        74.97211
838.26         75.2338
838.67        75.43076
839.08        75.52505
839.48        75.44894
839.89        75.21072
840.29        74.84364
840.70        74.47728
841.11        74.31866
841.51        74.42818
841.92        74.71225
842.33        75.05443
842.73        75.24189
843.14        75.16473
843.54        74.92519
843.95         74.6035
844.35        74.35345
844.76        74.21852
845.17        74.14873
845.57        74.15064
845.98        74.19685
846.38        74.29636
846.79        74.44943
847.19        74.60883
847.60         74.6368
848.00        74.52854
848.41        74.26368
848.81        73.99555
849.22        73.90849
849.62        74.07728
850.03        74.43134
850.43        74.79808
850.84        74.81397
851.24        74.45422
851.65        73.75044
852.05        73.04248
852.46        72.84344
852.86        73.26584
853.27        74.11431
853.67        74.94289
854.07        75.34363
854.48        75.19637
854.88        74.67908
855.29        73.90237
855.69        73.30113
856.10        72.95957
856.50        72.85257
856.90        72.87856
857.31        72.90279
857.71        72.91979
858.12        72.92952
858.52        72.99201
858.92        73.05895
859.33        73.10298
859.73        73.14702
860.13        73.13807
860.54        73.03214
860.94        72.86217
861.34        72.61201
861.75        72.33198
862.15          72.158
862.55        72.09593
862.96        72.15029
863.36        72.23085
863.76        72.16804
864.17        71.92682
864.57        71.56348
864.97        71.25174
865.38        71.25472
865.78        71.65584
866.18        72.33633
866.58        73.02961
866.99        73.27372
867.39         72.9817
867.79        72.29629
868.19        71.47541
868.60        70.85927
869.00        70.54125
869.40        70.44328
869.80         70.5451
870.21        70.80647
870.61        71.22929
871.01        71.74914
871.41        72.22295
871.81        72.44173
872.22        72.35227
872.62        72.03049
873.02        71.59848
873.42        71.31254
873.82        71.26562
874.22        71.37748
874.63        71.61514
875.03        71.89493
875.43        72.18388
875.83        72.51391
876.23        72.78379
876.63        72.82198
877.03        72.58987
877.44        72.09459
877.84        71.53214
878.24        71.21461
878.64        71.21764
879.04        71.47447
879.44        71.75292
879.84        71.70087
880.24        71.27261
880.64        70.58705
881.04        69.92312
881.44        69.75727
881.84        70.19901
882.24        71.06831
882.65        72.03546
883.05        72.65099
883.45        72.72598
883.85        72.43228
884.25        71.93546
884.65        71.47982
885.05        71.16641
885.45        70.91994
885.85        70.80179
886.25        70.92778
886.65         71.2906
887.05        71.85305
887.45        72.44498
887.85        72.79362
888.25        72.82631
888.65        72.59754
889.04         72.2051
889.44        71.87508
889.84        71.66986
890.24        71.54568
890.64        71.45805
891.04        71.33569
891.44        71.16666
891.84        70.99484
892.24        70.87682
892.64        70.88208
893.04         71.0233
893.44        71.27616
893.83        71.58698
894.23        71.80674
894.63        71.92607
895.03        71.96599
895.43        72.00137
895.83        72.15955
896.23        72.45188
896.63        72.81216
897.02        73.13282
897.42        73.30146
897.82        73.27874
898.22        73.12064
898.62        72.87711
899.01        72.64201
899.41        72.43858
899.81        72.25613
900.21        72.11967
900.61        72.06822
901.00        72.08952
901.40        72.19317
901.80        72.30836
902.20        72.32545
902.59        72.23315
902.99        72.05343
903.39        71.84869
903.79        71.71619
904.18        71.68468
904.58        71.72684
904.98         71.8323
905.38        71.99455
905.77        72.18601
906.17        72.40968
906.57        72.60882
906.96        72.70668
907.36        72.65981
907.76        72.51045
908.15        72.31124
908.55        72.08313
908.95        71.89165
909.34        71.72152
909.74         71.6528
910.14        71.74457
910.53         71.9987
910.93        72.36614
911.33        72.76193
911.72        73.03519
912.12         73.1157
912.52        73.05859
912.91        72.88596
913.31        72.66499
913.70        72.42439
914.10        72.14242
914.49        71.90401
914.89        71.80138
915.29        71.87911
915.68        72.10807
916.08        72.39645
916.47        72.58882
916.87        72.64516
917.26        72.56348
917.66        72.41156
918.05        72.26337
918.45         72.1429
918.84         72.0826
919.24        71.98656
919.64        71.78528
920.03        71.50513
920.42        71.17413
920.82        70.97756
921.21        71.18555
921.61        71.81532
922.00        72.78176
922.40        73.81709
922.79        74.52282
923.19        74.72668
923.58        74.57887
923.98        74.20094
924.37        73.85589
924.77        73.62019
925.16        73.39425
925.55        73.22794
925.95        73.20396
926.34        73.31289
926.74        73.54399
927.13        73.75452
927.52        73.59236
927.92        73.04021
928.31         72.2127
928.70         71.3783
929.10        70.94411
929.49        71.00597
929.89        71.40787
930.28         72.0428
930.67        72.58559
931.07        72.89865
931.46        73.10445
931.85        73.17674
932.24         73.1201
932.64        72.96519
933.03        72.67889
933.42        72.41805
933.82        72.45236
934.21        72.82422
934.60        73.47236
934.99         74.1441
935.39        74.37901
935.78        74.09685
936.17         73.4119
936.56        72.60358
936.96         72.1505
937.35        72.24157
937.74        72.69914
938.13         73.2774
938.53        73.62132
938.92         73.6415
939.31        73.42953
939.70        73.13831
940.09        73.02395
940.49        73.13017
940.88        73.39657
941.27        73.64165
941.66        73.60835
942.05        73.25799
942.44        72.70197
942.84        72.14696
943.23        71.86227
943.62        71.95002
944.01        72.31284
944.40        72.81082
944.79        73.18945
945.18        73.34237
945.57        73.33382
945.97        73.17344
946.36        72.95527
946.75        72.68285
947.14        72.32211
947.53        71.92873
947.92        71.61646
948.31        71.42612
948.70        71.36713
949.09         71.3604
949.48        71.25647
949.87        71.03602
950.26        70.75014
950.65        70.51678
951.04        70.52974
951.43        70.81283
951.82        71.26859
952.21        71.76272
952.60        72.06558
952.99        72.09776
953.38        71.94656
953.77        71.63196
954.16        71.18702
954.55        70.65566
954.94        70.01588
955.33        69.43315
955.72        69.19036
956.11        69.33051
956.50         69.7903
956.89        70.29071
957.28        70.31334
957.66         69.7711
958.05        68.84528
958.44        67.84589
958.83         67.2685
959.22         67.2499
959.61        67.58323
960.00        68.20171
960.39        69.00898
960.78        69.89581
961.16        70.92052
961.55        71.70996
961.94        71.72047
962.33        70.88313
962.72        69.41369
963.11        67.85209
963.49        67.00941
963.88        67.07085
964.27         67.8151
964.66        68.93111
965.04        69.83963
965.43        70.21337
965.82        70.24991
966.21        70.04211
966.60        69.74533
966.98        69.43097
967.37        68.97831
967.76        68.44965
968.15        67.98174
968.53        67.67757
968.92        67.61944
969.31        67.74219
969.69        67.87682
970.08        67.99793
970.47         68.1372
970.86        68.55018
971.24        69.67516
971.63        71.39151
972.02        73.39904
972.40        75.22853
972.79        76.14857
973.17        76.13811
973.56        75.37231
973.95        74.15445
974.33        73.00342
974.72        72.16498
975.11        71.53139
975.49        71.13799
975.88        71.05229
976.26        71.25188
976.65        71.73992
977.04        72.31422
977.42        72.56373
977.81        72.32736
978.19        71.67809
978.58        70.89282
978.96        70.44923
979.35        70.46957
979.74        70.82607
980.12        71.40009
980.51        71.76659
980.89        71.91573
981.28        71.90782
981.66        71.79884
982.05        71.70747
982.43        71.66784
982.82        71.58013
983.20        71.54684
983.59        71.55502
983.97        71.69486
984.35         71.9563
984.74        72.21122
985.12        72.21206
985.51        71.91693
985.89        71.42622
986.28         71.0246
986.66        71.21265
987.04        72.00495
987.43        73.19095
987.81        74.40793
988.20        74.92809
988.58        74.60079
988.96        73.66792
989.35        72.36197
989.73        71.12356
990.12        70.07261
990.50        69.03905
990.88        68.25648
991.27        68.23089
991.65        69.01762
992.03        70.46455
992.42        71.78432
992.80        72.25761
993.18        71.65433
993.56        70.05904
993.95        67.97787
994.33        66.70139
994.71        66.92155
995.10        68.04321
995.48        69.35246
995.86         69.9612
996.24        69.75631
996.63        68.96729
997.01        67.92741
997.39         67.2901
997.77        67.36568
998.15        67.90941
998.54        68.53015
998.92        68.74478
999.30         68.4305
999.68        67.77864
1000.06        67.05733
1000.45        66.68319
1000.83         66.8658
1001.21        67.39352
1001.59        68.07565
1001.97        68.64566
1002.35        69.05089
1002.73        69.45147
1003.12         69.8026
1003.50        69.83879
1003.88        69.58911
1004.26        69.04539
1004.64        68.63927
1005.02        68.96696
1005.40        70.06547
1005.78        71.81505
1006.16        73.54962
1006.54        74.03104
1006.92        72.97092
1007.30        70.77901
1007.69        68.43423
1008.07        67.47241
1008.45        68.35979
1008.83        70.52311
1009.21        73.14359
1009.59         75.0985
1009.97        76.05647
1010.35        76.30087
1010.73         75.9397
1011.11        75.27921
1011.49        74.57319
1011.86        73.81069
1012.24        72.96254
1012.62        72.22952
1013.00        71.68501
1013.38        71.47688
1013.76        71.61243
1014.14        72.02353
1014.52        72.68687
1014.90        73.51857
1015.28        74.66081
1015.66        76.33153
1016.04         78.3764
1016.41        80.64624
1016.79        82.24007
1017.17        82.31566
1017.55         80.8159
1017.93        78.08463
1018.31        75.04427
1018.69        73.11549
1019.06        72.74321
1019.44        73.67283
1019.82        75.24131
1020.20         76.0132
1020.58        75.40359
1020.95        73.73474
1021.33        71.80972
1021.71         70.5705
1022.09        70.10378
1022.46        70.09516
1022.84        69.75799
1023.22        67.53986
1023.60        63.01487
1023.97        56.29442
1024.35         49.1502
1024.73        45.31196
