SpectraSmart Spectrum 2.9.0.0
--------- Device Information -----------
Spectrum Name :  反射率_0
Saving Time :  2024/04/28 00:06:15
Spectro-Module Model Name : SE2030-DUVN
Spectro-Module Serial Number : OS361AC55029948
Wavelength Start : 200
Wavelength End : 1025
Wavelength Unit : Wavelength(nm)
Spectrum Unit : Reflectance(%)
-----------Spectrum Setting ------------
Integration Time : 20ms
Average : 10
Boxcar : 0
Background removal :  enabled
linearity correction :  enabled
SC :  disabled
Intensity correction :  disabled
DWT denoise :  enabled
savitzky-golay :  disabled
FFT :  disabled
Running average :  disabled
Kalman :  disabled
High pass :  disabled
---------------BEGIN--------------------
Wavelength(nm)             Reflectance(%)
200.29               0
200.75        9.069617
201.21        37.10224
201.67        60.71807
202.13          69.366
202.58        67.94283
203.04        62.24121
203.50        56.94431
203.96        58.05562
204.42        65.11137
204.88        74.15254
205.34        82.13368
205.80         87.1076
206.26         89.1683
206.72        88.78419
207.18        85.30102
207.64        79.67419
208.10        75.41795
208.55         73.9104
209.01        71.83999
209.47        66.11315
209.93        53.31279
210.39        21.41726
210.85       -75.71561
211.31        -204.832
211.77       -73.52895
212.23        19.83888
212.69          53.667
213.14        63.65797
213.60        62.19971
214.06        52.47177
214.52        32.88337
214.98        17.40124
215.44        22.30004
215.90        34.53698
216.36        45.04034
216.81        51.41246
217.27        54.72446
217.73        57.20475
218.19         58.2836
218.65         56.2015
219.11        50.75834
219.57        42.08158
220.02        32.19731
220.48        28.13338
220.94        31.71814
221.40        39.67825
221.86        48.80758
222.32        56.02757
222.77        60.73689
223.23        63.84944
223.69        64.83366
224.15        62.80889
224.61        58.04991
225.06        50.61496
225.52        42.94173
225.98        39.82922
226.44        41.76312
226.90        45.94185
227.36        49.59288
227.81         50.4757
228.27        48.65219
228.73        44.91777
229.19        39.86107
229.65        35.00797
230.10        31.30162
230.56         28.7285
231.02        27.16624
231.48        26.45472
231.93        26.35014
232.39        26.94695
232.85        28.10476
233.31         29.5677
233.77        31.17883
234.22        32.97916
234.68        34.50032
235.14        35.36607
235.60        35.56595
236.05        35.01332
236.51        34.54178
236.97        35.71371
237.43        38.89148
237.88         43.6599
238.34        48.10487
238.80        50.46804
239.26        50.32756
239.71         47.1928
240.17        41.16238
240.63        37.38756
241.08         40.7587
241.54        47.80604
242.00        53.50436
242.46        55.47616
242.91        54.03901
243.37        48.35849
243.83        36.13778
244.28        23.26827
244.74        29.58197
245.20        50.32429
245.66         65.7628
246.11        70.66698
246.57        68.02096
247.03        58.15597
247.48        41.76955
247.94         32.8241
248.40        43.71383
248.85        65.40943
249.31        85.60465
249.77        94.91266
250.22        94.94073
250.68        90.63756
251.14        85.49248
251.59        81.97981
252.05        80.03693
252.51        78.20796
252.96        74.64674
253.42        67.86473
253.88        59.68437
254.33        53.80934
254.79        51.21725
255.25        50.60944
255.70        51.03105
256.16        52.33022
256.62        54.36882
257.07        57.03372
257.53        59.95617
257.99        62.36294
258.44        63.46755
258.90        63.00249
259.35        61.00598
259.81        58.37741
260.27        55.58737
260.72         53.2455
261.18        51.74088
261.63        50.59747
262.09        49.67552
262.55        48.45149
263.00        46.84327
263.46        45.16269
263.91        43.61231
264.37        42.76806
264.83        42.56068
265.28        42.69756
265.74        42.84561
266.19        42.42296
266.65        41.42341
267.11        40.01185
267.56        38.44186
268.02         37.2007
268.47        36.37885
268.93        35.84657
269.38        35.44386
269.84        34.94616
270.30        34.27606
270.75        33.51222
271.21        32.71365
271.66        31.91514
272.12        31.15993
272.57        30.40235
273.03        29.66111
273.48        28.90469
273.94        28.18434
274.39        27.48492
274.85        26.88407
275.31        26.42337
275.76        26.07003
276.22        25.80109
276.67        25.50807
277.13        25.11531
277.58        24.57166
278.04        23.96071
278.49        23.27991
278.95        22.61566
279.40         21.9661
279.86        21.37792
280.31        20.87113
280.77        20.56709
281.22        20.44113
281.68        20.48444
282.13        20.59767
282.59         20.6681
283.04        20.65914
283.50        20.60055
283.95        20.53904
284.41        20.57487
284.86        20.70696
285.32        20.90711
285.77        21.09214
286.22        21.17229
286.68        21.15274
287.13         21.0464
287.59        20.94927
288.04        20.93829
288.50        21.05491
288.95        21.23844
289.41        21.45681
289.86        21.62217
290.32        21.73489
290.77        21.83152
291.22        21.94103
291.68        22.09582
292.13        22.31857
292.59        22.62948
293.04        23.07126
293.50        23.72901
293.95        24.60565
294.40        25.68518
294.86        26.91388
295.31        28.19674
295.77         29.5115
296.22        30.86251
296.68        32.27372
297.13        33.75515
297.58        35.30676
298.04         36.9114
298.49        38.55106
298.95        40.24434
299.40        42.00417
299.85         43.8469
300.31        45.81165
300.76        47.88954
301.21        50.06063
301.67         52.3116
302.12        54.54747
302.58        56.71822
303.03        58.78316
303.48        60.77917
303.94        62.80157
304.39        64.91195
304.84        67.15356
305.30         69.5154
305.75        71.88463
306.20        74.17931
306.66        76.39532
307.11        78.50423
307.57        80.59623
308.02        82.68639
308.47        84.78468
308.93        86.86346
309.38        88.80646
309.83        90.55251
310.29        92.12065
310.74        93.52448
311.19        94.84566
311.65        96.18141
312.10        97.51715
312.55        98.82079
313.00        100.0697
313.46         101.241
313.91        102.3106
314.36        103.3141
314.82         104.216
315.27        104.9497
315.72        105.5144
316.18        105.9432
316.63        106.3229
317.08        106.8341
317.53        107.5127
317.99        108.3034
318.44        109.0974
318.89         109.685
319.35        110.0171
319.80         110.174
320.25        110.2589
320.70        110.4474
321.16        110.7798
321.61        111.2145
322.06           111.7
322.51        112.1641
322.97         112.556
323.42        112.9404
323.87         113.278
324.32        113.5232
324.78        113.6599
325.23        113.7377
325.68        113.8048
326.13        113.9792
326.59        114.2636
327.04        114.6788
327.49        115.1471
327.94        115.5731
328.39         115.925
328.85        116.1934
329.30        116.4688
329.75         116.734
330.20        116.9993
330.66        117.2223
331.11        117.4861
331.56        117.8036
332.01        118.1889
332.46        118.6362
332.92        119.0664
333.37        119.5034
333.82        119.8763
334.27        120.1981
334.72        120.4969
335.17        120.8234
335.63        121.1696
336.08        121.5847
336.53        122.0256
336.98        122.4683
337.43        122.9061
337.88        123.3462
338.34        123.7921
338.79         124.308
339.24        124.8768
339.69        125.4799
340.14         126.073
340.59        126.5868
341.05        127.0113
341.50        127.3843
341.95        127.7353
342.40        128.1309
342.85        128.5885
343.30        129.0682
343.75        129.5807
344.20        130.1412
344.66        130.7382
345.11         131.369
345.56         131.921
346.01        132.2088
346.46        132.2208
346.91        132.0262
347.36        131.8313
347.81        131.9578
348.26        132.4583
348.72        133.2157
349.17        134.0193
349.62        134.5544
350.07        134.7213
350.52        134.6162
350.97        134.3282
351.42        134.0023
351.87        133.7081
352.32        133.4125
352.77        133.1317
353.22        132.8971
353.67        132.7022
354.13         132.549
354.58        132.3855
355.03         132.182
355.48        131.9088
355.93        131.5641
356.38        131.0951
356.83        130.4263
357.28        129.5674
357.73        128.5696
358.18        127.5381
358.63        126.6308
359.08        125.8965
359.53        125.3005
359.98        124.7981
360.43        124.3114
360.88        123.7978
361.33        123.2585
361.78         122.688
362.23        122.0699
362.68        121.3989
363.13        120.6964
363.58        119.9343
364.03        118.9895
364.48        118.0163
364.93        116.9239
365.38        115.8579
365.83        114.9702
366.28        114.2873
366.73        113.7662
367.18        113.2733
367.63        112.5932
368.08         111.679
368.53        110.5961
368.98        109.4798
369.43        108.5504
369.88        107.8617
370.33        107.3416
370.78         106.875
371.23        106.2762
371.68         105.492
372.13        104.5842
372.58         103.635
373.03        102.7776
373.48        102.0565
373.93         101.429
374.38        100.8513
374.83        100.2524
375.28        99.61138
375.72         98.9427
376.17        98.29923
376.62        97.68625
377.07        97.10831
377.52        96.53846
377.97        95.98997
378.42        95.49197
378.87        95.03975
379.32        94.62991
379.77        94.19401
380.22        93.61993
380.67        92.89546
381.11        92.06506
381.56          91.233
382.01        90.58765
382.46        90.18366
382.91        89.96874
383.36        89.84374
383.81        89.64746
384.26        89.32895
384.71        88.93044
385.15        88.48778
385.60        88.11927
386.05         87.8307
386.50        87.58748
386.95        87.34882
387.40        87.06379
387.85        86.72784
388.29        86.31516
388.74        85.96015
389.19        85.65118
389.64        85.37485
390.09        85.08687
390.54        84.77338
390.98        84.39955
391.43        84.02957
391.88        83.68902
392.33        83.30972
392.78        82.91458
393.23        82.55097
393.67        81.89226
394.12        81.16823
394.57        81.61787
395.02        81.83598
395.47          81.777
395.91        81.11567
396.36        80.79937
396.81        80.86812
397.26        80.81081
397.71        80.56802
398.15        80.27621
398.60        80.02338
399.05        79.56419
399.50        79.06878
399.95         79.0779
400.39        79.45184
400.84        79.44236
401.29          79.005
401.74        78.42077
402.18        77.89601
402.63        77.84727
403.08        78.18749
403.53        78.19248
403.97        77.82192
404.42        77.58172
404.87        77.48985
405.32        77.39446
405.76         77.2858
406.21        77.10223
406.66        76.90752
407.11        77.00603
407.55        77.26481
408.00        77.31127
408.45        76.71403
408.90        76.11223
409.34        75.57543
409.79        75.51826
410.24        75.81726
410.68           75.85
411.13        75.57325
411.58        75.38189
412.03        75.34895
412.47        75.40607
412.92        75.53194
413.37        75.74986
413.81        75.95753
414.26        76.06528
414.71        76.03568
415.15        75.91887
415.60        75.74718
416.05         75.6521
416.49        75.67699
416.94        75.76595
417.39         75.8956
417.83        76.02605
418.28        76.12923
418.73        76.20776
419.17        76.24544
419.62        76.21652
420.07        76.14103
420.51        76.03781
420.96        75.93887
421.41        75.90462
421.85         75.9191
422.30        75.82006
422.74        75.67953
423.19        76.11998
423.64        76.96322
424.08        77.26517
424.53        76.87631
424.98        76.66699
425.42         76.7039
425.87        76.18053
426.31        75.38197
426.76        75.60368
427.21        76.64954
427.65        76.90601
428.10        76.35623
428.54        76.27299
428.99         76.6937
429.44        76.96255
429.88        76.98138
430.33        76.80041
430.77        76.49406
431.22        76.51888
431.66         76.8624
432.11        77.22405
432.56        77.56208
433.00        77.78907
433.45        77.67181
433.89        77.59856
434.34        77.73931
434.78        76.66802
435.23          76.775
435.67           77.35
436.12        78.34042
436.57        78.45224
437.01        77.78929
437.46        77.35757
437.90        77.63868
438.35         78.8185
438.79        78.26997
439.24        78.41116
439.68        78.47784
440.13        78.53887
440.57        78.57761
441.02        78.73136
441.46        78.92075
441.91        78.72945
442.35        78.25746
442.80        78.42151
443.24        79.06308
443.69         79.2127
444.13        78.87715
444.58        78.87307
445.02        79.18215
445.47        79.40581
445.91        79.49493
446.36        79.56877
446.80        79.59475
447.24        79.72853
447.69        79.58349
448.13        79.74096
448.58        80.00803
449.02        79.98976
449.47        79.75218
449.91        79.69392
450.36        79.86047
450.80         79.9922
451.25        80.06941
451.69        80.14864
452.13        80.19925
452.58        80.12956
453.02        79.97086
453.47         79.8186
453.91        79.68568
454.36        79.66663
454.80        79.62957
455.24        79.24285
455.69        78.66373
456.13        78.14947
456.58        77.89604
457.02        78.28903
457.46        78.90569
457.91        78.96472
458.35        78.12042
458.79        77.85589
459.24        78.08678
459.68        78.14767
460.13        78.01973
460.57         77.7314
461.01        77.65881
461.46         77.3093
461.90        77.01073
462.34        76.96536
462.79        77.17196
463.23        77.24744
463.68        77.13316
464.12        76.91796
464.56        76.69142
465.01        76.71091
465.45        76.82928
465.89        76.89991
466.34        76.86113
466.78        76.74976
467.22        75.62779
467.67        76.29817
468.11        76.06514
468.55        76.14426
468.99        75.81334
469.44        75.66035
469.88        75.68616
470.32         75.5955
470.77        75.42251
471.21        75.30756
471.65        75.26769
472.10        75.29436
472.54        75.29818
472.98        75.24814
473.42        75.15149
473.87         74.8385
474.31        74.43566
474.75        74.72479
475.20        75.49774
475.64        75.50477
476.08        74.78791
476.52        74.58972
476.97        74.97825
477.41        74.69766
477.85        74.54823
478.29        74.60735
478.74        74.83772
479.18         73.9987
479.62        74.71934
480.06        74.65359
480.50        74.56809
480.95        74.71516
481.39        74.80724
481.83        74.56902
482.27        74.73295
482.72        74.35494
483.16        74.39004
483.60        74.23917
484.04        74.07573
484.48        74.05776
484.93        74.39285
485.37        74.13137
485.81        74.57025
486.25        75.43947
486.69        75.50455
487.14         74.9849
487.58        74.55881
488.02        74.68265
488.46        74.47221
488.90         74.6371
489.34        74.26704
489.79        73.60245
490.23        74.05178
490.67        73.86978
491.11        73.57895
491.55        73.49461
491.99        73.62933
492.43        73.70613
492.88        73.69059
493.32        73.76302
493.76         73.8745
494.20        73.93298
494.64        73.93861
495.08        73.85459
495.52        73.74731
495.96        73.83855
496.41        74.06329
496.85        74.11319
497.29        73.96325
497.73        73.84896
498.17        73.70327
498.61        73.84519
499.05        74.11522
499.49        73.91261
499.93         73.3611
500.37         73.1728
500.82        73.34207
501.26        73.49279
501.70        73.65415
502.14        73.24422
502.58        73.66766
503.02        73.75765
503.46        73.61666
503.90        73.48466
504.34        73.31871
504.78        73.25471
505.22        73.27942
505.66        73.22325
506.10        73.13774
506.54        73.22564
506.98        73.44149
507.42        73.56371
507.86        73.88559
508.30        73.42672
508.74        73.77842
509.18        73.63287
509.62        73.46738
510.06        73.33096
510.50        73.25108
510.94        73.19601
511.38        73.15096
511.82        73.13007
512.26        73.12614
512.70        73.14719
513.14        73.18644
513.58        73.19873
514.02        73.17563
514.46          73.177
514.90        73.22758
515.34        73.11111
515.78        73.25105
516.22        73.29046
516.66        73.34902
517.10        73.40797
517.54        73.46043
517.98        73.50497
518.42        73.50858
518.86        73.43021
519.30        73.27112
519.74        73.05398
520.18        72.83865
520.62        72.71604
521.06        72.70894
521.50        72.79367
521.93        72.92812
522.37         73.0257
522.81          73.063
523.25        73.05468
523.69        73.02327
524.13        73.00545
524.57        73.01147
525.01        73.03036
525.45        73.03538
525.89        72.98834
526.32         72.8801
526.76        72.73952
527.20        72.61239
527.64        72.57699
528.08        72.64456
528.52        72.78609
528.96        72.93681
529.40        72.99506
529.83        72.93212
530.27        72.79613
530.71        72.63156
531.15        72.51926
531.59        72.48367
532.03        72.49903
532.46        72.53783
532.90        72.57963
533.34        72.60487
533.78        72.62283
534.22        72.63172
534.66        72.62624
535.09        72.59829
535.53        72.56913
535.97        72.52921
536.41        72.48425
536.85        72.43797
537.28        72.39149
537.72        72.35893
538.16        72.35424
538.60        72.38576
539.04        72.45057
539.47        72.46861
539.91        72.51751
540.35        72.60119
540.79        72.43172
541.22        71.96371
541.66        72.65947
542.10         72.1644
542.54        72.21645
542.97        72.13562
543.41        72.14508
543.85        72.21865
544.29        72.30292
544.72        72.37114
545.16        72.37199
545.60        72.28428
546.04        72.16827
546.47        72.05715
546.91        71.91107
547.35        71.79575
547.79         71.9307
548.22        72.21396
548.66        72.33219
549.10        72.25049
549.53        72.18678
549.97        72.18191
550.41        72.17835
550.84        72.18911
551.28        72.25031
551.72        72.32516
552.15         72.3326
552.59        72.28074
553.03        72.18027
553.46        72.06791
553.90        72.05371
554.34        72.13239
554.77        72.28139
555.21        72.43089
555.65        72.47742
556.08        72.31779
556.52        72.17266
556.96        72.05215
557.39        71.97826
557.83        71.97169
558.27        71.97476
558.70        71.97343
559.14        71.96561
559.57        71.93172
560.01        71.96131
560.45        72.01324
560.88        71.91621
561.32        71.77997
561.75        71.77765
562.19         71.9136
562.63        72.08069
563.06        72.18745
563.50        71.99421
563.93        71.60056
564.37          71.556
564.80        71.82513
565.24        72.00571
565.68        72.03109
566.11        72.08584
566.55        72.18491
566.98        72.12727
567.42         71.9892
567.85         72.0628
568.29        72.32224
568.72        72.26254
569.16        71.98995
569.60        72.02057
570.03        72.35276
570.47        72.49786
570.90        72.46063
571.34        73.01558
571.77        72.72047
572.21        72.67305
572.64        72.65691
573.08        72.55987
573.51        72.05441
573.95        72.21104
574.38        72.75432
574.82         72.5771
575.25        72.30118
575.69        72.06331
576.12        72.42782
576.56        72.32493
576.99        72.46024
577.42        72.70779
577.86        72.61099
578.29         72.6034
578.73        72.69513
579.16        72.72771
579.60        72.65012
580.03        72.57085
580.47        72.42986
580.90        72.81943
581.33        72.60235
581.77        73.20261
582.20        72.97857
582.64        72.88616
583.07        72.67167
583.51        72.40723
583.94        72.39236
584.37        72.36813
584.81        72.43231
585.24        72.56802
585.68        72.71213
586.11         72.9029
586.54        72.53783
586.98        72.21191
587.41        72.52029
587.85         72.2352
588.28        72.41601
588.71        72.31589
589.15        72.58742
589.58        72.07675
590.01        72.59733
590.45        72.31624
590.88        71.91566
591.31        71.83582
591.75        72.09891
592.18        71.97791
592.61        71.65536
593.05        71.99226
593.48        72.71727
593.91        72.04874
594.35        72.17508
594.78        72.43581
595.21        72.21526
595.65        72.17659
596.08        71.85967
596.51        72.18599
596.94        71.96636
597.38        71.93787
597.81        71.78947
598.24        72.08865
598.68        71.73941
599.11        71.96343
599.54        72.06277
599.97        71.96992
600.41        72.07511
600.84        72.05419
601.27        72.04455
601.70        71.96561
602.14        71.73437
602.57        71.98805
603.00        71.89256
603.43        72.19493
603.87        72.51494
604.30        72.15677
604.73        72.05048
605.16        72.06832
605.60        71.95444
606.03         72.1349
606.46        72.32539
606.89        72.44275
607.32        72.08239
607.76        72.36221
608.19        72.14639
608.62        72.09615
609.05        72.01886
609.48        71.95906
609.92        71.80294
610.35        72.16325
610.78        72.44507
611.21        71.12898
611.64        72.30513
612.07         72.0862
612.50        71.79388
612.94        71.66508
613.37        71.78073
613.80        71.80055
614.23        72.06355
614.66        71.78898
615.09        71.92684
615.52        71.95399
615.96        72.14877
616.39        71.71516
616.82        71.94684
617.25        71.74154
617.68        71.65406
618.11        71.64919
618.54        71.76479
618.97        71.98747
619.40        71.85311
619.84        72.04594
620.27        71.92258
620.70         71.8416
621.13         71.6302
621.56        71.60443
621.99        71.36961
622.42        71.38338
622.85        71.40834
623.28        71.88896
623.71        71.77137
624.14        71.13772
624.57         71.5563
625.00        71.46494
625.43        71.25176
625.86        71.29062
626.29        71.54671
626.72        71.33349
627.15        71.31213
627.58        71.20917
628.01        71.35725
628.44        70.88291
628.87         70.7035
629.30        71.36131
629.73        71.24984
630.16        70.71536
630.59        71.09933
631.02        71.09803
631.45        71.21046
631.88        71.28568
632.31        71.35838
632.74        71.09924
633.17         71.2201
633.60        71.17593
634.03        71.17787
634.46        71.20515
634.89        71.23773
635.32        71.21453
635.75        71.11922
636.18        71.01835
636.61        70.92925
637.04        70.79041
637.47        70.64362
637.89        70.70888
638.32        70.94282
638.75        71.03735
639.18        70.94365
639.61        71.22876
640.04        71.11036
640.47        71.16175
640.90        71.15514
641.33        71.08622
641.76        70.96785
642.18        71.01768
642.61        70.97099
643.04        71.03001
643.47        71.07971
643.90         71.0682
644.33        70.98228
644.76        70.84519
645.18        70.70501
645.61        70.62241
646.04        70.61681
646.47        70.66393
646.90        70.73386
647.33        70.78442
647.75        70.80854
648.18        70.80717
648.61        70.78441
649.04        70.82805
649.47        70.92052
649.89         70.8306
650.32        70.63015
650.75        70.76363
651.18        71.13924
651.61        71.18676
652.03        70.76447
652.46        70.56035
652.89        70.68552
653.32        70.46613
653.74        70.28911
654.17        71.06378
654.60        70.96398
655.03        70.81347
655.46         70.7838
655.88        71.38764
656.31        73.09196
656.74        74.54527
657.16        73.59021
657.59        72.72676
658.02        71.31397
658.45        71.59106
658.87        71.51273
659.30        71.55714
659.73         71.2573
660.15        70.95021
660.58        71.08674
661.01        71.15633
661.44        71.21544
661.86        71.15277
662.29        70.96696
662.72        70.77927
663.14        70.65692
663.57        70.66362
664.00        70.78491
664.42        70.85516
664.85        70.86529
665.27        70.91699
665.70        70.99543
666.13        71.03389
666.55        71.02903
666.98        70.98315
667.41        70.93139
667.83         70.9345
668.26        70.99598
668.69        71.11119
669.11        71.23022
669.54        71.27692
669.96         71.2451
670.39        71.10956
670.82          70.956
671.24        71.00828
671.67        71.23878
672.09        71.38861
672.52         71.4313
672.94        71.42609
673.37        71.39363
673.80        71.35239
674.22        71.31442
674.65        71.21111
675.07        71.07363
675.50        70.94025
675.92        70.85671
676.35        70.85013
676.77        70.93263
677.20        71.09775
677.62        71.29177
678.05        71.40544
678.47        71.41006
678.90        71.33667
679.32        71.23976
679.75        71.22351
680.17        71.31133
680.60         71.4835
681.02        71.64935
681.45        71.68004
681.87        71.56833
682.30        71.23872
682.72        70.85683
683.15        70.93707
683.57        71.41705
684.00        71.58016
684.42        71.40002
684.85        71.41933
685.27        71.64606
685.70        71.66645
686.12        71.47572
686.54        71.52872
686.97        71.87457
687.39        71.36527
687.82        71.85455
688.24        71.65762
688.66        71.67058
689.09        71.56608
689.51        71.49625
689.94        71.45126
690.36        71.43147
690.78        71.44498
691.21        71.47199
691.63        71.48119
692.06        71.46713
692.48        71.43552
692.90        71.39761
693.33        71.35698
693.75        71.32497
694.17        71.31105
694.60        71.29441
695.02        71.29457
695.44        71.30653
695.87        71.26517
696.29        71.22187
696.71        71.40818
697.14         71.7404
697.56        71.85643
697.98        71.74417
698.41        71.74923
698.83        71.85732
699.25         71.8851
699.68        71.82661
700.10        71.84242
700.52        71.93359
700.94        72.03886
701.37        72.10403
701.79        72.19486
702.21        72.09781
702.64        71.99352
703.06        71.85899
703.48        71.76438
703.90        71.73447
704.33        71.75181
704.75        71.79963
705.17        71.82256
705.59        71.80729
706.01        71.74034
706.44        71.67005
706.86        71.79822
707.28           71.93
707.70         72.2054
708.12        72.47484
708.55         72.5435
708.97        72.39954
709.39        72.20492
709.81        72.03744
710.23        71.93081
710.66        71.92315
711.08        72.06217
711.50         72.2548
711.92        72.34422
712.34        72.30073
712.76        72.16948
713.19        72.02347
713.61        72.03331
714.03        72.20692
714.45        72.48112
714.87        72.75931
715.29        72.89812
715.71         72.8646
716.13        72.71251
716.56        72.48315
716.98         72.3283
717.40        72.27006
717.82        72.27231
718.24        72.33751
718.66        72.46845
719.08         72.6476
719.50        72.87299
719.92         73.0812
720.34        73.16612
720.76        73.10664
721.19        72.91986
721.61        72.69298
722.03        72.54305
722.45        72.50763
722.87        72.55776
723.29        72.64984
723.71        72.70697
724.13        72.70846
724.55        72.68431
724.97        72.66191
725.39        72.68171
725.81        72.75224
726.23         72.8486
726.65        72.95489
727.07        73.05222
727.49        73.13138
727.91        73.19991
728.33         73.2469
728.75        73.25365
729.17         73.2217
729.59         73.1571
730.01        73.09001
730.43        73.07271
730.85        73.11161
731.27        73.18377
731.69        73.26882
732.10        73.33262
732.52         73.3522
732.94         73.3996
733.36         73.4643
733.78        73.41612
734.20        73.23229
734.62        73.43355
735.04        72.93269
735.46        73.22824
735.88        73.80997
736.30        73.81886
736.72        73.27419
737.13        72.99649
737.55        73.04059
737.97        73.01882
738.39        72.93382
738.81        72.92166
739.23        72.98969
739.65        73.17525
740.06         73.3828
740.48        73.50552
740.90        73.48911
741.32        73.45329
741.74         73.3276
742.16        73.28011
742.57        73.31044
742.99        73.38435
743.41        73.46962
743.83        73.49857
744.25          73.455
744.67        73.35358
745.08        73.26113
745.50        73.23978
745.92         73.3235
746.34        73.49429
746.75        73.66523
747.17        73.70977
747.59        73.60323
748.01        73.32851
748.42        73.02488
748.84        73.00275
749.26         73.2337
749.68        73.47765
750.09        73.63158
750.51        73.52579
750.93        73.27262
751.35        73.41414
751.76        73.87388
752.18        73.99851
752.60         73.7482
753.01        73.54915
753.43        73.46877
753.85        73.36403
754.27        73.23648
754.68        73.57752
755.10         73.5328
755.52        73.68941
755.93        73.79124
756.35        73.88114
756.77        73.95196
757.18          74.052
757.60         74.1963
758.02        74.22185
758.43        74.18472
758.85        74.37503
759.26        74.62064
759.68        74.57985
760.10        74.41193
760.51          73.252
760.93         73.5742
761.34        73.77869
761.76        73.98944
762.18        74.29375
762.59        74.46564
763.01        74.30925
763.42        73.97725
763.84        73.83782
764.26        73.99279
764.67         74.3368
765.09        74.72932
765.50        74.72767
765.92        74.39266
766.33        74.16995
766.75        74.10251
767.16        74.01442
767.58        73.86824
768.00        74.05733
768.41        74.46798
768.83        74.26222
769.24        73.63542
769.66        73.72127
770.07        74.38909
770.49        74.69437
770.90        74.55481
771.32        74.35242
771.73        74.21983
772.15         74.1974
772.56        74.32363
772.97        74.59441
773.39        74.87465
773.80        74.89362
774.22        74.66412
774.63        74.64927
775.05        74.82222
775.46        74.85742
775.88        74.72015
776.29        74.67068
776.70        74.70502
777.12        74.71384
777.53        74.71361
777.95        74.71152
778.36        74.73977
778.77        74.82407
779.19        74.97017
779.60         75.1769
780.02        75.36784
780.43        75.48704
780.84        75.49953
781.26        75.31937
781.67        75.12605
782.09        75.27582
782.50        75.55011
782.91        76.18948
783.33        75.23967
783.74        75.14946
784.15        75.36333
784.57        75.36023
784.98         75.1748
785.39        75.30975
785.81         75.7038
786.22        75.83604
786.63         75.7179
787.04        75.75521
787.46        75.96365
787.87        76.10148
788.28        76.13485
788.70        76.12759
789.11        76.06314
789.52        75.88288
789.93        75.67607
790.35        75.70684
790.76         75.9633
791.17        76.08039
791.58        76.02663
792.00        76.04682
792.41        76.15903
792.82        76.13976
793.23        76.04745
793.65        76.17049
794.06        76.51091
794.47        76.78816
794.88        76.90056
795.29        77.04367
795.71        76.98988
796.12        76.73772
796.53        76.31573
796.94        76.33557
797.35        76.69511
797.76        76.46994
798.18        75.79261
798.59        75.61703
799.00        75.99879
799.41        76.41484
799.82        76.70985
800.23        76.87792
800.64        76.86123
801.06         76.6321
801.47        76.33943
801.88        76.15518
802.29        76.14054
802.70         76.2606
803.11        76.43675
803.52        76.52683
803.93        76.49391
804.34        76.38457
804.75        76.28933
805.17          76.336
805.58        76.57948
805.99        76.94719
806.40        77.32157
806.81        77.49382
807.22        77.41544
807.63        77.18557
808.04        76.90794
808.45        76.72889
808.86        76.70505
809.27        76.80265
809.68        76.95184
810.09        77.02239
810.50        76.97865
810.91        76.86926
811.32        76.74475
811.73        76.69691
812.14        76.75348
812.55        76.83361
812.96         76.9127
813.37        77.06992
813.78        77.23357
814.19        77.15815
814.60        76.90944
815.01        76.80985
815.42        76.89145
815.83         76.9875
816.24        77.06654
816.65        77.15197
817.05        77.22724
817.46        77.24197
817.87        77.23914
818.28        77.22921
818.69        77.21777
819.10        77.21359
819.51        77.19354
819.92        77.11745
820.33        76.98982
820.74        76.82656
821.14        76.70199
821.55        76.76355
821.96         77.0127
822.37        77.41234
822.78        77.84313
823.19        78.08489
823.60        78.07185
824.00        77.88707
824.41        77.59621
824.82        77.41269
825.23        77.39705
825.64        77.48615
826.04        77.66168
826.45        77.84966
826.86        78.02193
827.27        78.20161
827.68        78.33364
828.08        78.34981
828.49        78.17609
828.90        77.87975
829.31        77.55705
829.72        77.37932
830.12        77.42046
830.53        77.58582
830.94        77.84039
831.35        78.07975
831.75        78.27931
832.16        78.41318
832.57        78.47889
832.97        78.43794
833.38        78.28786
833.79        78.05141
834.20        77.79411
834.60        77.61344
835.01        77.54531
835.42        77.55676
835.82        77.64478
836.23        77.71137
836.64         77.7536
837.04         77.8166
837.45        77.83382
837.86        77.79626
838.26        77.72305
838.67        77.60857
839.08        77.52106
839.48        77.55795
839.89        77.73703
840.29        78.01869
840.70        78.36125
841.11        78.70103
841.51        79.02227
841.92        79.29604
842.33        79.49397
842.73        79.56906
843.14        79.46819
843.54        79.23444
843.95        78.94511
844.35         78.7553
844.76        78.69317
845.17        78.72867
845.57        78.80361
845.98        78.76569
846.38        78.61115
846.79        78.37975
847.19        78.14067
847.60        77.94638
848.00        77.85162
848.41        77.79195
848.81        77.83329
849.22        78.00742
849.62        78.33434
850.03        78.76599
850.43        79.19267
850.84         79.3538
851.24         79.2505
851.65        78.87937
852.05        78.46692
852.46        78.31497
852.86        78.50464
853.27        78.93442
853.67        79.34882
854.07        79.59502
854.48         79.5833
854.88        79.42088
855.29        79.06231
855.69        78.65447
856.10        78.17432
856.50        77.69512
856.90        77.25131
857.31        76.92971
857.71        76.80193
858.12        76.80519
858.52        76.94743
858.92        77.09602
859.33        77.18237
859.73        77.25356
860.13        77.27178
860.54        77.20787
860.94        77.10162
861.34        76.93127
861.75        76.68758
862.15        76.42511
862.55         76.1446
862.96        75.86529
863.36        75.64133
863.76        75.53868
864.17        75.55833
864.57        75.68494
864.97        75.87084
865.38        76.01637
865.78         76.1353
866.18        76.22935
866.58        76.25267
866.99        76.15218
867.39        75.96529
867.79        75.67116
868.19        75.39494
868.60        75.28687
869.00        75.36183
869.40        75.62064
869.80        75.92287
870.21        76.00652
870.61        75.88264
871.01        75.57452
871.41        75.25216
871.81        75.15986
872.22        75.31516
872.62        75.66913
873.02        76.10504
873.42        76.38651
873.82        76.43852
874.22        76.36594
874.63        76.25566
875.03        76.19892
875.43        76.23862
875.83        76.30288
876.23        76.44927
876.63        76.78149
877.03        77.27895
877.44        77.90027
877.84        78.40881
878.24        78.37775
878.64        77.75195
879.04        76.69801
879.44        75.58327
879.84        74.91792
880.24        74.80531
880.64        75.11689
881.04        75.60374
881.44        75.82629
881.84        75.65395
882.24        75.21082
882.65        74.70294
883.05        74.57886
883.45        74.89109
883.85        75.47951
884.25         76.0946
884.65        76.38793
885.05        76.28294
885.45        75.89565
885.85        75.40952
886.25        75.13564
886.65         75.1713
887.05        75.41708
887.45        75.72707
887.85        75.88241
888.25        75.82013
888.65        75.60803
889.04        75.33471
889.44        75.18179
889.84        75.17516
890.24        75.24974
890.64        75.31449
891.04        75.23441
891.44        74.99059
891.84        74.66135
892.24        74.32365
892.64        74.08534
893.04        73.99088
893.44        74.00886
893.83        74.17203
894.23        74.46486
894.63        74.87933
895.03        75.38267
895.43         75.8761
895.83        76.20026
896.23        76.30931
896.63        76.24266
897.02        76.04967
897.42        75.85694
897.82        75.69609
898.22        75.55655
898.62        75.45328
899.01        75.42097
899.41        75.43993
899.81        75.51186
900.21        75.62622
900.61        75.75253
901.00        75.86497
901.40        75.99142
901.80        76.06783
902.20         76.0144
902.59        75.83714
902.99        75.53591
903.39        75.26183
903.79        75.24609
904.18        75.52571
904.58        76.04853
904.98        76.60223
905.38        76.88026
905.77        76.81497
906.17        76.48261
906.57        76.10583
906.96        76.09159
907.36        76.50226
907.76        77.23272
908.15        77.97192
908.55        78.12879
908.95         77.6073
909.34        76.57578
909.74         75.4634
910.14        74.87286
910.53        74.96346
910.93        75.54347
911.33        76.29656
911.72        76.68318
912.12        76.53777
912.52        76.06474
912.91        75.50569
913.31        75.22492
913.70        75.30293
914.10        75.61411
914.49        76.03712
914.89        76.30025
915.29        76.33244
915.68        76.20163
916.08        76.04198
916.47        76.05532
916.87         76.2897
917.26        76.63793
917.66        76.95022
918.05        76.96394
918.45        76.62685
918.84        76.07575
919.24        75.44472
919.64        75.03557
920.03        74.96112
920.42        75.13186
920.82        75.47233
921.21        75.84954
921.61        76.19051
922.00        76.53733
922.40        76.87964
922.79         77.2739
923.19         77.6674
923.58        78.04852
923.98        78.29121
924.37        78.28815
924.77        78.01821
925.16        77.50488
925.55        76.92561
925.95        76.58127
926.34        76.55383
926.74         76.7605
927.13        77.02788
927.52        76.96117
927.92        76.51649
928.31        75.82936
928.70        75.14512
929.10        74.82189
929.49        74.94345
929.89        75.34792
930.28        75.94067
930.67        76.42961
931.07          76.681
931.46        76.79841
931.85        76.75517
932.24        76.55132
932.64        76.22579
933.03        75.78216
933.42        75.35117
933.82        75.15237
934.21        75.23738
934.60        75.55509
934.99        75.98706
935.39        76.29263
935.78         76.4259
936.17        76.43501
936.56        76.36327
936.96        76.28194
937.35        76.28021
937.74        76.30612
938.13        76.36658
938.53        76.48408
938.92        76.66029
939.31        76.87762
939.70        77.13245
940.09        77.40207
940.49         77.6263
940.88        77.82287
941.27        77.91653
941.66        77.80752
942.05         77.5022
942.44        77.06674
942.84        76.61363
943.23        76.26994
943.62        76.11538
944.01        76.10995
944.40        76.26639
944.79        76.58939
945.18        77.02143
945.57        77.51318
945.97           77.89
946.36        77.97294
946.75        77.69688
947.14        77.11705
947.53        76.34858
947.92        75.62186
948.31        75.05038
948.70        74.61246
949.09        74.31528
949.48        74.13931
949.87        74.07286
950.26        74.14924
950.65        74.32675
951.04        74.52268
951.43        74.70931
951.82        74.86892
952.21        75.03584
952.60        75.29486
952.99        75.62611
953.38         75.9523
953.77        76.16811
954.16        76.12546
954.55         75.8008
954.94        75.27154
955.33        74.59644
955.72        73.86816
956.11        73.16073
956.50        72.48595
956.89        71.97129
957.28        71.80947
957.66        72.07113
958.05        72.69833
958.44        73.50513
958.83        74.18053
959.22        74.59931
959.61        74.74526
960.00        74.76788
960.39        74.93607
960.78        75.29529
961.16        75.82221
961.55        76.13401
961.94        75.70665
962.33        74.50111
962.72        72.78745
963.11        71.18053
963.49        70.55361
963.88        71.07387
964.27        72.48412
964.66        74.27187
965.04        75.49994
965.43        75.74679
965.82        75.31662
966.21        74.55548
966.60        74.02234
966.98        73.88799
967.37        73.90179
967.76        73.97835
968.15        73.96107
968.53         73.8118
968.92        73.68346
969.31        73.52582
969.69        73.18729
970.08        72.67502
970.47        72.01806
970.86        71.58031
971.24        72.01389
971.63        73.29881
972.02        75.13346
972.40        76.96393
972.79        77.91398
973.17        77.91571
973.56        77.15537
973.95        76.00246
974.33        75.09776
974.72        74.67842
975.11        74.55901
975.49        74.60277
975.88        74.59837
976.26        74.48133
976.65        74.37841
977.04        74.26078
977.42         74.0184
977.81        73.60231
978.19         72.9744
978.58        72.47932
978.96        72.68861
979.35        73.65406
979.74        75.21262
980.12         76.8172
980.51        77.35892
980.89        76.71593
981.28        75.11335
981.66        73.19371
982.05        72.18285
982.43         72.4586
982.82        73.59528
983.20        75.14915
983.59        76.25236
983.97        76.74325
984.35        76.86713
984.74        76.67634
985.12        76.24968
985.51        75.69756
985.89        74.99445
986.28        74.44241
986.66        74.59314
987.04        75.45016
987.43        76.81101
987.81        78.25171
988.20        78.89574
988.58        78.54202
988.96        77.45528
989.35        75.88223
989.73         74.2949
990.12        72.81691
990.50        71.25697
990.88         69.9067
991.27        69.44514
991.65        70.04825
992.03        71.58823
992.42        73.15061
992.80         73.8309
993.18        73.38336
993.56        71.92715
993.95        70.14538
994.33         69.6349
994.71        70.99802
995.10         73.3621
995.48        75.66827
995.86        76.81503
996.24         76.7422
996.63        75.73454
997.01        74.31274
997.39         73.5066
997.77        73.78145
998.15        74.80656
998.54        75.94457
998.92        76.35149
999.30        75.82975
999.68        74.63499
1000.06        73.27602
1000.45        72.61798
1000.83        72.99609
1001.21          74.071
1001.59        75.24422
1001.97        75.63486
1002.35        75.06161
1002.73         73.8148
1003.12        72.36131
1003.50        71.57222
1003.88        71.81017
1004.26        72.59457
1004.64        73.64883
1005.02        74.69017
1005.40        75.59541
1005.78        76.55233
1006.16        77.08921
1006.54        76.33676
1006.92        74.23447
1007.30        71.07538
1007.69          68.038
1008.07        67.01136
1008.45        68.45931
1008.83        71.69042
1009.21        75.46497
1009.59        78.02087
1009.97        78.86718
1010.35        78.38932
1010.73        76.84294
1011.11        75.07967
1011.49        73.71753
1011.86        72.63177
1012.24        71.78796
1012.62         71.3326
1013.00        71.23724
1013.38        71.66705
1013.76        72.38873
1014.14        72.89188
1014.52        73.03423
1014.90        72.80906
1015.28        72.56985
1015.66        73.05361
1016.04        74.37305
1016.41        76.30329
1016.79        77.92026
1017.17        78.27977
1017.55         77.2683
1017.93        75.31429
1018.31         73.1938
1018.69        72.07903
1019.06        72.38991
1019.44        73.90147
1019.82        76.19821
1020.20        78.28532
1020.58        79.51939
1020.95        79.86532
1021.33        79.70706
1021.71        79.55521
1022.09        79.49781
1022.46        79.41241
1022.84        78.69308
1023.22        76.13028
1023.60        71.39889
1023.97        64.43206
1024.35        57.00316
1024.73         52.9459
