SpectraSmart Spectrum 2.9.0.0
--------- Device Information -----------
Spectrum Name :  反射率_0
Saving Time :  2024/04/28 00:01:02
Spectro-Module Model Name : SE2030-DUVN
Spectro-Module Serial Number : OS361AC55029948
Wavelength Start : 200
Wavelength End : 1025
Wavelength Unit : Wavelength(nm)
Spectrum Unit : Reflectance(%)
-----------Spectrum Setting ------------
Integration Time : 20ms
Average : 10
Boxcar : 0
Background removal :  enabled
linearity correction :  enabled
SC :  disabled
Intensity correction :  disabled
DWT denoise :  enabled
savitzky-golay :  disabled
FFT :  disabled
Running average :  disabled
Kalman :  disabled
High pass :  disabled
---------------BEGIN--------------------
Wavelength(nm)             Reflectance(%)
200.29               0
200.75        15.43925
201.21        46.51767
201.67        69.85439
202.13        80.30698
202.58         82.7766
203.04        81.47702
203.50         78.6319
203.96        77.14783
204.42        77.67311
204.88        79.06942
205.34        80.77298
205.80        82.61514
206.26        84.65629
206.72        87.22997
207.18        90.51534
207.64        92.28667
208.10        90.86292
208.55        88.61685
209.01         85.5858
209.47        80.84928
209.93        72.16824
210.39        51.40474
210.85       -9.794324
211.31       -82.47935
211.77        6.305324
212.23        63.60859
212.69        83.71696
213.14        90.06295
213.60        89.83242
214.06        85.21568
214.52        73.21528
214.98        56.01762
215.44        46.26195
215.90        43.61266
216.36        45.26597
216.81        49.33767
217.27        54.72522
217.73        62.26739
218.19        69.61977
218.65        72.10065
219.11        68.37314
219.57        58.95021
220.02        46.99116
220.48        42.17161
220.94        47.27597
221.40        58.01478
221.86        68.91586
222.32        74.76982
222.77        75.59106
223.23        73.74137
223.69        71.01324
224.15        69.02414
224.61        68.02686
225.06         67.2304
225.52        66.55082
225.98        65.65339
226.44        64.62339
226.90        63.71448
227.36        62.98455
227.81        62.28209
228.27        61.51743
228.73        60.56024
229.19        59.17791
229.65        57.11489
230.10        54.51864
230.56        52.03861
231.02        50.00946
231.48        48.91255
231.93        48.70808
232.39        49.16253
232.85        50.33429
233.31         52.3563
233.77        54.99043
234.22        58.15053
234.68        60.84435
235.14        61.82729
235.60        60.97349
236.05        58.41141
236.51        55.48672
236.97        55.27572
237.43        58.81699
237.88        65.26779
238.34        71.95938
238.80        76.22295
239.26         77.5329
239.71        76.08947
240.17        71.84454
240.63        69.08693
241.08        71.78154
241.54        76.90162
242.00        81.15198
242.46        83.26686
242.91        83.88875
243.37        83.39525
243.83        82.35918
244.28        84.68171
244.74        93.53693
245.20        102.5167
245.66        106.9481
246.11        108.7489
246.57        109.7136
247.03        109.5485
247.48        108.4697
247.94        107.6719
248.40        108.3864
248.85        110.3971
249.31        112.3327
249.77        112.4006
250.22        111.0239
250.68        109.3931
251.14        108.1377
251.59        107.8654
252.05        108.6947
252.51        110.2421
252.96        112.0275
253.42          112.75
253.88          111.47
254.33        109.2522
254.79        107.3457
255.25        105.2243
255.70        102.7002
256.16        100.5656
256.62        99.32426
257.07        99.64832
257.53        101.4486
257.99        103.3418
258.44        104.0906
258.90        103.3736
259.35        100.9602
259.81         98.0983
260.27        95.09681
260.72        92.42868
261.18        90.67382
261.63         89.1555
262.09        88.04971
262.55        86.92809
263.00        85.59081
263.46        84.34489
263.91        83.03139
264.37         81.9754
264.83        81.07298
265.28        80.17827
265.74        79.30245
266.19         78.0931
266.65        76.64366
267.11        74.98109
267.56        73.22076
268.02        71.68762
268.47        70.40256
268.93        69.30845
269.38        68.31419
269.84        67.32477
270.30        66.28413
270.75         65.2287
271.21        64.12916
271.66        62.86044
272.12        61.45488
272.57        59.89839
273.03        58.37406
273.48        57.06505
273.94        56.07779
274.39         55.2804
274.85        54.59631
275.31        53.78039
275.76        52.75112
276.22        51.63716
276.67        50.46398
277.13        49.42202
277.58        48.47672
278.04        47.66092
278.49        46.83967
278.95        45.98226
279.40        45.02258
279.86        44.07466
280.31        43.19593
280.77         42.6277
281.22        42.31924
281.68        42.23764
282.13        42.17383
282.59        41.93675
283.04        41.45444
283.50        40.83801
283.95        40.18556
284.41        39.71841
284.86        39.46564
285.32        39.39625
285.77        39.40495
286.22        39.40484
286.68        39.38475
287.13        39.32708
287.59        39.30793
288.04         39.3409
288.50        39.46107
288.95        39.60387
289.41        39.73986
289.86        39.76057
290.32        39.69425
290.77        39.58038
291.22        39.51292
291.68         39.6128
292.13        39.91182
292.59          40.421
293.04        41.12341
293.50        42.02066
293.95        43.08627
294.40        44.32589
294.86        45.73021
295.31        47.27092
295.77        48.93623
296.22        50.69126
296.68        52.49876
297.13        54.27113
297.58        55.98054
298.04         57.6419
298.49        59.27428
298.95        60.98464
299.40        62.79108
299.85        64.68317
300.31        66.66984
300.76        68.68697
301.21        70.70906
301.67        72.77088
302.12        74.77314
302.58        76.68645
303.03        78.47413
303.48        80.18507
303.94        81.97307
304.39        83.96509
304.84        86.20489
305.30        88.63857
305.75        91.06106
306.20        93.27771
306.66         95.2625
307.11        97.02695
307.57        98.69473
308.02        100.3145
308.47        101.9364
308.93        103.5344
309.38        105.0509
309.83        106.5315
310.29        107.9975
310.74        109.4206
311.19        110.7763
311.65        111.9833
312.10        112.9877
312.55         113.821
313.00        114.5498
313.46        115.2902
313.91         116.059
314.36        116.8519
314.82         117.616
315.27        118.2573
315.72         118.756
316.18        119.1578
316.63        119.5185
317.08        119.9677
317.53        120.5307
317.99        121.1586
318.44         121.776
318.89        122.2338
319.35        122.4981
319.80        122.6311
320.25        122.7111
320.70        122.8734
321.16        123.1432
321.61        123.4925
322.06        123.8773
322.51         124.239
322.97        124.5293
323.42        124.8107
323.87        125.0407
324.32        125.1722
324.78        125.1907
325.23        125.1604
325.68        125.1316
326.13        125.2259
326.59        125.4474
327.04        125.8185
327.49        126.2704
327.94        126.7265
328.39        127.1511
328.85        127.5168
329.30        127.8895
329.75        128.1902
330.20        128.4147
330.66        128.5392
331.11        128.6774
331.56        128.8821
332.01        129.1895
332.46        129.5861
332.92        130.0076
333.37        130.5168
333.82        131.0347
334.27        131.5598
334.72         132.071
335.17        132.5389
335.63        132.9252
336.08        133.2973
336.53        133.6337
336.98        133.9583
337.43         134.289
337.88         134.631
338.34         134.986
338.79        135.4206
339.24        135.9153
339.69        136.4492
340.14        137.0014
340.59        137.5329
341.05        138.0311
341.50         138.527
341.95        138.9737
342.40         139.319
342.85        139.5671
343.30        139.7142
343.75        139.8891
344.20        140.3031
344.66        140.9763
345.11        141.8253
345.56        142.6134
346.01        142.9567
346.46        142.7922
346.91        142.2705
347.36        141.6485
347.81        141.3208
348.26        141.3893
348.72        141.7275
349.17        142.1972
349.62        142.6028
350.07        142.8546
350.52        143.0094
350.97        143.0449
351.42        142.9195
351.87        142.6464
352.32         142.234
352.77         141.753
353.22        141.3308
353.67        140.9911
354.13        140.7007
354.58        140.4019
355.03        140.0618
355.48        139.6499
355.93        139.1852
356.38        138.5999
356.83        137.7832
357.28        136.7453
357.73         135.548
358.18        134.3394
358.63         133.347
359.08        132.6245
359.53        132.1042
359.98        131.6844
360.43        131.1985
360.88        130.5805
361.33        129.8615
361.78        129.0634
362.23        128.2159
362.68        127.3325
363.13        126.4213
363.58        125.4759
364.03        124.3798
364.48        123.3321
364.93        122.2185
365.38        121.1334
365.83         120.125
366.28        119.2035
366.73        118.3422
367.18        117.5251
367.63        116.7278
368.08        115.9363
368.53         115.165
368.98        114.3711
369.43        113.4855
369.88        112.5073
370.33        111.4571
370.78        110.4381
371.23        109.6222
371.68         109.037
372.13        108.6195
372.58        108.2469
373.03        107.7168
373.48        106.9751
373.93        106.0929
374.38        105.1376
374.83        104.2144
375.28        103.3677
375.72        102.5479
376.17        101.8117
376.62        101.1774
377.07        100.6323
377.52        100.1526
377.97        99.68478
378.42        99.13996
378.87        98.50079
379.32        97.81123
379.77        97.07236
380.22        96.28268
380.67        95.46015
381.11        94.60877
381.56        93.82928
382.01        93.30075
382.46        93.05679
382.91        93.04926
383.36        93.10625
383.81        92.95267
384.26        92.52464
384.71        91.89446
385.15        91.20493
385.60        90.75201
386.05        90.57265
386.50        90.56728
386.95        90.58855
387.40        90.41719
387.85        90.00951
388.29        89.40453
388.74        88.80325
389.19         88.2732
389.64        87.82896
390.09        87.40294
390.54        86.98363
390.98        86.54369
391.43        86.14182
391.88        85.80099
392.33        85.43896
392.78        85.03453
393.23        84.62399
393.67        83.94527
394.12        83.21572
394.57        83.53519
395.02        83.53824
395.47         83.5256
395.91        83.12294
396.36        82.92893
396.81        82.95685
397.26        82.87292
397.71        82.67201
398.15        82.48189
398.60        82.39333
399.05        82.17608
399.50        81.90073
399.95        81.93085
400.39        82.14675
400.84        81.90549
401.29        81.24655
401.74        80.65426
402.18        80.27028
402.63        80.09182
403.08         80.0803
403.53         79.9679
403.97        79.73777
404.42        79.63557
404.87        79.60349
405.32        79.50701
405.76        79.32153
406.21        78.92188
406.66        78.47224
407.11        78.54143
407.55        78.99554
408.00        79.10698
408.45        78.78451
408.90        78.01862
409.34        77.13554
409.79        77.16595
410.24        77.92282
410.68        78.11989
411.13        77.67336
411.58        77.38071
412.03        77.32021
412.47        77.24345
412.92        77.14145
413.37          77.104
413.81        77.08586
414.26        77.07396
414.71         77.0407
415.15        77.00678
415.60        76.94877
416.05        76.90267
416.49         76.8819
416.94        76.86047
417.39        76.84592
417.83        76.84856
418.28        76.85913
418.73        76.86036
419.17        76.84484
419.62        76.80368
420.07        76.74445
420.51        76.67616
420.96        76.59682
421.41        76.48238
421.85        76.30952
422.30        76.03816
422.74        75.75439
423.19        75.90627
423.64        76.40838
424.08        76.75562
424.53        76.75182
424.98        76.76086
425.42        76.80215
425.87        76.34063
426.31        75.64146
426.76        75.86274
427.21        76.79297
427.65        76.82223
428.10        76.02335
428.54         75.7952
428.99         76.1974
429.44        76.57892
429.88        76.73935
430.33        76.51177
430.77         76.0059
431.22        75.81503
431.66        76.01397
432.11        76.42644
432.56        76.89558
433.00        77.03049
433.45        76.75455
433.89        75.60928
434.34        76.95261
434.78        75.45991
435.23        75.69415
435.67        76.25227
436.12        77.19894
436.57        77.23863
437.01        76.32153
437.46        75.95284
437.90        76.74029
438.35        76.63299
438.79        76.94078
439.24        76.85896
439.68        76.80264
440.13         76.6755
440.57        76.56519
441.02        76.90594
441.46        77.48943
441.91        77.39578
442.35        76.74286
442.80        76.91144
443.24         77.6945
443.69        77.67959
444.13        76.94672
444.58        76.70972
445.02        76.97166
445.47        77.18776
445.91        77.28188
446.36        77.35183
446.80         77.3447
447.24        77.52368
447.69        77.31625
448.13        77.49892
448.58        77.80761
449.02        77.78322
449.47        77.49144
449.91        77.39315
450.36         77.5371
450.80        77.62825
451.25        77.65417
451.69        77.69615
452.13        77.72823
452.58        77.66058
453.02        77.50877
453.47        77.34034
453.91        77.16201
454.36        77.06922
454.80        76.96651
455.24        76.57351
455.69        76.05395
456.13        75.65826
456.58        75.50957
457.02        75.85815
457.46        76.38863
457.91        76.16798
458.35        75.54493
458.79        75.27488
459.24        75.50804
459.68        75.49801
460.13        75.15446
460.57        75.35892
461.01        75.18771
461.46        74.68924
461.90        74.18123
462.34        74.81687
462.79        74.54892
463.23        74.58717
463.68        74.31306
464.12        74.08133
464.56        73.97936
465.01        74.13578
465.45        74.35446
465.89        74.44157
466.34        74.39704
466.78        73.93764
467.22        73.24231
467.67        73.67101
468.11        74.01478
468.55         74.0049
468.99        73.35763
469.44        73.09496
469.88        73.24269
470.32        73.23184
470.77        73.04076
471.21        72.90041
471.65        72.81374
472.10        72.73895
472.54         72.6563
472.98        72.59957
473.42        72.57607
473.87        72.51923
474.31        72.42557
474.75        72.57249
475.20        72.81505
475.64        72.73429
476.08        72.41068
476.52         72.1654
476.97        71.95357
477.41        72.63865
477.85        72.07794
478.29        72.21144
478.74         72.0825
479.18        71.66718
479.62        71.84251
480.06        71.80196
480.50        71.86555
480.95        71.98071
481.39         72.0209
481.83        72.20302
482.27        72.16716
482.72        71.58467
483.16        71.66094
483.60        71.49578
484.04         71.5258
484.48         71.5563
484.93        71.72186
485.37        71.99654
485.81        72.63126
486.25        72.46539
486.69        72.88605
487.14        71.91623
487.58        71.40979
488.02        72.09304
488.46        71.96689
488.90         71.8149
489.34        71.21429
489.79        70.50248
490.23        71.32022
490.67        71.36164
491.11        71.09497
491.55        70.93571
491.99        70.92445
492.43        70.89968
492.88        70.84345
493.32        70.82372
493.76        70.80908
494.20        70.81534
494.64        70.85205
495.08        70.82642
495.52        70.79478
495.96        70.97975
496.41        71.27344
496.85        71.29362
497.29        71.11691
497.73        70.71211
498.17        71.22793
498.61        71.23701
499.05         71.0452
499.49        70.96029
499.93        71.01751
500.37        70.85302
500.82        70.49145
501.26        70.56528
501.70        71.23644
502.14        70.46156
502.58        70.81911
503.02        70.73373
503.46        70.66586
503.90        70.60218
504.34        70.48241
504.78        70.44085
505.22        70.41465
505.66        70.35003
506.10        70.33552
506.54        70.29272
506.98         70.1507
507.42        70.87084
507.86        71.01604
508.30        70.49792
508.74        70.87836
509.18        70.59873
509.62        70.31833
510.06        70.12801
510.50        70.09141
510.94        70.13345
511.38        70.20523
511.82        70.27866
512.26        70.32495
512.70        70.36158
513.14        70.38076
513.58        70.33856
514.02        70.23355
514.46        70.12646
514.90        70.06013
515.34        69.85967
515.78        69.94319
516.22        69.96926
516.66        70.04721
517.10        70.14651
517.54        70.25255
517.98        70.36045
518.42        70.43726
518.86        70.44199
519.30        70.37038
519.74        70.23888
520.18        70.08151
520.62        69.96621
521.06        69.91533
521.50        69.89013
521.93        69.88216
522.37        69.98524
522.81        69.99236
523.25        70.06258
523.69        70.11553
524.13        70.12196
524.57        70.07555
525.01        69.98956
525.45        69.88502
525.89        69.79235
526.32        69.72034
526.76        69.67746
527.20        69.66366
527.64        69.68598
528.08        69.73839
528.52         69.8105
528.96        69.88842
529.40        69.94948
529.83        69.97859
530.27        69.99612
530.71         69.9819
531.15        69.91674
531.59        69.80687
532.03        69.66222
532.46         69.5276
532.90        69.49635
533.34        69.57625
533.78         69.7383
534.22        69.91906
534.66        70.02101
535.09        70.01159
535.53        69.93844
535.97        69.83173
536.41        69.75739
536.85        69.73557
537.28        69.74851
537.72        69.77577
538.16        69.77639
538.60        69.74341
539.04        69.70723
539.47        69.66545
539.91        69.65084
540.35         69.6501
540.79        69.66652
541.22        69.67609
541.66        69.65114
542.10        69.58562
542.54        69.49343
542.97        69.39501
543.41         69.3607
543.85         69.3892
544.29        69.46527
544.72        69.54666
545.16        69.60427
545.60        69.61025
546.04        69.56828
546.47        69.50327
546.91        69.46617
547.35          69.459
547.79        69.47747
548.22        69.47128
548.66        69.38269
549.10        69.22463
549.53        69.14574
549.97        69.17262
550.41        69.21513
550.84        69.26223
551.28        69.40601
551.72        69.60635
552.15        69.66134
552.59        69.50747
553.03        69.63364
553.46        69.13942
553.90        69.08171
554.34        69.16264
554.77         69.4731
555.21        69.92114
555.65        69.55444
556.08        69.65077
556.52        69.32249
556.96        69.05151
557.39        69.01134
557.83        69.18839
558.27        69.22458
558.70        69.09221
559.14        69.06487
559.57        69.11975
560.01        69.12195
560.45        69.05708
560.88        68.98972
561.32        68.97631
561.75        68.93034
562.19        68.89799
562.63        68.97618
563.06        69.11112
563.50        69.09392
563.93        68.93364
564.37        68.89219
564.80          68.961
565.24        69.05017
565.68         69.1348
566.11        69.21825
566.55        69.31716
566.98        69.39945
567.42          69.467
567.85        69.50865
568.29         69.5578
568.72        69.43488
569.16         69.2454
569.60        69.31121
570.03        69.64467
570.47        69.56071
570.90        69.90319
571.34         70.1538
571.77        70.08146
572.21        70.01681
572.64        70.16208
573.08        69.59772
573.51        69.43165
573.95        69.62983
574.38         70.2857
574.82        69.80653
575.25         69.8315
575.69          69.874
576.12        69.62604
576.56        69.90314
576.99        69.84621
577.42        69.87657
577.86        69.91156
578.29        70.22321
578.73        70.15514
579.16        70.07414
579.60        69.73402
580.03        69.58813
580.47        69.63601
580.90        69.78053
581.33        70.22988
581.77        70.29565
582.20         70.2224
582.64        70.28851
583.07        70.09987
583.51        69.87244
583.94        69.73186
584.37        69.64034
584.81        69.71148
585.24        69.92485
585.68        70.19462
586.11        70.30614
586.54        69.91173
586.98        69.58627
587.41        70.17554
587.85        69.62962
588.28        69.96501
588.71        69.54665
589.15        69.76398
589.58        69.70963
590.01        69.74593
590.45        69.77083
590.88        69.27062
591.31        69.21569
591.75        69.37828
592.18        69.25733
592.61        69.05247
593.05        69.21544
593.48        69.92308
593.91        69.73292
594.35        69.47437
594.78        69.58057
595.21        69.04757
595.65        69.44975
596.08        69.66113
596.51        69.44704
596.94        69.18204
597.38        69.12051
597.81        69.62885
598.24        68.93645
598.68        69.37076
599.11        69.34049
599.54        69.84109
599.97        69.37449
600.41        69.94006
600.84        69.89729
601.27        69.77899
601.70        69.49173
602.14         69.0276
602.57        69.24587
603.00          69.313
603.43        69.51212
603.87        69.48237
604.30        69.34894
604.73        69.21213
605.16        69.37236
605.60        69.34503
606.03         69.4622
606.46        69.47162
606.89        69.85169
607.32         69.3502
607.76        69.89634
608.19        69.47842
608.62        69.40234
609.05        69.17715
609.48        69.20492
609.92        69.35866
610.35        69.51411
610.78        69.46519
611.21        68.79946
611.64        69.30632
612.07        69.21338
612.50        69.05379
612.94         69.0265
613.37        69.20744
613.80        68.95592
614.23        69.18017
614.66        69.22661
615.09        69.29829
615.52        69.32931
615.96        69.36741
616.39        68.87785
616.82        69.10309
617.25        68.97144
617.68        68.81965
618.11        68.78572
618.54        68.89976
618.97        69.04424
619.40        69.10201
619.84        69.41504
620.27        69.20142
620.70        69.04664
621.13        68.78817
621.56        68.74944
621.99         69.0398
622.42        68.73775
622.85        68.59783
623.28        68.61574
623.71        69.06353
624.14        68.40102
624.57         68.6481
625.00         69.0232
625.43        68.51921
625.86        68.53274
626.29        68.59949
626.72        68.58728
627.15        68.59834
627.58        68.56998
628.01        68.75558
628.44        68.56226
628.87        68.87656
629.30        68.50646
629.73        68.91007
630.16         68.6195
630.59        68.57494
631.02        68.54239
631.45        68.68646
631.88        68.71782
632.31        68.59411
632.74        68.80981
633.17        68.70997
633.60        68.73735
634.03        68.69622
634.46        68.61938
634.89        68.53176
635.32        68.47694
635.75        68.47012
636.18        68.52593
636.61        68.60583
637.04        68.56668
637.47        68.43398
637.89        68.42113
638.32         68.5089
638.75        68.53625
639.18        68.48952
639.61        68.51118
640.04        68.57052
640.47         68.5714
640.90        68.48235
641.33        68.67652
641.76         68.4722
642.18        68.55597
642.61        68.45712
643.04        68.40662
643.47        68.34339
643.90        68.31441
644.33        68.33234
644.76        68.38624
645.18        68.44885
645.61        68.46002
646.04        68.40644
646.47        68.29388
646.90        68.17555
647.33        68.13363
647.75        68.19373
648.18         68.3589
648.61        68.53421
649.04        68.57157
649.47         68.4637
649.89        68.19881
650.32        67.92226
650.75        68.05064
651.18        68.49114
651.61        68.68137
652.03        68.54351
652.46        68.31476
652.89        68.18668
653.32        68.09418
653.74        68.39265
654.17        68.70729
654.60         68.5996
655.03        67.94292
655.46        68.41733
655.88        68.85384
656.31        70.89326
656.74        73.65138
657.16        71.82121
657.59        70.12487
658.02        69.04629
658.45         69.2253
658.87        69.27851
659.30        69.13155
659.73        68.43199
660.15          68.659
660.58        68.05009
661.01        68.39495
661.44         68.9362
661.86        68.98995
662.29        68.55682
662.72        68.34149
663.14        68.43915
663.57        68.54028
664.00        68.61562
664.42        68.62615
664.85        68.55797
665.27        68.61792
665.70        68.54341
666.13        68.53183
666.55         68.5078
666.98        68.47622
667.41        68.44776
667.83        68.44251
668.26        68.46001
668.69        68.50729
669.11        68.55882
669.54        68.58897
669.96        68.60345
670.39        68.52256
670.82        68.41385
671.24        68.57143
671.67        68.91791
672.09        68.97765
672.52        68.78625
672.94        68.73421
673.37        68.83425
673.80         68.8289
674.22        68.73294
674.65        68.66019
675.07        68.63802
675.50        68.62463
675.92         68.6312
676.35        68.63398
676.77          68.629
677.20        68.75268
677.62        68.76693
678.05        68.84201
678.47        68.89716
678.90        68.94503
679.32        68.97744
679.75        69.00119
680.17        69.02097
680.60        69.04768
681.02        69.04996
681.45        68.99262
681.87        68.89317
682.30         68.6516
682.72        68.38629
683.15        68.52756
683.57         68.9971
684.00        69.12768
684.42        68.92326
684.85        68.93919
685.27        69.16568
685.70        69.25486
686.12         69.2113
686.54        69.24022
686.97        69.33527
687.39        69.42814
687.82        69.46255
688.24        69.29528
688.66        69.27277
689.09         68.8074
689.51        68.68931
689.94        68.59022
690.36         68.7207
690.78        69.01028
691.21        69.35126
691.63        69.55183
692.06        69.55847
692.48        69.43223
692.90        69.24474
693.33        69.09935
693.75        69.03769
694.17        69.03178
694.60         69.0509
695.02        69.09083
695.44        69.13248
695.87        69.14874
696.29        69.15781
696.71        69.27795
697.14        69.44662
697.56        69.44583
697.98        69.29468
698.41        69.26985
698.83        69.36225
699.25        69.44135
699.68        69.47935
700.10        69.54977
700.52        69.63476
700.94        69.72141
701.37        69.76276
701.79         69.7206
702.21         69.5756
702.64        69.36451
703.06        69.15145
703.48        69.05549
703.90        69.10709
704.33        69.26563
704.75        69.47421
705.17        69.61401
705.59        69.64979
706.01        69.58824
706.44        69.48125
706.86        69.54228
707.28        69.59824
707.70        69.76528
708.12        69.93626
708.55        70.01665
708.97        69.98521
709.39        69.90338
709.81        69.81317
710.23        69.76469
710.66        69.77842
711.08        69.86151
711.50         69.9609
711.92        70.01108
712.34        69.99741
712.76        69.93926
713.19        69.86411
713.61        69.86394
714.03        69.93694
714.45        70.06001
714.87        70.19169
715.29        70.26984
715.71        70.27894
716.13        70.23644
716.56        70.16234
716.98        70.16697
717.40        70.24725
717.82        70.38045
718.24         70.5231
718.66         70.6073
719.08        70.61398
719.50        70.56026
719.92        70.48661
720.34        70.45668
720.76        70.48594
721.19        70.54955
721.61        70.62044
722.03        70.61128
722.45        70.50565
722.87        70.35342
723.29        70.22243
723.71        70.09996
724.13        70.20049
724.55        70.34609
724.97        70.53103
725.39        70.64942
725.81        70.67278
726.23        70.62284
726.65         70.5561
727.07        70.56792
727.49        70.67982
727.91        70.86473
728.33        71.05161
728.75        71.12501
729.17        71.05896
729.59        70.88845
730.01        70.70435
730.43        70.65307
730.85        70.76132
731.27        70.97395
731.69        71.20134
732.10        71.30585
732.52         71.2411
732.94         71.1075
733.36        70.96867
733.78         70.8229
734.20        70.68573
734.62        71.02891
735.04        70.72001
735.46        71.09521
735.88        71.63645
736.30        71.51409
736.72         70.8403
737.13        70.62767
737.55        70.92509
737.97        71.14925
738.39        71.22372
738.81        71.29695
739.23        71.35337
739.65        71.39928
740.06        71.40414
740.48        71.37071
740.90        71.27039
741.32        71.20265
741.74        71.09005
742.16        71.06748
742.57        71.12325
742.99        71.23888
743.41        71.37495
743.83        71.44643
744.25        71.43397
744.67        71.35133
745.08        71.26764
745.50        71.25665
745.92        71.35038
746.34        71.52146
746.75         71.6888
747.17        71.72146
747.59        71.59599
748.01        71.34586
748.42        71.07981
748.84        70.97406
749.26        71.04739
749.68        71.24512
750.09        71.47788
750.51        71.51334
750.93        71.39845
751.35        71.53194
751.76        71.85159
752.18        71.90168
752.60        71.66902
753.01        71.41574
753.43        71.21754
753.85        71.13664
754.27        71.20707
754.68        71.40447
755.10        71.66971
755.52        71.90219
755.93        72.07761
756.35         72.2226
756.77        72.28098
757.18        72.34984
757.60        72.48674
758.02        72.23232
758.43        71.62702
758.85        72.41542
759.26        72.60988
759.68        72.29119
760.10        72.50092
760.51        71.86186
760.93        71.64352
761.34        71.99794
761.76        72.54068
762.18        72.95779
762.59        72.98123
763.01        72.67892
763.42        72.26818
763.84        72.07054
764.26        72.21088
764.67        72.59161
765.09        73.02734
765.50        73.03485
765.92        72.65023
766.33        72.27084
766.75        72.00439
767.16        71.86217
767.58        71.84549
768.00        72.24776
768.41        72.87072
768.83        72.80382
769.24        72.18452
769.66        72.07629
770.07        72.45145
770.49         72.6332
770.90        72.57133
771.32        72.49567
771.73        72.46229
772.15        72.48499
772.56        72.58085
772.97        72.72118
773.39        72.83383
773.80         72.8712
774.22        72.70966
774.63        72.88468
775.05         73.2556
775.46        73.40014
775.88        73.24728
776.29        73.08637
776.70        72.96137
777.12        72.83398
777.53        72.75585
777.95        72.73347
778.36        72.77051
778.77        72.84479
779.19        72.94386
779.60        73.07127
780.02        73.22403
780.43        73.40963
780.84        73.59962
781.26        73.80961
781.67        74.03756
782.09        74.04774
782.50        73.81832
782.91        74.04692
783.33         73.7413
783.74        73.68832
784.15        73.59647
784.57        73.46762
784.98         73.3578
785.39        73.49769
785.81        73.81791
786.22        73.93235
786.63        73.82983
787.04        73.83227
787.46        73.95906
787.87        74.00268
788.28         73.9634
788.70         73.9722
789.11        74.02398
789.52        73.97598
789.93        73.89488
790.35        74.14075
790.76        74.62342
791.17         74.6897
791.58        74.35955
792.00        74.22865
792.41        74.34529
792.82        74.31555
793.23         74.2069
793.65         74.3223
794.06        74.68826
794.47        75.19009
794.88        75.62231
795.29        75.73514
795.71        75.56647
796.12        74.99467
796.53        74.27233
796.94        74.20441
797.35        74.76303
797.76        74.98246
798.18        74.80186
798.59        74.87297
799.00        75.17911
799.41        75.28205
799.82        75.17303
800.23        75.09028
800.64        75.05145
801.06        74.95699
801.47        74.85759
801.88        74.76176
802.29        74.68488
802.70        74.66106
803.11        74.67371
803.52        74.67287
803.93        74.64668
804.34         74.5964
804.75        74.60161
805.17        74.73903
805.58        75.03427
805.99        75.55316
806.40        76.11526
806.81          76.102
807.22         75.6054
807.63         75.4141
808.04        75.57882
808.45        75.55562
808.86        75.34943
809.27        75.33726
809.68         75.4996
810.09        75.59045
810.50        75.58254
810.91        75.55485
811.32        75.51862
811.73        75.50114
812.14         75.5144
812.55        75.48837
812.96        75.43784
813.37        75.51518
813.78        75.67207
814.19          75.647
814.60        75.46721
815.01        75.39342
815.42        75.44262
815.83        75.46669
816.24        75.46953
816.65        75.53398
817.05        75.66531
817.46        75.80134
817.87        75.93712
818.28          76.016
818.69        76.02596
819.10        75.97927
819.51        75.91614
819.92        75.90736
820.33        75.97347
820.74        76.09471
821.14        76.21519
821.55        76.28368
821.96        76.26737
822.37        76.18523
822.78        76.08581
823.19        76.05379
823.60        76.11486
824.00        76.26764
824.41        76.40811
824.82        76.45869
825.23        76.39951
825.64        76.26567
826.04        76.15034
826.45         76.1653
826.86         76.3468
827.27        76.64633
827.68        76.98254
828.08        77.25306
828.49        77.34771
828.90        77.33931
829.31        77.26136
829.72        77.17542
830.12        77.13186
830.53        77.06004
830.94        76.99345
831.35        76.95428
831.75        76.96672
832.16        76.98737
832.57        77.00307
832.97        76.94519
833.38        76.79757
833.79        76.59772
834.20         76.3998
834.60        76.27827
835.01        76.26295
835.42         76.3193
835.82        76.44616
836.23        76.55773
836.64        76.65337
837.04        76.77177
837.45         76.8531
837.86        76.89832
838.26         76.9278
838.67        76.93604
839.08        76.96849
839.48        77.08694
839.89        77.29688
840.29        77.55492
840.70        77.85321
841.11        78.18634
841.51        78.54464
841.92        78.88464
842.33        79.11204
842.73        79.06709
843.14        78.69064
843.54        78.08863
843.95        77.44105
844.35        77.06153
844.76        77.02407
845.17        77.24366
845.57        77.62098
845.98        77.93396
846.38        78.12449
846.79        78.22901
847.19        78.24399
847.60        78.11061
848.00         77.8645
848.41        77.47047
848.81        77.07904
849.22         76.8732
849.62        76.93406
850.03        77.19865
850.43        77.53894
850.84        77.64899
851.24        77.50916
851.65        77.13264
852.05        76.75417
852.46        76.68192
852.86        76.98514
853.27        77.54499
853.67        78.06364
854.07        78.33945
854.48        78.28661
854.88        78.02639
855.29        77.58066
855.69        77.21967
856.10        76.94769
856.50        76.78268
856.90        76.67308
857.31        76.56893
857.71        76.49823
858.12        76.44017
858.52        76.42093
858.92        76.33969
859.33        76.16209
859.73        75.93739
860.13        75.69736
860.54        75.53574
860.94        75.52055
861.34        75.59535
861.75        75.67204
862.15        75.67523
862.55        75.55109
862.96        75.33251
863.36        75.07317
863.76        74.84781
864.17        74.67833
864.57         74.5654
864.97        74.47923
865.38        74.35105
865.78        74.21265
866.18        74.05975
866.58        73.92457
866.99        73.87425
867.39         73.9547
867.79        74.11024
868.19        74.27891
868.60        74.33591
869.00        74.24583
869.40        74.06604
869.80         73.8699
870.21         73.8037
870.61        73.97927
871.01        74.27563
871.41        74.59798
871.81        74.81821
872.22          74.875
872.62        74.83234
873.02        74.73637
873.42        74.66276
873.82        74.64837
874.22        74.68764
874.63        74.76128
875.03        74.80878
875.43        74.83276
875.83        74.84208
876.23        74.90182
876.63        75.11567
877.03        75.48228
877.44        75.93871
877.84        76.34782
878.24        76.45554
878.64         76.2113
879.04        75.71069
879.44        75.12054
879.84        74.67002
880.24         74.4166
880.64        74.30556
881.04        74.27145
881.44         74.1992
881.84        74.05096
882.24        73.86095
882.65        73.65794
883.05        73.58661
883.45        73.63047
883.85        73.75627
884.25        73.88121
884.65        73.88673
885.05        73.75883
885.45        73.54169
885.85        73.34438
886.25        73.35126
886.65        73.60667
887.05         74.0437
887.45        74.53711
887.85        74.90685
888.25        75.08627
888.65        75.09038
889.04        74.98185
889.44        74.91373
889.84        74.90115
890.24        74.91412
890.64        74.83163
891.04        74.46231
891.44        73.81764
891.84        73.02538
892.24         72.3144
892.64        72.02438
893.04        72.23235
893.44        72.81328
893.83        73.63535
894.23        74.41741
894.63        75.05555
895.03        75.57545
895.43        75.91856
895.83        76.00432
896.23        75.84722
896.63        75.49014
897.02        75.02896
897.42        74.65976
897.82        74.42977
898.22        74.31187
898.62        74.33311
899.01        74.52936
899.41        74.85606
899.81        75.30607
900.21        75.74793
900.61        75.96051
901.00        75.88696
901.40        75.60715
901.80        75.23918
902.20        74.99862
902.59         74.9623
902.99        75.05101
903.39        75.24821
903.79        75.50246
904.18        75.77062
904.58        76.08207
904.98        76.36004
905.38        76.49859
905.77        76.47005
906.17        76.28001
906.57        76.03235
906.96        75.94122
907.36        76.02866
907.76        76.27344
908.15         76.4976
908.55        76.32356
908.95        75.72317
909.34        74.80151
909.74        73.91419
910.14        73.54314
910.53         73.8028
910.93        74.54247
911.33        75.43526
911.72        75.91972
912.12        75.83218
912.52        75.36649
912.91        74.81924
913.31        74.65066
913.70         74.9513
914.10        75.56334
914.49        76.29214
914.89        76.72498
915.29        76.74506
915.68        76.47192
916.08        76.09365
916.47        75.89277
916.87        75.96914
917.26        76.21985
917.66        76.51908
918.05        76.64236
918.45        76.52736
918.84        76.26675
919.24        75.98656
919.64        75.96663
920.03        76.27895
920.42        76.83029
920.82        77.39705
921.21        77.62946
921.61        77.43326
922.00        76.90346
922.40        76.31374
922.79         76.2263
923.19        76.71999
923.58        77.65157
923.98        78.54865
924.37        78.75684
924.77        78.13094
925.16        76.85644
925.55        75.41203
925.95        74.62277
926.34        74.73315
926.74        75.50132
927.13        76.49541
927.52        76.91784
927.92         76.6144
928.31         75.8442
928.70        75.03938
929.10         74.8482
929.49        75.41056
929.89        76.43512
930.28        77.64274
930.67        78.43213
931.07        78.57246
931.46        78.28927
931.85        77.68031
932.24           76.93
932.64        76.16325
933.03        75.34734
933.42        74.66005
933.82        74.39021
934.21        74.59214
934.60        75.21447
934.99        76.03642
935.39        76.62834
935.78        76.88848
936.17        76.89123
936.56        76.76662
936.96        76.75465
937.35        76.97508
937.74        77.29544
938.13        77.62972
938.53        77.87877
938.92        78.01062
939.31        78.04922
939.70        78.03353
940.09        78.01058
940.49        77.97427
940.88        77.96308
941.27        77.89468
941.66        77.64735
942.05        77.23123
942.44        76.71432
942.84        76.28835
943.23        76.21057
943.62        76.54981
944.01        77.18633
944.40        77.93446
944.79        78.45533
945.18        78.61102
945.57        78.49799
945.97        78.10672
946.36        77.50009
946.75        76.71409
947.14        75.74472
947.53        74.82133
947.92        74.35234
948.31        74.44125
948.70        75.00253
949.09         75.7402
949.48        76.15689
949.87        76.13775
950.26        75.82697
950.65        75.45375
951.04        75.40295
951.43        75.76154
951.82        76.35786
952.21         77.0288
952.60        77.50867
952.99        77.67775
953.38        77.62548
953.77        77.34318
954.16         76.8061
954.55        76.06082
954.94        75.13422
955.33        74.19991
955.72        73.55201
956.11        73.27921
956.50        73.33948
956.89        73.60465
957.28        73.80631
957.66        73.87826
958.05        73.87174
958.44        73.85313
958.83        73.93567
959.22        74.12866
959.61        74.31596
960.00        74.49599
960.39        74.69279
960.78        74.88052
961.16        75.10681
961.55        75.12591
961.94        74.63792
962.33        73.64133
962.72        72.30577
963.11        71.04123
963.49        70.42641
963.88        70.58723
964.27        71.38915
964.66        72.52097
965.04        73.40842
965.43         73.7617
965.82        73.76238
966.21        73.65843
966.60        73.87417
966.98        74.50801
967.37          75.335
967.76        76.15125
968.15        76.56532
968.53         76.4622
968.92         76.0304
969.31        75.37241
969.69        74.60007
970.08        73.80222
970.47        72.95553
970.86        72.40742
971.24        72.75774
971.63        73.97701
972.02        75.82647
972.40        77.70025
972.79        78.63207
973.17        78.54758
973.56        77.62934
973.95        76.37681
974.33        75.67172
974.72        75.78223
975.11        76.43169
975.49        77.23403
975.88        77.56462
976.26        77.24587
976.65        76.50269
977.04        75.54035
977.42        74.66138
977.81        73.96725
978.19        73.34423
978.58        73.00821
978.96        73.27936
979.35         74.1433
979.74        75.54927
980.12         77.0714
980.51        77.78268
980.89        77.58849
981.28        76.59131
981.66         75.3343
982.05        74.86974
982.43        75.47819
982.82        76.78315
983.20        78.25658
983.59        78.91196
983.97        78.60641
984.35        77.60735
984.74        76.28242
985.12        75.27791
985.51        74.84281
985.89        74.80858
986.28        75.04369
986.66        75.43541
987.04        75.87572
987.43        76.38129
987.81        76.90294
988.20        77.22878
988.58        77.33926
988.96        77.23967
989.35         76.8919
989.73        76.36517
990.12        75.64745
990.50        74.69562
990.88        73.72288
991.27        73.23919
991.65        73.42433
992.03        74.17804
992.42        74.94729
992.80        75.25446
993.18        74.91315
993.56        74.02796
993.95        72.97858
994.33        72.58626
994.71        73.21546
995.10        74.34992
995.48        75.51941
995.86        76.20284
996.24        76.34618
996.63        76.06983
997.01        75.52486
997.39        74.91393
997.77        74.42256
998.15        74.07032
998.54        73.79041
998.92         73.4777
999.30         73.1248
999.68        72.81776
1000.06        72.82755
1000.45         73.5333
1000.83         74.9803
1001.21        76.81614
1001.59        78.60772
1001.97        79.79433
1002.35         80.2472
1002.73        80.16538
1003.12        79.44533
1003.50        77.94123
1003.88        75.94377
1004.26        73.63436
1004.64        71.82648
1005.02        71.45897
1005.40         72.5562
1005.78        74.93938
1006.16        77.60079
1006.54        78.65839
1006.92        77.58395
1007.30        74.84608
1007.69        71.78391
1008.07         70.5954
1008.45        71.89634
1008.83        74.93238
1009.21        78.32778
1009.59        80.14715
1009.97        79.85717
1010.35         77.8032
1010.73         74.8271
1011.11        73.09252
1011.49        73.63891
1011.86        75.93043
1012.24        78.40381
1012.62        79.14265
1013.00        77.85368
1013.38        75.28484
1013.76        72.61322
1014.14        71.74323
1014.52        73.24099
1014.90        76.49807
1015.28        80.65148
1015.66        83.91671
1016.04        85.45299
1016.41        85.83856
1016.79        85.18796
1017.17        84.11572
1017.55        82.93503
1017.93        81.44366
1018.31        80.13772
1018.69        79.84717
1019.06        80.78694
1019.44        82.93826
1019.82        85.53642
1020.20        86.79387
1020.58        86.11012
1020.95        83.95692
1021.33        81.51225
1021.71        80.25069
1022.09        80.38297
1022.46        81.41051
1022.84        82.61864
1023.22        82.59347
1023.60        80.82498
1023.97        77.44303
1024.35        73.31423
1024.73        70.24844
