SpectraSmart Spectrum 2.9.0.0
--------- Device Information -----------
Spectrum Name :  反射率_0
Saving Time :  2024/04/27 23:49:38
Spectro-Module Model Name : SE2030-DUVN
Spectro-Module Serial Number : OS361AC55029948
Wavelength Start : 200
Wavelength End : 1025
Wavelength Unit : Wavelength(nm)
Spectrum Unit : Reflectance(%)
-----------Spectrum Setting ------------
Integration Time : 20ms
Average : 10
Boxcar : 0
Background removal :  enabled
linearity correction :  enabled
SC :  disabled
Intensity correction :  disabled
DWT denoise :  enabled
savitzky-golay :  disabled
FFT :  disabled
Running average :  disabled
Kalman :  disabled
High pass :  disabled
---------------BEGIN--------------------
Wavelength(nm)             Reflectance(%)
200.29               0
200.75        93.09792
201.21        107.7445
201.67        112.6051
202.13        111.8625
202.58        108.0924
203.04        102.6849
203.50        96.19236
203.96        90.42564
204.42        86.49034
204.88        83.93124
205.34        83.01356
205.80        84.18491
206.26        87.38487
206.72         93.2211
207.18        101.2206
207.64        103.6637
208.10        96.83086
208.55         88.0554
209.01        80.43877
209.47        72.97375
209.93        62.20532
210.39        38.09695
210.85       -29.95741
211.31       -101.1112
211.77        4.689301
212.23        68.02235
212.69        88.96865
213.14        94.22136
213.60        91.36745
214.06        81.12894
214.52        60.03291
214.98        38.04062
215.44        34.10676
215.90        40.73403
216.36        48.72657
216.81        54.04577
217.27        57.05529
217.73        59.90032
218.19        62.20923
218.65        62.67892
219.11        61.07168
219.57        57.18015
220.02        52.16937
220.48        50.60168
220.94        53.42587
221.40        58.79412
221.86        64.20822
222.32         67.2709
222.77        68.00933
223.23         67.3914
223.69        66.28582
224.15         65.4803
224.61        65.05402
225.06        64.50619
225.52        63.81156
225.98        62.65771
226.44        61.26054
226.90        59.96114
227.36        58.76728
227.81        57.43488
228.27        55.84079
228.73        53.84527
229.19        51.50321
229.65        49.18428
230.10        47.16266
230.56        45.79456
231.02         44.8305
231.48        43.96278
231.93        43.07821
232.39        42.29762
232.85        42.06167
233.31        43.01355
233.77        45.07162
234.22        48.00027
234.68        50.72612
235.14         51.9519
235.60        51.51317
236.05        49.56872
236.51        47.46422
236.97        48.08452
237.43        52.30556
237.88        59.23387
238.34        66.19273
238.80        70.61296
239.26        72.03999
239.71        70.61353
240.17        66.36469
240.63        63.73024
241.08        66.68491
241.54        72.02757
242.00        76.38997
242.46        78.48524
242.91        78.89835
243.37        77.88241
243.83        75.18459
244.28        72.84511
244.74        75.38646
245.20         80.5391
245.66        83.68269
246.11        83.84466
246.57        81.57668
247.03        76.92148
247.48        69.24555
247.94        61.88754
248.40        60.49216
248.85        63.52786
249.31         69.9283
249.77        78.59318
250.22         87.3108
250.68        94.99577
251.14        100.4382
251.59        102.8887
252.05        102.7382
252.51        99.84102
252.96        93.29261
253.42          84.967
253.88        78.51569
254.33        75.24274
254.79        74.43066
255.25         73.8607
255.70        72.97038
256.16        72.58042
256.62          73.042
257.07         74.7281
257.53        77.32171
257.99        79.61974
258.44        80.60081
258.90        79.94627
259.35        77.62681
259.81        74.78369
260.27        71.79827
260.72        69.20078
261.18        67.48132
261.63        66.07038
262.09        65.09045
262.55        64.21548
263.00        63.27219
263.46        62.48896
263.91        61.67661
264.37        60.97938
264.83        60.31186
265.28        59.59446
265.74         58.9081
266.19        58.11055
266.65        57.26782
267.11        56.34714
267.56        55.33209
268.02        54.31852
268.47         53.2853
268.93        52.24284
269.38        51.20579
269.84         50.2294
270.30        49.31297
270.75        48.45256
271.21        47.58733
271.66        46.55914
272.12         45.3849
272.57         44.0899
273.03        42.84768
273.48        41.83604
273.94        41.14235
274.39        40.63631
274.85         40.2468
275.31        39.77742
275.76        39.15554
276.22        38.47962
276.67        37.73069
277.13        36.99803
277.58        36.25274
278.04        35.52938
278.49        34.79885
278.95        34.14853
279.40        33.53499
279.86        33.01374
280.31        32.51931
280.77        32.08149
281.22        31.65272
281.68        31.27653
282.13        30.92605
282.59          30.624
283.04         30.3443
283.50        30.09926
283.95        29.86443
284.41        29.65195
284.86        29.44765
285.32        29.27736
285.77        29.12884
286.22         29.0261
286.68        28.98452
287.13        28.95804
287.59        28.96898
288.04        28.97147
288.50        28.98613
288.95        28.99059
289.41        28.99955
289.86        28.98327
290.32        28.96841
290.77        28.96002
291.22        28.99427
291.68        29.11563
292.13          29.332
292.59        29.66022
293.04        30.09797
293.50        30.66311
293.95        31.34645
294.40        32.15808
294.86          33.086
295.31        34.10172
295.77        35.20237
296.22        36.36621
296.68        37.60969
297.13        38.92923
297.58        40.31174
298.04         41.7461
298.49        43.17544
298.95        44.56208
299.40        45.90744
299.85        47.24118
300.31        48.65614
300.76        50.23908
301.21        51.99322
301.67        53.87683
302.12        55.74623
302.58        57.47327
303.03        59.00476
303.48        60.42178
303.94        61.84526
304.39        63.37412
304.84        65.06669
305.30        66.88991
305.75        68.76131
306.20        70.64237
306.66        72.52306
307.11         74.3651
307.57        76.17464
308.02        77.84287
308.47        79.36636
308.93        80.76003
309.38        82.02464
309.83        83.26487
310.29        84.52945
310.74        85.78462
311.19        87.00507
311.65        88.11853
312.10        89.07794
312.55        89.91176
313.00        90.69788
313.46        91.56509
313.91         92.5201
314.36        93.53374
314.82         94.4898
315.27        95.19664
315.72        95.61745
316.18        95.83171
316.63        95.95955
317.08        96.22942
317.53        96.70013
317.99        97.29729
318.44         97.9356
318.89        98.44803
319.35        98.78577
319.80        99.01759
320.25        99.18864
320.70        99.37624
321.16        99.59871
321.61        99.83894
322.06        100.1008
322.51        100.4066
322.97        100.7357
323.42        101.1234
323.87        101.4967
324.32        101.7505
324.78        101.8514
325.23        101.8636
325.68        101.8586
326.13        101.9882
326.59        102.2639
327.04        102.6837
327.49        103.1505
327.94        103.5374
328.39        103.8034
328.85        103.9562
329.30        104.0894
329.75        104.2133
330.20        104.3521
330.66        104.4651
331.11        104.6372
331.56         104.891
332.01         105.244
332.46        105.6991
332.92        106.1699
333.37        106.6465
333.82        107.0503
334.27        107.3783
334.72        107.6873
335.17        108.0802
335.63        108.5541
336.08         109.142
336.53        109.7046
336.98         110.057
337.43        110.1704
337.88        110.1045
338.34        110.0381
338.79        110.3148
339.24        110.9855
339.69        111.9478
340.14         112.972
340.59        113.6818
341.05        113.9804
341.50        113.9947
341.95        113.8956
342.40        113.9723
342.85        114.3119
343.30         114.816
343.75        115.4023
344.20        115.9429
344.66         116.389
345.11        116.7805
345.56        117.1137
346.01        117.3683
346.46        117.5519
346.91        117.6668
347.36        117.7555
347.81        117.8923
348.26        118.0959
348.72        118.3513
349.17        118.6268
349.62        118.8879
350.07        119.1091
350.52        119.2885
350.97        119.4143
351.42         119.469
351.87        119.4511
352.32        119.3702
352.77        119.2232
353.22        119.0104
353.67        118.7405
354.13        118.4263
354.58        118.0886
355.03        117.8239
355.48        117.6371
355.93        117.4962
356.38        117.3074
356.83        116.9203
357.28         116.313
357.73        115.5513
358.18        114.7244
358.63        113.9694
359.08        113.3304
359.53        112.7642
359.98        112.2571
360.43        111.7873
360.88        111.3273
361.33        110.8761
361.78        110.3833
362.23        109.7619
362.68         109.001
363.13        108.1408
363.58        107.2346
364.03        106.3419
364.48         105.547
364.93        104.7942
365.38        104.1001
365.83        103.4623
366.28        102.8652
366.73        102.3012
367.18        101.7315
367.63        101.0922
368.08        100.3711
368.53        99.58971
368.98        98.77153
369.43        97.95981
369.88        97.17517
370.33        96.40751
370.78        95.68438
371.23        95.04583
371.68        94.49365
372.13        94.02148
372.58        93.56769
373.03        93.02975
373.48        92.38654
373.93        91.66382
374.38        90.93597
374.83          90.321
375.28        89.84145
375.72        89.44111
376.17        89.07462
376.62        88.60345
377.07        87.99838
377.52        87.29301
377.97        86.56685
378.42        85.94583
378.87        85.45674
379.32        85.06368
379.77        84.68007
380.22        84.16673
380.67        83.50298
381.11        82.75289
381.56        82.01007
382.01        81.43884
382.46        81.08842
382.91         80.8989
383.36        80.80872
383.81        80.72059
384.26        80.58785
384.71        80.43092
385.15        80.20658
385.60        79.90836
386.05        79.52116
386.50        79.04807
386.95        78.55153
387.40        78.14138
387.85        77.84694
388.29        77.60142
388.74        77.42753
389.19        77.17021
389.64        76.80023
390.09        76.33697
390.54        75.86376
390.98        75.50111
391.43        75.32868
391.88         75.2915
392.33        75.24767
392.78        75.10364
393.23         74.8661
393.67        74.29422
394.12        73.60049
394.57        73.85898
395.02        73.83431
395.47        73.61021
395.91        72.91308
396.36        72.52246
396.81        72.48977
397.26        72.42297
397.71        72.27969
398.15        72.15913
398.60        72.12099
399.05        71.92831
399.50        71.68854
399.95        71.83136
400.39        72.21666
400.84        72.17943
401.29        71.68778
401.74        71.01195
402.18        70.35935
402.63        70.12338
403.08        70.24054
403.53        70.07883
403.97        69.61366
404.42        69.29706
404.87        69.16733
405.32        69.10426
405.76        69.09538
406.21        69.10361
406.66          69.104
407.11        69.19817
407.55         69.3054
408.00        69.12398
408.45         68.7123
408.90        68.20612
409.34        67.79062
409.79        67.91072
410.24        68.40847
410.68        68.57993
411.13        68.35374
411.58        68.13963
412.03        68.01099
412.47        67.92121
412.92        67.87798
413.37        67.90479
413.81        67.95947
414.26        68.03622
414.71        68.10719
415.15        68.19275
415.60        68.26556
416.05        68.33534
416.49        68.40568
416.94         68.4585
417.39        68.49277
417.83        68.51392
418.28        68.51195
418.73        68.46033
419.17        68.38972
419.62        68.35379
420.07         68.3798
420.51        68.47426
420.96        68.54968
421.41        68.50661
421.85        68.32456
422.30        67.83452
422.74        67.27919
423.19         67.6743
423.64        68.80504
424.08        69.25248
424.53        68.84661
424.98        68.75854
425.42        69.02334
425.87         68.7259
426.31         68.0732
426.76        68.09885
427.21        68.72627
427.65        68.99306
428.10        68.81754
428.54        68.81487
428.99         69.0104
429.44        69.07941
429.88         69.0407
430.33        69.01074
430.77         68.9752
431.22        69.26043
431.66        69.77878
432.11        69.85789
432.56        69.56741
433.00        69.75365
433.45        70.26919
433.89        69.88164
434.34        70.04534
434.78        68.92818
435.23        69.06456
435.67        69.36407
436.12        70.67876
436.57        70.73421
437.01        69.85119
437.46        69.78064
437.90        70.30108
438.35        70.94876
438.79        70.97207
439.24        71.05708
439.68        71.07066
440.13        70.90762
440.57          70.705
441.02        71.03212
441.46        71.66919
441.91        71.64037
442.35        71.03522
442.80        70.97583
443.24        71.40746
443.69        71.65048
444.13         71.6212
444.58        71.64992
445.02        71.71089
445.47         71.6934
445.91        71.61887
446.36        71.61972
446.80        71.69792
447.24        71.75511
447.69        71.81407
448.13        72.05643
448.58        72.39147
449.02        72.39252
449.47        72.12964
449.91        72.03579
450.36        72.15643
450.80        72.21973
451.25        72.21742
451.69        72.23424
452.13        72.25354
452.58        72.19698
453.02        72.08737
453.47        71.99483
453.91        71.91606
454.36        71.94177
454.80        72.00411
455.24         71.7118
455.69        71.17916
456.13        70.96794
456.58        71.23344
457.02        70.81419
457.46        71.64626
457.91        71.35818
458.35        70.91772
458.79        70.68115
459.24         70.7718
459.68        70.80217
460.13        70.74994
460.57        70.54108
461.01        70.50122
461.46        70.32973
461.90         70.0168
462.34        70.11399
462.79        70.36351
463.23        70.31886
463.68        69.96342
464.12        69.67345
464.56        69.56123
465.01        69.74076
465.45        69.98755
465.89        70.04148
466.34        69.94256
466.78        69.60754
467.22        69.06389
467.67        69.71922
468.11        69.20074
468.55        69.17629
468.99        68.96889
469.44        68.88802
469.88        68.92709
470.32        68.95238
470.77        68.94295
471.21         68.8842
471.65        68.76385
472.10        68.60435
472.54         68.4128
472.98        68.24722
473.42         68.1316
473.87        68.03681
474.31        67.94656
474.75        68.02726
475.20        68.21992
475.64        68.23711
476.08        68.07888
476.52        68.06935
476.97        68.23483
477.41        68.04305
477.85        68.21762
478.29        67.88882
478.74        67.95117
479.18        67.11575
479.62        67.80314
480.06        67.79246
480.50        67.74098
480.95         67.8007
481.39        67.89924
481.83        68.02592
482.27        68.02081
482.72        67.69558
483.16        67.94908
483.60        67.63932
484.04        67.72256
484.48         67.6646
484.93        67.90009
485.37        67.82335
485.81        68.42551
486.25        68.80742
486.69        69.75279
487.14        68.57226
487.58         67.7803
488.02        68.20161
488.46        68.18636
488.90        68.39165
489.34        67.49651
489.79        66.71531
490.23        67.05277
490.67         67.1558
491.11        67.27749
491.55        67.25289
491.99        67.11078
492.43         67.1077
492.88        67.23553
493.32         67.3083
493.76        67.28445
494.20        67.29601
494.64        67.36217
495.08        67.31178
495.52        67.19608
495.96        67.41657
496.41        67.84105
496.85        67.68913
497.29        67.07168
497.73        66.95939
498.17        67.24204
498.61        67.42945
499.05        67.29298
499.49        67.26254
499.93        67.32513
500.37        67.27226
500.82        67.12883
501.26        67.08486
501.70        67.76505
502.14        66.92892
502.58        67.20404
503.02        67.03024
503.46        66.99059
503.90        66.95406
504.34        66.88522
504.78        66.89746
505.22        66.93676
505.66        66.91429
506.10        66.86884
506.54        66.85421
506.98        66.85154
507.42        67.08143
507.86        67.24902
508.30        66.98109
508.74        67.18913
509.18        67.07999
509.62         66.9713
510.06        66.87292
510.50        66.80889
510.94         66.7598
511.38        66.72164
511.82        66.71316
512.26        66.72817
512.70        66.76427
513.14         66.8101
513.58        66.81881
514.02        66.78025
514.46        66.75456
514.90        66.75816
515.34        66.58354
515.78        66.62146
516.22         66.5556
516.66        66.52325
517.10        66.54991
517.54        66.63786
517.98        66.77319
518.42        66.89587
518.86        66.91904
519.30        66.82643
519.74        66.64622
520.18        66.45026
520.62        66.35179
521.06        66.37804
521.50        66.49682
521.93        66.64973
522.37        66.72628
522.81        66.70319
523.25        66.61163
523.69        66.50061
524.13        66.44598
524.57        66.46581
525.01        66.53226
525.45        66.60454
525.89        66.62119
526.32        66.56248
526.76        66.46488
527.20        66.35802
527.64        66.29539
528.08        66.28909
528.52        66.31623
528.96        66.35651
529.40        66.37844
529.83        66.36755
530.27        66.35401
530.71        66.32676
531.15        66.27615
531.59        66.20719
532.03        66.11882
532.46        66.04589
532.90         66.0678
533.34        66.18345
533.78        66.36414
534.22         66.5388
534.66        66.59916
535.09         66.5178
535.53        66.35242
535.97        66.15285
536.41        66.01458
536.85        65.96777
537.28        65.98655
537.72        66.05025
538.16        66.11498
538.60        66.16468
539.04        66.22535
539.47        66.27154
539.91        66.30006
540.35        66.29391
540.79        66.26641
541.22        66.21915
541.66        66.16833
542.10        66.11811
542.54        66.06538
542.97         66.0165
543.41         66.0174
543.85        66.05782
544.29         66.1321
544.72        66.19135
545.16        66.19233
545.60        66.11183
546.04         65.9636
546.47        65.79958
546.91        65.70702
547.35        65.69738
547.79        65.77232
548.22        65.86282
548.66        65.83463
549.10        65.70811
549.53        65.73319
549.97        65.90714
550.41        65.99854
550.84        65.97851
551.28        66.04601
551.72        66.20393
552.15        66.17735
552.59        65.92948
553.03        66.31413
553.46        65.94782
553.90        65.98579
554.34         65.9908
554.77        66.27139
555.21         66.2719
555.65        66.28148
556.08        66.09155
556.52        65.92622
556.96        65.80382
557.39        65.77018
557.83        65.83346
558.27        65.86333
558.70        65.84978
559.14        65.88523
559.57        65.94777
560.01        65.99717
560.45        66.00497
560.88        65.98659
561.32        65.99743
561.75        65.92492
562.19        65.82963
562.63        65.96042
563.06        66.23106
563.50        66.12167
563.93        65.70907
564.37        65.72729
564.80        66.09037
565.24        66.15062
565.68        65.92381
566.11        65.88395
566.55        66.06193
566.98        66.18707
567.42        66.23749
567.85         66.2675
568.29        66.33112
568.72        66.26831
569.16         66.1217
569.60        66.39601
570.03        66.46738
570.47        66.36163
570.90        66.50394
571.34         66.7781
571.77         66.8532
572.21        66.71593
572.64        67.20386
573.08        66.64552
573.51        66.58676
573.95        66.65099
574.38        67.13654
574.82        66.81708
575.25         67.1579
575.69        66.87026
576.12        66.95476
576.56        66.95207
576.99         66.9831
577.42        67.15574
577.86        67.29279
578.29        67.43394
578.73        67.66495
579.16        67.54427
579.60        67.16342
580.03        66.85155
580.47        66.56273
580.90        67.57298
581.33         67.7198
581.77         67.4719
582.20        67.57914
582.64        67.55432
583.07        67.29891
583.51        67.01916
583.94        66.82973
584.37        66.66659
584.81        66.71095
585.24        66.89175
585.68        67.03632
586.11        67.54654
586.54         67.3961
586.98        66.47789
587.41        66.94191
587.85        66.92265
588.28         67.3318
588.71        66.74686
589.15        67.07906
589.58        66.77895
590.01        66.88555
590.45        66.55659
590.88        66.30795
591.31        66.15428
591.75         66.1456
592.18        66.08988
592.61        66.27067
593.05        66.36295
593.48        67.24608
593.91         67.3297
594.35        66.90003
594.78        66.99627
595.21        66.50702
595.65        66.52639
596.08        66.22762
596.51        66.59047
596.94        66.26288
597.38        66.24564
597.81        66.22353
598.24        66.24936
598.68        66.13911
599.11        66.07127
599.54        66.81622
599.97        66.66902
600.41        66.71481
600.84        66.69386
601.27        66.89455
601.70        66.37115
602.14        66.16491
602.57        66.39092
603.00        66.55906
603.43        66.58676
603.87        66.69865
604.30         66.4167
604.73        66.60687
605.16        67.05781
605.60        66.47151
606.03         66.6097
606.46        66.95248
606.89        67.10679
607.32          66.884
607.76        67.24249
608.19        66.87202
608.62        66.64898
609.05        66.34777
609.48        66.31202
609.92        66.49158
610.35         66.6605
610.78        67.20628
611.21        66.29156
611.64        66.62205
612.07        66.41658
612.50        66.42756
612.94        66.42188
613.37        66.46482
613.80        66.19746
614.23        66.47485
614.66        66.50552
615.09        66.50166
615.52        66.52955
615.96        66.60607
616.39        66.28584
616.82        66.22634
617.25        66.23764
617.68         65.9799
618.11        65.93221
618.54        65.98755
618.97        66.18783
619.40        66.39558
619.84        66.72237
620.27        66.62749
620.70        66.45824
621.13        66.02946
621.56        66.34143
621.99        65.86394
622.42        65.69412
622.85        65.92846
623.28        66.28781
623.71        65.95366
624.14        65.58228
624.57        65.83207
625.00        66.07622
625.43        65.76632
625.86        65.82249
626.29         65.9802
626.72        66.06261
627.15         65.8751
627.58         65.8019
628.01        65.92628
628.44        65.50742
628.87        65.50416
629.30         66.0051
629.73        65.77593
630.16        65.34646
630.59        65.65981
631.02        65.70367
631.45        65.81907
631.88        65.89986
632.31        65.96916
632.74        65.72469
633.17        65.82017
633.60        65.73425
634.03        65.66513
634.46         65.6012
634.89        65.55197
635.32        65.50549
635.75        65.45464
636.18        65.44488
636.61        65.45763
637.04         65.3856
637.47         65.2611
637.89        65.27174
638.32        65.38541
638.75        65.43707
639.18        65.41509
639.61        65.41692
640.04        65.43295
640.47        65.41666
640.90           65.37
641.33        65.28146
641.76        65.15919
642.18         65.1795
642.61        65.09145
643.04        65.08956
643.47        65.09655
643.90         65.1123
644.33        65.12966
644.76         65.1534
645.18         65.1748
645.61        65.16502
646.04        65.12524
646.47        65.06003
646.90        64.99816
647.33        64.99686
647.75        65.07465
648.18        65.19238
648.61        65.31116
649.04         65.4634
649.47        65.59799
649.89        65.47955
650.32        65.20446
650.75        65.24928
651.18        65.57187
651.61        65.63952
652.03        65.36687
652.46        65.17612
652.89        65.21093
653.32        64.81669
653.74        64.45671
654.17        65.42648
654.60        65.45911
655.03        65.43045
655.46        65.43886
655.88        65.88144
656.31        68.42886
656.74        71.53334
657.16        69.98885
657.59        68.42156
658.02        66.68207
658.45        65.87743
658.87        66.04237
659.30        66.59058
659.73        65.67891
660.15         65.4361
660.58        65.53807
661.01        65.80198
661.44        66.08468
661.86        66.16228
662.29        65.99474
662.72        65.61243
663.14        65.19973
663.57        65.23978
664.00        65.65919
664.42         65.7859
664.85        65.58715
665.27        65.47298
665.70        65.48014
666.13        65.47702
666.55        65.47418
666.98        65.49431
667.41        65.53779
667.83        65.60574
668.26        65.68202
668.69        65.76908
669.11         65.8485
669.54        65.87513
669.96        65.84601
670.39        65.79552
670.82        65.76236
671.24        65.71278
671.67        65.69379
672.09        65.89416
672.52          66.228
672.94         66.2862
673.37        66.08397
673.80        65.94267
674.22        65.90938
674.65        65.80891
675.07        65.67909
675.50        65.61158
675.92        65.61456
676.35        65.63789
676.77        65.68108
677.20        65.75569
677.62        65.85798
678.05        65.96279
678.47        66.05789
678.90        66.14523
679.32        66.21526
679.75        66.27297
680.17        66.31611
680.60        66.35162
681.02        66.35706
681.45         66.2953
681.87        66.18375
682.30        65.97981
682.72        65.76834
683.15        65.80625
683.57        66.06037
684.00        66.14826
684.42        66.07936
684.85        66.15065
685.27        66.34399
685.70        66.52337
686.12         66.6354
686.54        66.60226
686.97        66.45417
687.39        66.44319
687.82         66.5761
688.24        66.50301
688.66        66.53873
689.09        66.54665
689.51        66.62201
689.94        66.64552
690.36        66.61785
690.78        66.56712
691.21        66.49998
691.63        66.42391
692.06        66.34841
692.48        66.26532
692.90        66.19411
693.33        66.14638
693.75        66.12964
694.17         66.1767
694.60        66.24004
695.02         66.2254
695.44         66.1451
695.87        66.09139
696.29        66.11279
696.71        66.29242
697.14        66.55965
697.56         66.6867
697.98        66.64867
698.41        66.68096
698.83        66.76438
699.25        66.76109
699.68        66.68418
700.10        66.69338
700.52        66.79276
700.94        66.94019
701.37        67.06703
701.79        67.09801
702.21        66.99798
702.64        66.81616
703.06        66.61304
703.48        66.49836
703.90        66.50632
704.33         66.6002
704.75        66.74112
705.17        66.84274
705.59        66.87589
706.01        66.83945
706.44        66.77587
706.86        66.85738
707.28        66.90775
707.70        67.09907
708.12        67.31287
708.55        67.31983
708.97        67.15281
709.39        67.13354
709.81        67.27561
710.23        67.33594
710.66        67.30679
711.08        67.36224
711.50        67.45206
711.92         67.4379
712.34        67.31235
712.76        67.12057
713.19        66.92123
713.61        66.85859
714.03        66.94263
714.45        67.12499
714.87        67.34155
715.29        67.49534
715.71         67.5556
716.13        67.55264
716.56        67.48389
716.98         67.4201
717.40        67.36347
717.82        67.30714
718.24        67.27837
718.66        67.32354
719.08        67.44546
719.50        67.62454
719.92        67.82708
720.34        67.99416
720.76         68.1022
721.19        68.15569
721.61        68.15826
722.03        68.09014
722.45        67.95966
722.87         67.7742
723.29        67.58868
723.71        67.49163
724.13        67.50629
724.55        67.61956
724.97        67.78143
725.39        67.88097
725.81        67.88734
726.23        67.86522
726.65        67.87251
727.07          67.799
727.49        67.98768
727.91        68.14397
728.33        68.31419
728.75        68.40869
729.17        68.40773
729.59        68.33713
730.01        68.23299
730.43        68.16372
730.85        68.14699
731.27        68.15641
731.69        68.18795
732.10        68.23624
732.52        68.28181
732.94         68.3819
733.36        68.50675
733.78        68.50904
734.20        68.35986
734.62        68.53573
735.04        68.01489
735.46        68.30927
735.88        68.75059
736.30        68.69501
736.72        68.14087
737.13        67.92034
737.55        68.08955
737.97        68.26754
738.39        68.38602
738.81          68.464
739.23        68.48874
739.65        68.48809
740.06        68.43843
740.48        68.43098
740.90        68.46351
741.32        68.20953
741.74        68.30463
742.16        68.26261
742.57        68.28704
742.99        68.34758
743.41        68.44498
743.83        68.54649
744.25        68.63123
744.67        68.69425
745.08        68.75922
745.50        68.82887
745.92        68.91498
746.34         69.0145
746.75        69.06549
747.17        68.98244
747.59        68.76517
748.01        68.40058
748.42        68.02274
748.84         67.9524
749.26        68.17266
749.68        68.37423
750.09        68.48402
750.51        68.56796
750.93        68.62852
751.35        68.73088
751.76        68.85844
752.18         68.8717
752.60        68.77592
753.01        68.67575
753.43        68.59303
753.85         68.5548
754.27        68.57981
754.68        68.66971
755.10        68.80942
755.52        68.96575
755.93        69.12608
756.35        69.29388
756.77        69.44426
757.18        69.58993
757.60        69.73689
758.02        69.74862
758.43        69.64109
758.85        69.85201
759.26         69.8443
759.68        69.72508
760.10        69.49115
760.51        68.61433
760.93        69.41453
761.34        68.68967
761.76        69.65534
762.18        69.51705
762.59        69.15312
763.01        69.03745
763.42        69.24496
763.84        69.31894
764.26        69.29847
764.67        69.32124
765.09        69.39001
765.50        69.77872
765.92        70.37338
766.33        69.72386
766.75         69.1544
767.16        68.95625
767.58        69.03433
768.00        69.42793
768.41        69.80318
768.83        69.69921
769.24        69.22059
769.66        69.12067
770.07        69.39568
770.49        69.64072
770.90        69.76957
771.32        69.71546
771.73        69.55656
772.15        69.55244
772.56        69.72866
772.97        69.94392
773.39        70.10371
773.80         70.0831
774.22        69.91195
774.63        69.98404
775.05        70.23922
775.46         70.3136
775.88        70.15683
776.29        70.03708
776.70         69.9778
777.12        69.91387
777.53        69.88015
777.95        69.88284
778.36         69.9368
778.77        70.04064
779.19        70.18712
779.60        70.37422
780.02        70.56408
780.43        70.72914
780.84        70.83013
781.26        70.86022
781.67         70.8999
782.09         70.9147
782.50        70.79169
782.91        71.28329
783.33        70.55487
783.74        70.47298
784.15        70.50664
784.57        70.43145
784.98        70.29245
785.39        70.44469
785.81        70.82553
786.22        70.98945
786.63        70.90902
787.04        70.90467
787.46        70.99078
787.87        70.95071
788.28        70.83537
788.70        70.85044
789.11        71.00262
789.52         71.1491
789.93        71.25779
790.35        71.50069
790.76        71.75921
791.17        71.49223
791.58        70.87135
792.00        70.59288
792.41         70.7365
792.82        71.16309
793.23        71.51954
793.65        71.61269
794.06        71.46326
794.47        71.80187
794.88        72.49423
795.29        72.53912
795.71        72.35599
796.12        71.97852
796.53        71.65003
796.94        71.44592
797.35        71.40269
797.76        71.39204
798.18        71.39476
798.59        71.46605
799.00        71.58735
799.41        71.69657
799.82        71.76033
800.23        71.77078
800.64        71.72128
801.06        71.58755
801.47        71.44335
801.88        71.34213
802.29        71.30977
802.70        71.33746
803.11        71.41335
803.52        71.50956
803.93        71.61094
804.34        71.71836
804.75        71.83203
805.17        71.93592
805.58        72.05061
805.99        72.16287
806.40        72.24453
806.81        72.22919
807.22        72.11931
807.63        71.97871
808.04        71.86411
808.45        71.82829
808.86        71.88891
809.27        72.04347
809.68        72.23558
810.09        72.34793
810.50        72.35133
810.91        72.28519
811.32        72.18539
811.73        72.12778
812.14        72.13984
812.55        72.14991
812.96        72.17379
813.37        72.34688
813.78        72.61352
814.19        72.72721
814.60        72.68272
815.01        72.68541
815.42         72.7449
815.83        72.72152
816.24        72.65773
816.65        72.71178
817.05        72.90299
817.46        73.13943
817.87        73.35841
818.28        73.41485
818.69        73.27885
819.10        73.00096
819.51        72.65752
819.92        72.38786
820.33        72.25638
820.74        72.23402
821.14        72.28933
821.55        72.40485
821.96         72.5397
822.37        72.69668
822.78        72.86325
823.19        73.00774
823.60        73.11446
824.00         73.2077
824.41        73.21109
824.82        73.10294
825.23        72.89172
825.64        72.59392
826.04        72.34813
826.45        72.34065
826.86        72.61835
827.27        73.12947
827.68        73.69384
828.08        74.03667
828.49        74.00852
828.90        73.71307
829.31        73.32014
829.72        73.12756
830.12        73.23716
830.53        73.51337
830.94        73.81418
831.35        73.86782
831.75        73.62725
832.16        73.15071
832.57        72.61104
832.97        72.26166
833.38        72.18602
833.79        72.31251
834.20        72.56181
834.60        72.81424
835.01        73.03583
835.42        73.25073
835.82        73.47623
836.23        73.65585
836.64        73.80088
837.04        73.91962
837.45        73.96565
837.86        73.97871
838.26        73.98282
838.67        73.96622
839.08        73.95847
839.48        73.98354
839.89        74.04903
840.29        74.15062
840.70        74.28223
841.11        74.43387
841.51        74.61224
841.92        74.77456
842.33        74.90909
842.73         74.9949
843.14         74.9748
843.54        74.88076
843.95        74.73529
844.35        74.59787
844.76         74.4816
845.17        74.38955
845.57        74.31435
845.98        74.19788
846.38        74.06133
846.79        73.90524
847.19          73.795
847.60        73.78007
848.00        73.89127
848.41        74.06853
848.81        74.28715
849.22        74.43379
849.62        74.50977
850.03        74.51304
850.43        74.48307
850.84        74.40188
851.24        74.33228
851.65        74.22608
852.05        74.17935
852.46        74.24725
852.86        74.42763
853.27        74.69666
853.67        74.92294
854.07        75.10656
854.48        75.19158
854.88        75.23032
855.29        75.10328
855.69        74.81111
856.10        74.28168
856.50        73.62238
856.90        72.95612
857.31         72.5042
857.71        72.37315
858.12        72.47107
858.52        72.71104
858.92        72.80681
859.33        72.66341
859.73        72.37769
860.13        72.04602
860.54        71.87296
860.94        71.94967
861.34        72.16637
861.75        72.37086
862.15         72.3959
862.55        72.17843
862.96        71.81549
863.36        71.40337
863.76        71.08369
864.17        70.90739
864.57        70.83386
864.97        70.88537
865.38        71.08276
865.78        71.44292
866.18        71.93088
866.58        72.37785
866.99        72.49075
867.39        72.24047
867.79        71.70206
868.19         71.0807
868.60        70.65084
869.00        70.47902
869.40        70.51196
869.80         70.7119
870.21        70.99902
870.61        71.36938
871.01        71.76365
871.41        72.08235
871.81        72.18366
872.22        72.02634
872.62        71.67226
873.02        71.21935
873.42        70.87354
873.82        70.72657
874.22        70.73916
874.63        70.89751
875.03        71.14121
875.43         71.4441
875.83        71.81583
876.23        72.19298
876.63        72.46448
877.03        72.58881
877.44        72.55679
877.84        72.42619
878.24        72.28548
878.64          72.163
879.04        72.04326
879.44        71.89966
879.84        71.67894
880.24        71.38374
880.64        71.06154
881.04        70.76192
881.44        70.56257
881.84        70.49044
882.24        70.50436
882.65        70.58587
883.05        70.80402
883.45        71.09296
883.85        71.43182
884.25        71.69809
884.65         71.7143
885.05        71.46319
885.45        70.99905
885.85        70.48405
886.25        70.21068
886.65        70.26074
887.05        70.54664
887.45        70.92179
887.85        71.15407
888.25        71.17284
888.65        71.04574
889.04        70.82767
889.44        70.65329
889.84        70.54905
890.24        70.47073
890.64        70.39864
891.04        70.31403
891.44        70.21238
891.84        70.11836
892.24        70.03838
892.64        69.96738
893.04        69.91457
893.44        69.89211
893.83        69.93243
894.23        70.02014
894.63        70.17565
895.03        70.37727
895.43        70.62354
895.83         70.9122
896.23        71.21778
896.63        71.51926
897.02        71.74549
897.42         71.8383
897.82        71.77862
898.22        71.59692
898.62        71.35983
899.01        71.19167
899.41        71.11629
899.81        71.12308
900.21        71.18156
900.61        71.23222
901.00        71.24702
901.40        71.26612
901.80        71.29726
902.20        71.36037
902.59        71.46963
902.99        71.59592
903.39        71.73013
903.79        71.85204
904.18        71.94543
904.58        72.01422
904.98        72.07051
905.38        72.14047
905.77        72.21768
906.17        72.30383
906.57         72.3564
906.96        72.32705
907.36        72.18639
907.76        71.97618
908.15        71.76418
908.55         71.5866
908.95        71.50042
909.34        71.47868
909.74         71.5442
910.14         71.6697
910.53        71.83942
910.93        72.02524
911.33        72.20446
911.72        72.33801
912.12        72.38953
912.52        72.38522
912.91        72.29573
913.31         72.1111
913.70         71.8429
914.10        71.49178
914.49        71.17892
914.89        71.06203
915.29        71.19817
915.68        71.52753
916.08         71.9158
916.47        72.14074
916.87        72.15607
917.26        72.00375
917.66        71.77123
918.05        71.56546
918.45        71.42045
918.84        71.33118
919.24        71.26526
919.64        71.25246
920.03        71.31875
920.42        71.47838
920.82        71.71143
921.21        71.96837
921.61        72.21722
922.00        72.44307
922.40        72.70343
922.79         73.1804
923.19        73.81856
923.58        74.56093
923.98         75.1076
924.37        75.07431
924.77        74.40014
925.16        73.21696
925.55        71.87565
925.95        70.98926
926.34        70.76173
926.74        71.02963
927.13        71.59018
927.52        71.98921
927.92        72.11331
928.31         72.0916
928.70        72.03362
929.10        72.09568
929.49        72.31168
929.89        72.53942
930.28        72.79781
930.67        73.03073
931.07          73.185
931.46        73.32033
931.85         73.3111
932.24        72.98505
932.64         72.3576
933.03         71.5164
933.42        70.71873
933.82        70.37268
934.21        70.57414
934.60        71.20535
934.99        72.04095
935.39        72.66715
935.78        72.97261
936.17         73.0464
936.56        72.97388
936.96         72.9058
937.35        72.95315
937.74        73.02054
938.13        73.10135
938.53        73.20878
938.92        73.33969
939.31        73.49302
939.70        73.65015
940.09         73.7557
940.49        73.76097
940.88        73.71097
941.27         73.5834
941.66        73.35484
942.05        73.04282
942.44        72.68186
942.84        72.35376
943.23        72.12791
943.62        72.05963
944.01        72.12769
944.40        72.31112
944.79        72.56235
945.18        72.82602
945.57        73.06531
945.97        73.20326
946.36        73.21501
946.75         73.0554
947.14        72.73679
947.53        72.25933
947.92        71.64332
948.31        70.95432
948.70         70.2559
949.09        69.65937
949.48        69.30724
949.87        69.23826
950.26        69.42212
950.65        69.80752
951.04        70.30445
951.43        70.85002
951.82        71.41846
952.21        71.94427
952.60        72.32834
952.99        72.52464
953.38        72.54026
953.77         72.3759
954.16        72.05603
954.55        71.61172
954.94        71.04745
955.33        70.47952
955.72        70.08916
956.11        69.92715
956.50        69.99003
956.89        70.12389
957.28        70.02965
957.66        69.67571
958.05        69.14426
958.44        68.67126
958.83        68.63662
959.22        69.08523
959.61        69.80756
960.00        70.59803
960.39        71.14655
960.78        71.33897
961.16        71.32746
961.55        70.96116
961.94        70.11884
962.33        68.88863
962.72        67.37843
963.11        66.05404
963.49         65.5846
963.88        66.07895
964.27        67.37958
964.66        69.00318
965.04        70.04818
965.43        70.13982
965.82        69.56065
966.21        68.74538
966.60        68.39697
966.98        68.70579
967.37        69.40585
967.76        70.24649
968.15        70.74905
968.53        70.74406
968.92        70.41667
969.31        69.92124
969.69        69.44439
970.08        69.07487
970.47        68.78145
970.86        68.66679
971.24        68.93509
971.63        69.53264
972.02        70.37943
972.40        71.34885
972.79        72.13076
973.17        72.73142
973.56        73.12656
973.95        73.33842
974.33        73.37086
974.72        73.23634
975.11        72.94272
975.49        72.51063
975.88        72.02131
976.26        71.54418
976.65        71.08325
977.04         70.7402
977.42         70.6468
977.81        70.76613
978.19        71.02395
978.58        71.40714
978.96        71.80388
979.35        72.11383
979.74        72.40292
980.12        72.54518
980.51        72.11958
980.89        71.21628
981.28        69.87183
981.66        68.61071
982.05         68.4203
982.43        69.50017
982.82        71.47458
983.20        73.70712
983.59        75.04892
983.97        75.30217
984.35        74.73643
984.74        73.66792
985.12        72.69234
985.51        72.08384
985.89        71.70791
986.28        71.60945
986.66        71.94362
987.04        72.62742
987.43        73.58412
987.81        74.60324
988.20        75.16862
988.58        75.17194
988.96        74.76035
989.35        73.93595
989.73        72.80766
990.12        71.41997
990.50        69.67635
990.88        68.08298
991.27        67.77507
991.65        69.01641
992.03        71.39246
992.42        73.73913
992.80        74.92805
993.18        74.66376
993.56         73.1567
993.95         70.9095
994.33        69.26425
994.71        69.04375
995.10        69.73381
995.48        70.72316
995.86        71.21976
996.24        71.10213
996.63        70.56524
997.01        69.99585
997.39        70.05524
997.77         70.9408
998.15        72.33606
998.54        73.57883
998.92        73.84604
999.30        73.00238
999.68        71.32394
1000.06        69.42877
1000.45        68.42556
1000.83        68.76949
1001.21        70.07902
1001.59        71.81953
1001.97        73.21703
1002.35        74.06929
1002.73        74.62312
1003.12        74.96893
1003.50        75.13905
1003.88        75.18768
1004.26        74.93896
1004.64        74.56927
1005.02        74.35175
1005.40        74.31586
1005.78        74.51476
1006.16        74.57483
1006.54        73.80816
1006.92        72.15108
1007.30        69.84766
1007.69        67.80109
1008.07         67.3766
1008.45        68.88835
1008.83        71.79169
1009.21        74.99211
1009.59          76.964
1009.97        77.29339
1010.35         76.2443
1010.73        74.27222
1011.11        72.68123
1011.49        72.21848
1011.86        72.66255
1012.24        73.35343
1012.62        73.59412
1013.00        73.22429
1013.38        72.55204
1013.76        71.97977
1014.14        72.08987
1014.52        73.04771
1014.90        74.67722
1015.28        76.48936
1015.66        77.54452
1016.04         77.5162
1016.41        76.74948
1016.79        75.66972
1017.17        75.31956
1017.55        75.87874
1017.93        76.99666
1018.31        78.25498
1018.69        78.97005
1019.06        78.99077
1019.44        78.59998
1019.82        77.85876
1020.20        76.96819
1020.58        76.11737
1020.95        75.09019
1021.33         74.3849
1021.71        74.61535
1022.09        75.71449
1022.46        77.53878
1022.84         79.1217
1023.22        78.47513
1023.60        75.00711
1023.97        68.83391
1024.35        61.61145
1024.73        57.19325
