SpectraSmart Spectrum 2.9.0.0
--------- Device Information -----------
Spectrum Name :  反射率_0
Saving Time :  2024/04/28 00:02:15
Spectro-Module Model Name : SE2030-DUVN
Spectro-Module Serial Number : OS361AC55029948
Wavelength Start : 200
Wavelength End : 1025
Wavelength Unit : Wavelength(nm)
Spectrum Unit : Reflectance(%)
-----------Spectrum Setting ------------
Integration Time : 20ms
Average : 10
Boxcar : 0
Background removal :  enabled
linearity correction :  enabled
SC :  disabled
Intensity correction :  disabled
DWT denoise :  enabled
savitzky-golay :  disabled
FFT :  disabled
Running average :  disabled
Kalman :  disabled
High pass :  disabled
---------------BEGIN--------------------
Wavelength(nm)             Reflectance(%)
200.29               0
200.75        101.6688
201.21         105.438
201.67         105.067
202.13        98.73138
202.58        87.98241
203.04        75.42031
203.50         65.1641
203.96        63.66583
204.42        70.16102
204.88        79.98565
205.34        89.23186
205.80        95.17684
206.26        97.86201
206.72        98.17007
207.18        95.13905
207.64        88.56685
208.10        82.48978
208.55        79.52444
209.01        77.27612
209.47        73.33393
209.93        65.22423
210.39        44.93318
210.85       -13.68456
211.31       -74.21129
211.77        17.99635
212.23        72.87273
212.69         89.7769
213.14        91.09386
213.60        82.57741
214.06        62.72948
214.52        28.50448
214.98         4.57283
215.44        17.07394
215.90          42.956
216.36        63.58519
216.81         73.3173
217.27        75.36944
217.73        73.71154
218.19        70.07848
218.65        66.63912
219.11        64.42113
219.57        62.60172
220.02         61.0136
220.48          60.871
220.94        61.99614
221.40        64.05707
221.86         66.8798
222.32        70.22849
222.77        73.62213
223.23        76.65453
223.69        78.46427
224.15        78.06234
224.61        75.53825
225.06        71.18172
225.52        66.28467
225.98        63.32303
226.44        62.95891
226.90        63.89538
227.36        65.00633
227.81        65.30786
228.27          64.774
228.73         63.7025
229.19        61.99716
229.65         59.6262
230.10        56.82023
230.56        53.98051
231.02        51.63394
231.48        50.56578
231.93        50.69635
232.39        51.77636
232.85         53.2579
233.31        54.41362
233.77        55.06497
234.22        55.52209
234.68         55.6889
235.14        55.53194
235.60        55.10653
236.05        54.25412
236.51         53.5812
236.97        54.33938
237.43        56.81176
237.88          60.721
238.34        64.46326
238.80        66.61978
239.26        66.91891
239.71         65.2775
240.17        61.74015
240.63        59.87625
241.08        62.78374
241.54        67.66995
242.00        71.82233
242.46        74.50345
242.91        76.52869
243.37        78.73802
243.83        82.28715
244.28        87.43236
244.74        89.63046
245.20        87.33534
245.66        83.59683
246.11        79.82112
246.57         75.2071
247.03        68.48847
247.48         60.0924
247.94        57.40797
248.40        66.14317
248.85         80.7677
249.31        94.41275
249.77        101.9751
250.22        104.1931
250.68        103.6068
251.14        101.9303
251.59        100.6009
252.05        99.82233
252.51        98.73392
252.96        96.82243
253.42        94.55274
253.88        92.62596
254.33        91.72304
254.79        91.33252
255.25        89.82394
255.70        87.12514
256.16        84.26607
256.62        82.23413
257.07        82.21249
257.53         83.9005
257.99         85.7405
258.44         86.2605
258.90        84.74071
259.35        81.24178
259.81        77.22646
260.27        73.32059
260.72        70.35367
261.18        68.76116
261.63        67.69852
262.09        67.17268
262.55        66.75134
263.00        66.19179
263.46        65.75064
263.91        65.09408
264.37        64.18311
264.83        62.97114
265.28        61.49943
265.74        60.07105
266.19        58.81517
266.65         57.8265
267.11        56.97124
267.56        56.10521
268.02        55.12436
268.47         53.9536
268.93        52.67542
269.38         51.3599
269.84         50.1438
270.30        49.05948
270.75         48.0741
271.21        47.12218
271.66        46.04797
272.12        44.85746
272.57        43.56867
273.03        42.34967
273.48        41.36353
273.94        40.69004
274.39        40.20857
274.85        39.81194
275.31        39.25699
275.76        38.47871
276.22        37.59292
276.67        36.66997
277.13        35.92283
277.58        35.33046
278.04        34.87757
278.49        34.41727
278.95        33.86543
279.40          33.153
279.86        32.39355
280.31         31.6385
280.77        31.08521
281.22         30.7169
281.68        30.51819
282.13        30.35817
282.59        30.11535
283.04        29.74319
283.50        29.30272
283.95        28.87192
284.41        28.61259
284.86        28.53451
285.32        28.60612
285.77        28.69972
286.22        28.67578
286.68        28.52523
287.13        28.25912
287.59        28.01468
288.04        27.91987
288.50        28.02426
288.95        28.24172
289.41        28.47441
289.86        28.52637
290.32        28.39389
290.77        28.14874
291.22        27.91967
291.68        27.88649
292.13        28.09087
292.59        28.50078
293.04        29.06146
293.50        29.71083
293.95        30.41438
294.40        31.20943
294.86        32.10497
295.31        33.10149
295.77        34.20787
296.22        35.39323
296.68        36.66613
297.13        38.01474
297.58        39.42528
298.04        40.89082
298.49        42.37273
298.95        43.85808
299.40        45.35093
299.85        46.87311
300.31        48.48895
300.76         50.2367
301.21        52.11528
301.67        54.10896
302.12        56.10955
302.58        58.04274
303.03        59.86932
303.48        61.64984
303.94        63.50016
304.39        65.50883
304.84        67.72404
305.30         70.1179
305.75        72.57986
306.20        75.03035
306.66        77.46333
307.11        79.86007
307.57        82.26815
308.02        84.63451
308.47        86.96172
308.93        89.23155
309.38        91.41928
309.83        93.61214
310.29        95.84404
310.74        98.07549
311.19        100.2385
311.65        102.1862
312.10        103.8486
312.55        105.2699
313.00        106.5832
313.46        108.0128
313.91        109.5945
314.36        111.2851
314.82        112.9298
315.27        114.2691
315.72        115.2413
316.18        115.9366
316.63        116.5146
317.08        117.2718
317.53        118.2762
317.99        119.4304
318.44        120.5686
318.89        121.3936
319.35        121.8396
319.80        122.0291
320.25        122.1274
320.70         122.404
321.16        122.9221
321.61        123.6083
322.06        124.3668
322.51        125.0564
322.97         125.598
323.42        126.0794
323.87        126.4667
324.32        126.7275
324.78        126.8529
325.23        126.8924
325.68        126.9078
326.13        127.0453
326.59        127.3169
327.04        127.7549
327.49         128.268
327.94        128.7359
328.39        129.1214
328.85        129.4144
329.30        129.7405
329.75        130.1192
330.20        130.5632
330.66        131.0063
331.11        131.4893
331.56        131.9456
332.01        132.3746
332.46        132.7978
332.92         133.171
333.37        133.6044
333.82        134.0443
334.27        134.4709
334.72        134.9091
335.17        135.4049
335.63        135.9285
336.08        136.5385
336.53          137.12
336.98        137.5331
337.43        137.7605
337.88        137.8548
338.34        137.9286
338.79          138.24
339.24        138.8173
339.69        139.5759
340.14         140.405
340.59        141.1193
341.05        141.6571
341.50         142.096
341.95        142.4244
342.40        142.6428
342.85        142.7849
343.30        142.8399
343.75        142.9467
344.20        143.3359
344.66        144.0338
345.11        144.9541
345.56        145.8683
346.01        146.3976
346.46        146.4633
346.91        146.1983
347.36        145.8043
347.81        145.5978
348.26        145.6658
348.72        145.9003
349.17        146.2193
349.62         146.521
350.07        146.7441
350.52        146.9283
350.97        147.0092
351.42        146.8748
351.87        146.5247
352.32        145.9946
352.77        145.4082
353.22        144.9682
353.67        144.7151
354.13        144.5947
354.58        144.4847
355.03        144.2531
355.48        143.8422
355.93         143.286
356.38        142.5957
356.83        141.7869
357.28        140.8852
357.73         139.909
358.18        138.8877
358.63        137.8626
359.08        136.8676
359.53        135.9189
359.98        135.0568
360.43        134.3368
360.88        133.7451
361.33        133.2268
361.78        132.7228
362.23        132.1291
362.68        131.3997
363.13         130.588
363.58        129.6482
364.03        128.3848
364.48        127.0382
364.93        125.4874
365.38         123.964
365.83        122.7232
366.28        121.8198
366.73        121.1798
367.18        120.6496
367.63         119.974
368.08        119.0802
368.53        118.0444
368.98        116.9488
369.43        115.9299
369.88        115.0318
370.33        114.1992
370.78        113.4111
371.23        112.6424
371.68        111.8756
372.13        111.1282
372.58        110.3792
373.03        109.5889
373.48        108.7552
373.93         107.888
374.38         107.026
374.83        106.2311
375.28        105.5135
375.72        104.8353
376.17        104.1968
376.62        103.5196
377.07        102.7916
377.52        102.0346
377.97        101.2848
378.42        100.5999
378.87        99.99694
379.32        99.46143
379.77        98.96208
380.22         98.4476
380.67        97.89864
381.11        97.32667
381.56         96.7541
382.01        96.23346
382.46        95.78519
382.91        95.40308
383.36        95.04076
383.81        94.62269
384.26         94.1357
384.71        93.60265
385.15        93.07942
385.60        92.71716
386.05        92.51057
386.50        92.40436
386.95        92.30164
387.40        92.06044
387.85        91.65376
388.29        91.08654
388.74        90.52463
389.19        89.98227
389.64        89.47405
390.09        88.97174
390.54        88.48981
390.98        88.03586
391.43        87.66844
391.88        87.37936
392.33        87.10835
392.78        86.81279
393.23        86.50803
393.67        86.08915
394.12        85.65137
394.57        85.77361
395.02        85.20492
395.47        85.15762
395.91        85.21427
396.36        85.13218
396.81        84.90595
397.26        84.72434
397.71        84.54659
398.15         84.2608
398.60        83.97186
399.05        83.39577
399.50        82.76055
399.95        82.90352
400.39        83.59074
400.84         83.5475
401.29        82.74273
401.74         81.9452
402.18        81.39468
402.63        81.23194
403.08        81.37722
403.53         81.2541
403.97        80.83427
404.42         80.5878
404.87        80.52483
405.32        80.46654
405.76        80.38505
406.21        80.25288
406.66        80.11851
407.11        80.16514
407.55        80.29704
408.00        80.35618
408.45        80.03812
408.90        79.33024
409.34        78.45396
409.79        78.47536
410.24        79.21843
410.68        79.46117
411.13        79.11969
411.58        78.92552
412.03        78.93318
412.47        78.89502
412.92        78.79471
413.37        78.71438
413.81         78.6459
414.26        78.63966
414.71        78.67886
415.15        78.76958
415.60        78.84547
416.05        78.86716
416.49        78.82784
416.94        78.72449
417.39        78.61252
417.83        78.57648
418.28         78.6254
418.73        78.71914
419.17        78.81019
419.62        78.82599
420.07        78.75979
420.51        78.64161
420.96        78.50323
421.41        78.38358
421.85        78.27072
422.30        78.06054
422.74        77.81419
423.19        78.04803
423.64        78.62098
424.08        78.80725
424.53        78.48594
424.98        78.34153
425.42        78.42303
425.87        78.09029
426.31        77.54615
426.76        77.76714
427.21        78.59941
427.65         78.8112
428.10        78.36972
428.54          78.271
428.99        78.57027
429.44        78.65662
429.88        78.49974
430.33        78.48486
430.77        78.51541
431.22        78.40163
431.66        78.22717
432.11        78.37287
432.56        78.85647
433.00        79.26938
433.45        79.30924
433.89        79.19375
434.34        79.06278
434.78        78.20246
435.23         78.1285
435.67        78.46631
436.12        78.82905
436.57        78.92813
437.01        78.45986
437.46        79.34383
437.90        79.14401
438.35        79.15302
438.79        79.31332
439.24        79.29456
439.68        79.32617
440.13        79.47161
440.57        79.70677
441.02        79.93071
441.46         80.0372
441.91        79.86361
442.35        79.46677
442.80        79.51526
443.24        79.89368
443.69        79.94556
444.13        79.68219
444.58        79.67128
445.02        79.89707
445.47        80.08452
445.91        80.17889
446.36        80.28342
446.80        80.37195
447.24        80.35217
447.69        80.28702
448.13        80.39017
448.58        80.67034
449.02        80.57276
449.47        80.21523
449.91        80.09721
450.36        80.26978
450.80        80.42402
451.25        80.52522
451.69        80.62856
452.13        80.69574
452.58        80.63445
453.02         80.4774
453.47        80.32051
453.91        80.17576
454.36         80.1452
454.80         80.1105
455.24        79.68823
455.69        79.03262
456.13        78.52913
456.58        78.40278
457.02        78.45922
457.46        79.39931
457.91         79.2877
458.35        78.74367
458.79        78.45672
459.24        78.54955
459.68         78.4052
460.13        78.07098
460.57        77.73073
461.01        77.78687
461.46        77.56097
461.90        77.42114
462.34        77.70688
462.79        77.38201
463.23        77.50884
463.68        77.66562
464.12        77.50568
464.56        77.11672
465.01        77.01671
465.45        77.11514
465.89        77.16593
466.34        77.12666
466.78        76.83711
467.22        76.43876
467.67        76.30965
468.11        76.60839
468.55        76.58114
468.99        76.29762
469.44        76.21257
469.88        76.33694
470.32        76.41006
470.77        76.37688
471.21        76.28751
471.65        76.13126
472.10        75.92342
472.54        75.69486
472.98        75.55207
473.42        75.51915
473.87        75.51614
474.31        75.48819
474.75        75.62463
475.20        75.83656
475.64        75.67532
476.08        75.25955
476.52        75.09785
476.97        75.27096
477.41        74.94698
477.85        74.87265
478.29        74.97691
478.74         75.2254
479.18        74.46499
479.62        74.57504
480.06         74.3959
480.50        74.49907
480.95        74.66188
481.39        74.76974
481.83        74.80758
482.27        75.03484
482.72         74.4594
483.16         74.6851
483.60        74.53672
484.04        74.45648
484.48        74.41672
484.93        74.59457
485.37        74.59956
485.81        75.09025
486.25        75.44937
486.69        75.67894
487.14        75.04606
487.58        74.27434
488.02        75.15166
488.46        75.00752
488.90         75.1125
489.34        74.80883
489.79        73.69595
490.23        74.29235
490.67        74.00865
491.11        73.64639
491.55         73.5693
491.99        73.74895
492.43        73.81199
492.88        73.69949
493.32        73.61361
493.76         73.5756
494.20        73.62443
494.64        73.77724
495.08        73.91543
495.52        74.00922
495.96        74.21645
496.41        74.42072
496.85        74.17472
497.29        73.58262
497.73        73.32534
498.17        73.34241
498.61        73.43433
499.05        73.50371
499.49        73.63396
499.93        73.77344
500.37        73.75717
500.82        73.60356
501.26        73.58476
501.70        73.74334
502.14         73.5055
502.58        73.58197
503.02        73.61919
503.46        73.52116
503.90        73.49606
504.34        73.45801
504.78        73.44788
505.22        73.40924
505.66        73.30762
506.10        73.24132
506.54        73.15142
506.98        72.98384
507.42        73.73026
507.86        73.77853
508.30         73.4949
508.74         73.7812
509.18        73.58201
509.62         73.3596
510.06        73.18879
510.50         73.1261
510.94        73.11328
511.38        73.12065
511.82        73.13419
512.26        73.13741
512.70        73.14661
513.14        73.16213
513.58        73.15163
514.02        73.11037
514.46        73.09132
514.90        73.12157
515.34        72.98894
515.78        73.11926
516.22        73.16398
516.66        73.23158
517.10        73.28436
517.54        73.31348
517.98        73.31713
518.42        73.29692
518.86        73.26781
519.30         73.2343
519.74        73.19789
520.18        73.15002
520.62        73.07603
521.06        72.98015
521.50         72.8728
521.93        72.78982
522.37        72.77209
522.81        72.83061
523.25        72.94341
523.69         73.0694
524.13        73.14475
524.57        73.15128
525.01        73.10734
525.45        73.03253
525.89        72.95941
526.32        72.89835
526.76        72.85626
527.20        72.83178
527.64        72.84036
528.08        72.88051
528.52        72.92029
528.96        72.95844
529.40        73.04414
529.83        73.13756
530.27         73.1343
530.71         73.0294
531.15        72.93249
531.59        72.85449
532.03        72.73074
532.46        72.59268
532.90        72.54681
533.34        72.59623
533.78         72.7086
534.22        72.82815
534.66        72.86736
535.09         72.7999
535.53        72.68047
535.97        72.53508
536.41        72.42231
536.85        72.36373
537.28        72.34248
537.72        72.36225
538.16        72.41835
538.60        72.50339
539.04         72.6318
539.47         72.7484
539.91        72.80975
540.35         72.7879
540.79        72.70861
541.22        72.60119
541.66        72.52567
542.10        72.49623
542.54        72.49821
542.97        72.50253
543.41        72.50462
543.85        72.48173
544.29        72.44431
544.72         72.3889
545.16        72.33192
545.60        72.26215
546.04        72.21368
546.47        72.17953
546.91        72.07217
547.35         71.9352
547.79        71.96897
548.22        72.10727
548.66        72.14584
549.10        72.05527
549.53        71.95721
549.97        71.89953
550.41         71.9173
550.84        72.02121
551.28        72.16653
551.72        72.32556
552.15        72.46331
552.59        72.52155
553.03        72.48838
553.46        72.35871
553.90        71.98447
554.34        72.07967
554.77        72.13925
555.21        72.40661
555.65        71.82123
556.08        72.10088
556.52        71.95422
556.96        71.88794
557.39        71.79897
557.83        71.74745
558.27        71.82123
558.70        71.94924
559.14        71.99511
559.57        71.93109
560.01        71.80537
560.45        71.65926
560.88         71.6953
561.32        71.90661
561.75        71.83393
562.19        71.56363
562.63        71.63162
563.06        71.94246
563.50        71.85849
563.93        71.44639
564.37         71.2921
564.80        71.51202
565.24        71.74489
565.68        71.94073
566.11         72.0712
566.55        72.13448
566.98        72.12281
567.42        72.07617
567.85        72.01292
568.29        71.99908
568.72        71.90199
569.16        71.79498
569.60        71.86272
570.03        72.11755
570.47        71.94368
570.90        72.24247
571.34        72.26855
571.77        72.57991
572.21        72.09103
572.64        72.42858
573.08        72.03726
573.51        71.79475
573.95        71.92885
574.38        72.41692
574.82        72.30228
575.25        72.44652
575.69        72.05098
576.12         72.0472
576.56        72.19037
576.99        72.18342
577.42        72.07288
577.86        72.13154
578.29        72.20208
578.73        72.19118
579.16        72.18967
579.60        72.05008
580.03        72.02709
580.47        72.05346
580.90        72.08727
581.33        72.38554
581.77        72.40851
582.20        72.63697
582.64        72.61375
583.07        72.50974
583.51          72.237
583.94        72.06946
584.37        72.05317
584.81        72.09461
585.24        72.20129
585.68        72.31312
586.11        72.37305
586.54        72.13479
586.98        72.12146
587.41        72.09973
587.85        71.92261
588.28        72.00341
588.71        71.76415
589.15        72.25047
589.58        71.84775
590.01        72.30434
590.45        72.43964
590.88        71.65878
591.31        71.50116
591.75        71.65402
592.18        71.63709
592.61         71.6086
593.05        71.85214
593.48        72.49238
593.91        71.97598
594.35        71.79283
594.78        71.92197
595.21        71.52004
595.65        71.70357
596.08        71.47885
596.51        71.75469
596.94        71.46226
597.38        71.45026
597.81        71.50864
598.24        71.49029
598.68        71.45249
599.11        71.50017
599.54        71.58574
599.97         71.8084
600.41        71.88789
600.84        71.91742
601.27        71.83239
601.70        71.56921
602.14        71.26683
602.57        71.42823
603.00        71.32642
603.43        71.36632
603.87        71.69839
604.30        71.40322
604.73        71.41428
605.16        71.52575
605.60        71.46494
606.03        71.73174
606.46        72.01584
606.89        72.16196
607.32        71.67302
607.76        71.98534
608.19          71.783
608.62         71.7934
609.05        71.70642
609.48        71.70614
609.92        71.70892
610.35        71.93644
610.78        71.55995
611.21        71.38166
611.64         71.7291
612.07        71.70496
612.50        71.50589
612.94        71.38061
613.37        71.36939
613.80        71.47446
614.23        71.47321
614.66        71.30634
615.09        71.37087
615.52        71.32819
615.96        71.34886
616.39        71.02923
616.82        71.44781
617.25        71.05102
617.68        71.49498
618.11        71.33705
618.54        71.10152
618.97         71.2253
619.40        71.40533
619.84        71.78297
620.27        71.47546
620.70        71.27895
621.13        70.94456
621.56         71.2807
621.99        70.81673
622.42        70.88371
622.85        71.02529
623.28        71.31076
623.71        71.31125
624.14        71.05257
624.57        71.12455
625.00        71.15398
625.43        70.92371
625.86        70.90878
626.29        70.97655
626.72        70.95609
627.15        70.83256
627.58        70.84157
628.01        71.05628
628.44        70.70129
628.87        70.53828
629.30        71.00587
629.73        71.15567
630.16        70.69762
630.59        70.86671
631.02        70.72036
631.45        70.71618
631.88        70.73019
632.31        70.80408
632.74        70.61446
633.17         70.8331
633.60        70.84901
634.03        70.85499
634.46         70.8531
634.89        70.83858
635.32        70.77737
635.75        70.66541
636.18        70.55426
636.61        70.47447
637.04        70.39579
637.47        70.36679
637.89        70.56376
638.32        70.89055
638.75         71.0612
639.18        71.03374
639.61        70.94698
640.04        70.83812
640.47        70.73476
640.90        70.66384
641.33        70.58792
641.76         70.4982
642.18        70.55704
642.61        70.48152
643.04        70.49581
643.47        70.51273
643.90        70.52467
644.33        70.52192
644.76        70.50244
645.18        70.47298
645.61        70.43242
646.04        70.38966
646.47        70.34623
646.90        70.29808
647.33        70.26614
647.75        70.26649
648.18        70.22133
648.61        70.15392
649.04         70.3213
649.47        70.62316
649.89        70.51664
650.32        70.11621
650.75        70.12325
651.18        70.52285
651.61        70.78744
652.03        70.79325
652.46        70.65639
652.89        70.53946
653.32        70.26665
653.74        70.22606
654.17        70.69003
654.60        70.82018
655.03        70.00839
655.46        70.39494
655.88        71.04583
656.31        72.53823
656.74        73.67355
657.16        72.45112
657.59        71.89922
658.02        71.29436
658.45        71.28888
658.87        71.19691
659.30         71.3223
659.73        70.82697
660.15        70.77383
660.58        70.32552
661.01        70.43505
661.44        70.79195
661.86        70.83406
662.29        70.56199
662.72        70.51749
663.14        70.70808
663.57        70.70626
664.00        70.53629
664.42        70.45854
664.85        70.49288
665.27        70.52868
665.70        70.54047
666.13        70.52999
666.55        70.49368
666.98        70.42838
667.41         70.3662
667.83        70.35545
668.26        70.39896
668.69        70.49496
669.11        70.60622
669.54        70.68273
669.96        70.71813
670.39         70.6551
670.82        70.55434
671.24        70.64336
671.67        70.86407
672.09        70.88466
672.52        70.72822
672.94        70.58817
673.37        70.52092
673.80        70.53703
674.22        70.62201
674.65        70.62053
675.07        70.54121
675.50        70.47439
675.92        70.44294
676.35        70.41566
676.77        70.40338
677.20        70.41624
677.62        70.46465
678.05         70.5274
678.47        70.59436
678.90        70.70317
679.32        70.84454
679.75        70.85138
680.17         70.9851
680.60        71.03749
681.02        71.06342
681.45         71.0272
681.87         70.9479
682.30        70.74224
682.72        70.49684
683.15        70.55412
683.57        70.85401
684.00        70.84949
684.42        70.58672
684.85        70.58673
685.27        70.84905
685.70        71.06872
686.12        71.19042
686.54        71.30449
686.97        71.38815
687.39        71.37792
687.82        71.27378
688.24        71.09848
688.66        71.24509
689.09        70.78845
689.51        70.94402
689.94        70.84986
690.36        70.84174
690.78         70.8855
691.21        70.96126
691.63        71.00641
692.06        70.99947
692.48        70.96329
692.90        70.91402
693.33        70.86794
693.75         70.8362
694.17        70.81821
694.60        70.79753
695.02        70.78207
695.44        70.76174
695.87        70.73558
696.29        70.72456
696.71        70.77369
697.14        70.86018
697.56        70.95417
697.98        71.02084
698.41        71.09679
698.83        71.15419
699.25        71.17819
699.68        71.17251
700.10        71.21625
700.52         71.3044
700.94        71.42137
701.37        71.49831
701.79        71.46227
702.21         71.2866
702.64        71.02201
703.06        70.75449
703.48        70.63734
703.90        70.70734
704.33        70.90819
704.75        71.16782
705.17         71.3432
705.59          71.392
706.01        71.33054
706.44        71.20827
706.86        71.24776
707.28        71.27692
707.70        71.38573
708.12        71.49194
708.55        71.60455
708.97        71.67644
709.39        71.61583
709.81         71.4576
710.23        71.37305
710.66        71.38569
711.08        71.42399
711.50        71.45011
711.92        71.46307
712.34        71.45698
712.76        71.43726
713.19        71.41154
713.61        71.43996
714.03        71.50932
714.45        71.60052
714.87        71.70029
715.29        71.78912
715.71        71.85773
716.13        71.91434
716.56        71.92623
716.98        71.91687
717.40        71.86803
717.82         71.7872
718.24        71.71471
718.66        71.71645
719.08        71.80167
719.50        71.94377
719.92        72.09986
720.34        72.19827
720.76        72.21672
721.19        72.17057
721.61        72.08327
722.03        71.96248
722.45        71.82404
722.87        71.66638
723.29        71.53197
723.71        71.48844
724.13        71.54981
724.55        71.70437
724.97        71.89378
725.39        72.01591
725.81        72.04307
726.23        72.00095
726.65        71.94669
727.07        71.96815
727.49        72.08317
727.91        72.28987
728.33         72.4717
728.75        72.58102
729.17         72.5747
729.59        72.48866
730.01         72.3646
730.43        72.27231
730.85        72.23254
731.27        72.21511
731.69        72.22128
732.10        72.25513
732.52        72.29675
732.94        72.40554
733.36        72.54369
733.78         72.5322
734.20        72.34028
734.62        72.50319
735.04        71.95854
735.46        72.23258
735.88        72.83941
736.30        72.82842
736.72        72.25098
737.13        72.19223
737.55        72.61363
737.97        72.59925
738.39        72.19054
738.81        72.10812
739.23        72.35038
739.65        72.46156
740.06        72.38858
740.48         72.3929
740.90        72.43465
741.32        72.48174
741.74        72.42725
742.16         72.4248
742.57        72.45638
742.99        72.49764
743.41        72.54298
743.83        72.56326
744.25        72.55269
744.67        72.51313
745.08        72.49538
745.50        72.53562
745.92         72.6574
746.34        72.84956
746.75        73.02979
747.17        73.08013
747.59        72.97869
748.01        72.69982
748.42        72.37965
748.84        72.34093
749.26        72.55992
749.68        72.75551
750.09         72.8244
750.51        72.70977
750.93        72.47385
751.35        72.40627
751.76        72.52042
752.18        72.55232
752.60         72.5071
753.01        72.57254
753.43        72.72576
753.85        72.86217
754.27        72.96386
754.68        73.06339
755.10        73.13987
755.52        73.15721
755.93        73.12154
756.35        73.04426
756.77        72.95464
757.18        72.96983
757.60        73.12524
758.02        73.21724
758.43        73.21703
758.85        73.60593
759.26        73.71249
759.68        73.51864
760.10        73.55004
760.51        72.50617
760.93        72.91815
761.34        73.14902
761.76        73.32365
762.18        73.42937
762.59        73.35645
763.01        73.36175
763.42        73.49863
763.84        73.52071
764.26        73.47791
764.67        73.55542
765.09        73.72869
765.50        73.73299
765.92        73.58706
766.33        73.38248
766.75        73.15866
767.16        73.09031
767.58        73.15845
768.00        73.44093
768.41        73.82734
768.83        73.83112
769.24        73.53009
769.66        73.49791
770.07        73.70224
770.49        73.82491
770.90        73.81409
771.32        73.65763
771.73        73.46213
772.15        73.43286
772.56        73.60059
772.97         73.9018
773.39        74.18884
773.80        74.18881
774.22        73.91467
774.63        73.82975
775.05        73.94048
775.46         73.9808
775.88        73.92524
776.29         74.0086
776.70        74.19066
777.12        74.29796
777.53        74.32684
777.95        74.31051
778.36        74.27994
778.77        74.25948
779.19        74.26432
779.60         74.2926
780.02        74.32256
780.43        74.37589
780.84         74.4277
781.26        74.42437
781.67         74.4408
782.09        74.64275
782.50        74.52761
782.91        75.20851
783.33        74.59898
783.74        74.56946
784.15         74.5397
784.57        74.32396
784.98        74.02563
785.39        74.09693
785.81        74.49685
786.22        74.72486
786.63        74.73401
787.04        74.83108
787.46        75.01495
787.87        75.07152
788.28        75.01104
788.70         74.9893
789.11        75.00804
789.52        74.91595
789.93        74.77851
790.35        74.96053
790.76        75.37767
791.17        75.37502
791.58        74.98723
792.00        74.86118
792.41        75.05257
792.82        75.06611
793.23        74.95965
793.65        75.21007
794.06        75.72917
794.47        75.98375
794.88        75.92532
795.29        75.67822
795.71        75.71581
796.12        75.30415
796.53        74.72688
796.94        74.75946
797.35        75.33242
797.76        75.47295
798.18        75.18031
798.59        75.21791
799.00        75.59341
799.41        75.83621
799.82        75.87974
800.23        75.86897
800.64        75.79907
801.06        75.60415
801.47        75.39166
801.88        75.26236
802.29        75.25346
802.70        75.35997
803.11        75.52211
803.52         75.6205
803.93        75.62171
804.34        75.55537
804.75         75.4977
805.17        75.54521
805.58        75.74864
805.99        76.08837
806.40         76.4418
806.81        76.51787
807.22        76.30358
807.63        76.03715
808.04        75.82125
808.45        75.68271
808.86         75.6691
809.27        75.82309
809.68        76.05783
810.09        76.17354
810.50         76.1233
810.91        75.96976
811.32        75.79092
811.73        75.72704
812.14        75.81847
812.55        75.97166
812.96        76.12923
813.37        76.31339
813.78        76.43935
814.19        76.28333
814.60        75.94923
815.01        75.81293
815.42        75.91894
815.83        76.08569
816.24         76.2527
816.65        76.38699
817.05        76.45466
817.46        76.42738
817.87        76.37013
818.28        76.32791
818.69        76.31479
819.10        76.31999
819.51        76.32368
819.92        76.29132
820.33        76.22224
820.74        76.13808
821.14        76.06954
821.55        76.09467
821.96        76.20645
822.37        76.37982
822.78        76.58002
823.19          76.742
823.60        76.83725
824.00        76.90398
824.41        76.89023
824.82        76.81026
825.23        76.67701
825.64        76.49455
826.04        76.34731
826.45         76.3339
826.86        76.48383
827.27         76.7656
827.68        77.08067
828.08        77.29162
828.49        77.28181
828.90        77.12454
829.31        76.89536
829.72        76.72897
830.12        76.69306
830.53        76.70753
830.94        76.73961
831.35        76.69622
831.75        76.58128
832.16         76.3891
832.57        76.20988
832.97        76.15292
833.38        76.23503
833.79        76.41451
834.20        76.63262
834.60        76.80238
835.01         76.9118
835.42        76.98149
835.82        77.03603
836.23        77.03568
836.64        77.01183
837.04        76.98311
837.45        76.94553
837.86        76.99641
838.26        77.16243
838.67        77.40992
839.08        77.68073
839.48        77.85631
839.89        77.90326
840.29         77.8448
840.70        77.76058
841.11        77.78574
841.51        77.96535
841.92        78.22106
842.33        78.46169
842.73        78.53074
843.14        78.34583
843.54         77.9987
843.95        77.61033
844.35        77.39526
844.76        77.39845
845.17        77.55818
845.57        77.78955
845.98         77.9067
846.38        77.88249
846.79        77.75324
847.19        77.57987
847.60        77.40624
848.00         77.2822
848.41        77.14295
848.81        77.04858
849.22        77.02511
849.62        77.10707
850.03        77.27158
850.43        77.44505
850.84        77.41471
851.24          77.197
851.65         76.7823
852.05        76.40517
852.46        76.37293
852.86        76.74657
853.27        77.40763
853.67         78.0433
854.07        78.43436
854.48        78.48793
854.88        78.31816
855.29        77.93879
855.69        77.60582
856.10         77.3211
856.50        77.12104
856.90         76.9464
857.31        76.73562
857.71        76.52683
858.12        76.30202
858.52        76.16602
858.92        76.14235
859.33        76.21393
859.73        76.39722
860.13        76.57969
860.54         76.5968
860.94        76.44507
861.34        76.13548
861.75        75.75211
862.15        75.49468
862.55        75.38664
862.96        75.39692
863.36        75.44558
863.76        75.38185
864.17        75.16644
864.57        74.86558
864.97        74.59028
865.38        74.49207
865.78        74.64864
866.18         74.9818
866.58        75.34422
866.99         75.4925
867.39        75.38754
867.79        75.07326
868.19        74.69331
868.60        74.42163
869.00        74.29852
869.40         74.3073
869.80        74.37986
870.21        74.40265
870.61        74.41029
871.01        74.37091
871.41        74.34576
871.81        74.41639
872.22        74.56562
872.62        74.80083
873.02        75.02533
873.42        75.05796
873.82        74.86942
874.22        74.54183
874.63        74.24985
875.03         74.2133
875.43        74.47562
875.83        74.93959
876.23         75.4854
876.63        75.91177
877.03        76.13229
877.44        76.19226
877.84        76.09216
878.24        75.80611
878.64        75.38256
879.04        74.86537
879.44        74.38591
879.84        74.12646
880.24        74.11376
880.64        74.29179
881.04        74.59347
881.44        74.88575
881.84        75.10023
882.24        75.25818
882.65        75.28437
883.05        75.17108
883.45        74.89954
883.85        74.50764
884.25         74.1086
884.65        73.87431
885.05        73.84108
885.45        73.95334
885.85        74.17147
886.25        74.41616
886.65        74.63479
887.05        74.84428
887.45          74.964
887.85        74.87237
888.25        74.56363
888.65          74.074
889.04        73.54519
889.44        73.26495
889.84        73.28907
890.24        73.54198
890.64        73.89209
891.04        74.12255
891.44        74.16612
891.84        74.08793
892.24        73.94556
892.64        73.82601
893.04        73.77021
893.44        73.76102
893.83        73.81062
894.23        73.87856
894.63        73.97966
895.03        74.10652
895.43        74.29187
895.83        74.57817
896.23        74.94676
896.63        75.36532
897.02        75.70296
897.42        75.81618
897.82        75.67579
898.22        75.34223
898.62        74.96342
899.01        74.80114
899.41        74.90608
899.81        75.21706
900.21        75.61438
900.61        75.89313
901.00        75.97482
901.40        75.93217
901.80        75.81531
902.20        75.71651
902.59        75.67599
902.99        75.64294
903.39        75.60249
903.79        75.52741
904.18        75.41167
904.58        75.29096
904.98        75.18397
905.38         75.1164
905.77        75.07872
906.17        75.05846
906.57        75.03883
906.96        75.01446
907.36        74.96066
907.76        74.92103
908.15        74.87394
908.55         74.7085
908.95        74.45441
909.34        74.10986
909.74        73.87004
910.14        73.98022
910.53        74.47405
910.93        75.25482
911.33         76.0488
911.72        76.38952
912.12        76.16165
912.52        75.54742
912.91        74.83624
913.31        74.46976
913.70         74.5491
914.10        74.95054
914.49        75.53755
914.89        75.99068
915.29        76.20319
915.68        76.23036
916.08        76.19259
916.47        76.27644
916.87        76.52856
917.26        76.85655
917.66        77.08188
918.05        76.90394
918.45        76.28246
918.84        75.36681
919.24        74.41994
919.64        73.95127
920.03        74.10204
920.42        74.71705
920.82        75.51569
921.21          76.039
921.61        76.14417
922.00        75.96615
922.40        75.68549
922.79          75.709
923.19        76.08298
923.58        76.66705
923.98        77.19958
924.37        77.36212
924.77         77.0761
925.16        76.47423
925.55        75.72949
925.95        75.12546
926.34        74.79016
926.74         74.6393
927.13        74.69708
927.52        74.89201
927.92        75.18907
928.31        75.57614
928.70        75.98213
929.10        76.27688
929.49        76.42133
929.89        76.39367
930.28        76.27031
930.67        76.08898
931.07        75.87151
931.46        75.64332
931.85        75.40871
932.24        75.20097
932.64        75.03477
933.03        74.93021
933.42        74.88741
933.82        74.88454
934.21         74.9255
934.60        75.02066
934.99        75.18129
935.39        75.40842
935.78        75.71817
936.17        76.05863
936.56        76.40411
936.96        76.70613
937.35        76.97715
937.74        77.19282
938.13        77.28302
938.53        77.15491
938.92        76.81189
939.31        76.26956
939.70        75.69878
940.09        75.39782
940.49        75.42646
940.88        75.76167
941.27        76.15894
941.66        76.23589
942.05        75.92277
942.44        75.33619
942.84        74.76275
943.23         74.6206
943.62        75.03204
944.01        75.84766
944.40        76.77267
944.79        77.28686
945.18        77.22372
945.57        76.74379
945.97        76.05514
946.36        75.54081
946.75        75.28134
947.14        75.17092
947.53        75.14238
947.92        75.08788
948.31        74.97076
948.70        74.85786
949.09        74.75809
949.48        74.66308
949.87         74.5732
950.26        74.46799
950.65        74.37674
951.04        74.35609
951.43        74.41709
951.82        74.55831
952.21        74.70618
952.60        74.73618
952.99        74.62086
953.38        74.38124
953.77        74.15057
954.16        74.13726
954.55        74.36311
954.94        74.75642
955.33        75.12043
955.72        75.12679
956.11        74.70433
956.50        73.96796
956.89        73.13062
957.28        72.56706
957.66        72.43724
958.05        72.61703
958.44          73.002
958.83        73.40763
959.22        73.73361
959.61        73.99147
960.00        74.16095
960.39        74.21107
960.78        74.13041
961.16        73.94632
961.55         73.5602
961.94        72.95681
962.33        72.19358
962.72        71.35887
963.11        70.64769
963.49        70.31305
963.88        70.40516
964.27        70.86501
964.66        71.54015
965.04        72.15833
965.43         72.5148
965.82         72.6823
966.21        72.74789
966.60        72.88739
966.98        73.14531
967.37        73.40765
967.76        73.58001
968.15        73.47896
968.53        73.09764
968.92        72.56956
969.31        72.02647
969.69        71.61485
970.08        71.40508
970.47        71.38559
970.86        71.69956
971.24        72.58216
971.63         73.8999
972.02         75.4641
972.40        76.97845
972.79        77.94108
973.17         78.3446
973.56        78.25376
973.95        77.79062
974.33        77.15935
974.72        76.47438
975.11        75.70129
975.49        74.96254
975.88        74.47842
976.26        74.32091
976.65        74.48386
977.04        74.78821
977.42        74.86489
977.81        74.55145
978.19        73.88769
978.58        73.21863
978.96        73.11349
979.35        73.66614
979.74        74.73241
980.12         75.8474
980.51        76.04176
980.89        75.23267
981.28         73.6125
981.66        71.84431
982.05        71.16125
982.43        71.89441
982.82        73.59483
983.20        75.62611
983.59        76.84863
983.97        77.04826
984.35        76.50528
984.74        75.52506
985.12        74.65561
985.51        74.14046
985.89        73.84846
986.28        73.76202
986.66        73.94818
987.04        74.33416
987.43        74.87737
987.81        75.50335
988.20        75.94009
988.58        76.13359
988.96        76.13575
989.35        75.80984
989.73        75.05526
990.12        73.83604
990.50        72.10561
990.88        70.33237
991.27        69.62313
991.65        70.31891
992.03        72.08274
992.42        73.89902
992.80        74.76276
993.18        74.40054
993.56        73.04137
993.95        71.19937
994.33        70.13363
994.71        70.49553
995.10        71.63138
995.48        72.96245
995.86        73.83614
996.24        74.16078
996.63        74.12667
997.01        73.85039
997.39        73.41444
997.77        72.94402
998.15        72.45543
998.54        71.94058
998.92        71.40708
999.30        70.86079
999.68        70.34657
1000.06        70.12587
1000.45        70.55743
1000.83        71.71779
1001.21        73.35197
1001.59        74.98832
1001.97        75.98058
1002.35        76.19625
1002.73        75.80718
1003.12        74.99633
1003.50        74.12212
1003.88        73.48485
1004.26        72.97569
1004.64        72.75726
1005.02        73.00839
1005.40        73.71227
1005.78        74.92641
1006.16        76.19109
1006.54        76.63766
1006.92        76.04826
1007.30        74.58491
1007.69        73.09874
1008.07        72.92365
1008.45        74.39316
1008.83        77.04652
1009.21         79.7819
1009.59        81.02896
1009.97        80.39771
1010.35        78.12955
1010.73        75.08898
1011.11        73.53149
1011.49        74.47339
1011.86        77.28896
1012.24        80.38029
1012.62        81.79176
1013.00        81.17223
1013.38        79.26701
1013.76         76.8919
1014.14        75.37254
1014.52        75.16336
1014.90        75.74345
1015.28        76.95364
1015.66        78.46987
1016.04         79.9475
1016.41        81.61281
1016.79         82.6531
1017.17        82.20599
1017.55        80.28821
1017.93        77.23498
1018.31         74.1517
1018.69        72.81889
1019.06        73.77139
1019.44        76.67902
1019.82        80.70432
1020.20        83.82693
1020.58        85.04427
1020.95        84.71373
1021.33        83.63029
1021.71        82.83675
1022.09         82.5878
1022.46        82.54878
1022.84         82.3053
1023.22        81.03686
1023.60        78.49324
1023.97        74.68954
1024.35        70.70158
1024.73        68.58831
