SpectraSmart Spectrum 2.9.0.0
--------- Device Information -----------
Spectrum Name :  反射率_0
Saving Time :  2024/04/28 00:05:44
Spectro-Module Model Name : SE2030-DUVN
Spectro-Module Serial Number : OS361AC55029948
Wavelength Start : 200
Wavelength End : 1025
Wavelength Unit : Wavelength(nm)
Spectrum Unit : Reflectance(%)
-----------Spectrum Setting ------------
Integration Time : 20ms
Average : 10
Boxcar : 0
Background removal :  enabled
linearity correction :  enabled
SC :  disabled
Intensity correction :  disabled
DWT denoise :  enabled
savitzky-golay :  disabled
FFT :  disabled
Running average :  disabled
Kalman :  disabled
High pass :  disabled
---------------BEGIN--------------------
Wavelength(nm)             Reflectance(%)
200.29               0
200.75        31.77055
201.21        66.56831
201.67        89.57159
202.13        94.79155
202.58        88.78145
203.04        77.55915
203.50        65.93524
203.96        61.18658
204.42        63.82021
204.88        69.54517
205.34        75.91211
205.80        81.60234
206.26        86.82572
206.72        93.29312
207.18        99.81205
207.64          97.927
208.10        86.28752
208.55        73.85717
209.01        64.17358
209.47        55.61305
209.93        43.90916
210.39        18.82362
210.85       -52.41919
211.31       -136.1167
211.77       -32.10617
212.23        36.01812
212.69        59.89785
213.14        67.02165
213.60        66.06739
214.06        58.77521
214.52        44.77142
214.98        36.66715
215.44        45.11893
215.90        58.28708
216.36        67.58852
216.81        70.66106
217.27         69.1821
217.73        64.97675
218.19        59.68517
218.65        55.73317
219.11        54.14888
219.57        54.69567
220.02        55.70858
220.48        54.83126
220.94        51.31802
221.40        46.50905
221.86        43.99286
222.32        47.15047
222.77        54.73635
223.23        64.19568
223.69        71.73119
224.15        73.28822
224.61        68.90082
225.06         59.9109
225.52        49.88224
225.98        45.70031
226.44         48.2995
226.90        53.71881
227.36        58.48523
227.81        59.92137
228.27        58.15695
228.73        54.23326
229.19        48.88826
229.65         43.8502
230.10        40.16936
230.56        37.76656
231.02        36.41398
231.48        35.83702
231.93        35.75437
232.39        36.28764
232.85        37.42654
233.31        39.09402
233.77        41.11914
234.22        43.46303
234.68        45.41729
235.14        46.24559
235.60        45.87061
236.05        44.24223
236.51        42.48898
236.97        42.98286
237.43        46.43752
237.88        52.29276
238.34        57.98937
238.80        60.87384
239.26         60.2767
239.71        55.62226
240.17        47.18054
240.63        42.84722
241.08          49.189
241.54         60.3506
242.00        69.17503
242.46        72.86729
242.91        72.34515
243.37         67.3623
243.83        55.04477
244.28        38.14038
244.74        35.28069
245.20        47.73661
245.66        60.42709
246.11        67.03486
246.57        69.63994
247.03        70.79091
247.48        71.16385
247.94        72.29352
248.40        74.69871
248.85        76.67249
249.31        77.88441
249.77         78.5631
250.22        78.95454
250.68        79.24406
251.14        79.66097
251.59        80.47244
252.05        81.86093
252.51        83.67413
252.96         85.4342
253.42        86.00366
253.88        84.54534
254.33        82.43829
254.79        80.46039
255.25         77.9808
255.70        75.06887
256.16        72.46449
256.62        71.25282
257.07        72.66394
257.53        76.00819
257.99        79.47057
258.44        81.43744
258.90        81.05925
259.35        78.43697
259.81        75.08755
260.27        71.58553
260.72        68.67716
261.18        66.88228
261.63        65.49341
262.09          64.675
262.55        64.18276
263.00         63.7732
263.46        63.60119
263.91        63.26861
264.37        62.63001
264.83        61.60876
265.28         60.2901
265.74        58.95083
266.19        57.68956
266.65         56.6145
267.11        55.60261
267.56        54.59845
268.02        53.63774
268.47        52.66548
268.93        51.71907
269.38        50.75063
269.84        49.71053
270.30        48.58758
270.75        47.39864
271.21        46.19059
271.66        44.98317
272.12        43.82164
272.57        42.67405
273.03        41.60128
273.48        40.60306
273.94        39.73932
274.39        38.96623
274.85        38.29887
275.31        37.66304
275.76        37.01462
276.22        36.39126
276.67        35.76369
277.13        35.20529
277.58        34.66441
278.04        34.17288
278.49        33.63679
278.95        33.04277
279.40        32.34653
279.86        31.64258
280.31         30.9594
280.77        30.46279
281.22        30.13004
281.68        29.95177
282.13        29.83264
282.59        29.69708
283.04        29.49744
283.50        29.27414
283.95        29.03625
284.41        28.84285
284.86        28.69101
285.32         28.5881
285.77        28.49612
286.22        28.40307
286.68        28.32463
287.13         28.2367
287.59        28.19545
288.04        28.20602
288.50         28.2932
288.95        28.40724
289.41        28.53737
289.86         28.6159
290.32        28.65855
290.77        28.69215
291.22        28.74016
291.68        28.82744
292.13        28.97123
292.59        29.19425
293.04          29.559
293.50         30.1855
293.95        31.07441
294.40        32.19848
294.86        33.45156
295.31        34.65485
295.77        35.77436
296.22        36.83949
296.68        37.94261
297.13        39.20535
297.58        40.64938
298.04        42.21532
298.49        43.81634
298.95        45.37417
299.40        46.86858
299.85        48.34547
300.31        49.87438
300.76        51.49684
301.21         53.2232
301.67        55.04203
302.12        56.85731
302.58        58.61721
303.03        60.28475
303.48        61.90939
303.94         63.6109
304.39        65.48037
304.84        67.55849
305.30        69.81397
305.75        72.09074
306.20         74.2464
306.66        76.26109
307.11        78.12147
307.57        79.95298
308.02        81.82547
308.47        83.77268
308.93        85.76833
309.38        87.66911
309.83        89.36987
310.29        90.88354
310.74        92.23052
311.19        93.56022
311.65        95.07317
312.10        96.76001
312.55        98.54806
313.00        100.2772
313.46        101.7197
313.91        102.8132
314.36        103.6463
314.82         104.344
315.27        105.1016
315.72        105.9755
316.18        106.9214
316.63        107.8501
317.08        108.6646
317.53        109.3412
317.99        109.9154
318.44        110.4524
318.89        111.0194
319.35         111.634
319.80        112.2819
320.25        112.9095
320.70        113.4457
321.16        113.8629
321.61        114.1994
322.06         114.516
322.51        114.9219
322.97        115.4184
323.42        116.0079
323.87        116.5789
324.32        116.9724
324.78        117.1369
325.23        117.1705
325.68        117.1589
326.13        117.2768
326.59         117.548
327.04        117.9696
327.49        118.4646
327.94        118.9426
328.39         119.369
328.85        119.7435
329.30        120.1268
329.75        120.4378
330.20        120.6772
330.66        120.8171
331.11        121.0075
331.56        121.3719
332.01        121.9476
332.46        122.6926
332.92          123.45
333.37        124.1131
333.82        124.5611
334.27        124.8397
334.72        125.0225
335.17        125.2419
335.63        125.5207
336.08          125.89
336.53        126.2959
336.98         126.698
337.43        127.0877
337.88        127.4918
338.34         127.921
338.79        128.4455
339.24        129.0459
339.69        129.6893
340.14        130.3281
340.59        130.8935
341.05        131.3652
341.50        131.7748
341.95        132.1246
342.40        132.4389
342.85        132.7374
343.30        133.0085
343.75        133.3033
344.20        133.7011
344.66        134.2112
345.11        134.8059
345.56        135.3745
346.01        135.7342
346.46         135.849
346.91        135.7709
347.36        135.6386
347.81          135.67
348.26        135.9086
348.72        136.2881
349.17        136.6673
349.62        136.8455
350.07        136.7709
350.52        136.5154
350.97        136.1861
351.42        135.9497
351.87        135.8544
352.32         135.845
352.77        135.8508
353.22        135.7679
353.67        135.5598
354.13        135.2646
354.58        134.8914
355.03        134.5193
355.48         134.161
355.93        133.7913
356.38        133.3524
356.83        132.7567
357.28        132.0005
357.73        131.1346
358.18        130.2432
358.63        129.4504
359.08        128.7855
359.53        128.2057
359.98         127.662
360.43        127.0755
360.88        126.4135
361.33        125.6958
361.78        124.9194
362.23        124.0719
362.68        123.1608
363.13         122.208
363.58        121.2536
364.03        120.2664
364.48        119.4195
364.93        118.5933
365.38        117.7948
365.83        116.9542
366.28        116.0568
366.73        115.1117
367.18        114.1802
367.63        113.3657
368.08        112.6845
368.53        112.1081
368.98        111.5323
369.43        110.7891
369.88        109.8489
370.33        108.7683
370.78        107.6837
371.23        106.8172
371.68        106.2205
372.13        105.8206
372.58        105.4912
373.03        105.0279
373.48         104.368
373.93        103.5715
374.38        102.7138
374.83        101.9101
375.28        101.1976
375.72        100.5254
376.17        99.88992
376.62        99.21671
377.07        98.49675
377.52        97.75462
377.97        97.05169
378.42        96.47733
378.87        96.04238
379.32        95.71423
379.77        95.39958
380.22        94.95426
380.67        94.34835
381.11        93.62895
381.56        92.88639
382.01        92.28804
382.46        91.88381
382.91        91.62386
383.36         91.4268
383.81        91.16219
384.26        90.79196
384.71        90.36014
385.15        89.89752
385.60        89.51003
386.05         89.2036
386.50        88.94992
386.95        88.72225
387.40        88.49029
387.85        88.24268
388.29        87.93008
388.74        87.66303
389.19        87.39645
389.64        87.10931
390.09        86.77089
390.54        86.36774
390.98        85.86733
391.43        85.34953
391.88        84.85107
392.33        84.33987
392.78        83.87738
393.23        83.51368
393.67        82.93713
394.12        82.33804
394.57        82.83517
395.02        83.02828
395.47        83.06497
395.91        82.59117
396.36        82.37412
396.81        82.43977
397.26        82.36369
397.71        82.12289
398.15        81.85435
398.60        81.64907
399.05        81.30167
399.50        80.92373
399.95          80.868
400.39        81.03027
400.84        80.92766
401.29        80.52953
401.74        79.90358
402.18        79.26272
402.63        79.18102
403.08        79.55487
403.53         79.5462
403.97        79.10332
404.42        78.76653
404.87        78.59445
405.32        78.48067
405.76        78.42502
406.21         78.3785
406.66        78.32809
407.11        78.40297
407.55        78.51955
408.00        78.35981
408.45        77.95217
408.90        77.36447
409.34        76.79518
409.79        76.77315
410.24        77.16918
410.68        77.28455
411.13         77.0556
411.58        76.89201
412.03        76.85432
412.47        76.85596
412.92         76.8793
413.37        76.96393
413.81        77.01661
414.26        76.96129
414.71        76.76783
415.15         76.4799
415.60        76.17368
416.05        76.05383
416.49         76.1723
416.94        76.45329
417.39        76.77499
417.83        76.94189
418.28        76.89729
418.73        76.68685
419.17        76.40711
419.62        76.22113
420.07        76.18227
420.51        76.23731
420.96        76.32076
421.41        76.30967
421.85        76.15573
422.30        75.87086
422.74        75.55676
423.19        75.66482
423.64        76.12228
424.08         76.4353
424.53        76.43916
424.98        76.50974
425.42        76.66319
425.87        76.41279
426.31        75.93604
426.76        76.14874
427.21        76.86871
427.65        76.78342
428.10        76.00087
428.54        75.75636
428.99        76.11763
429.44        76.49596
429.88        76.71523
430.33        76.63072
430.77        76.27948
431.22        76.20246
431.66        76.40279
432.11        76.58313
432.56        76.76755
433.00        76.89687
433.45        76.72553
433.89        76.79119
434.34        77.18796
434.78        75.83307
435.23        75.53276
435.67        76.31382
436.12         77.4341
436.57         77.5817
437.01        76.63229
437.46        76.13182
437.90        76.61643
438.35        77.56779
438.79        77.10678
439.24        77.32049
439.68        77.59406
440.13        77.47434
440.57        77.11359
441.02        77.40651
441.46         78.1545
441.91        78.24729
442.35        77.76013
442.80        77.50089
443.24        78.35725
443.69        78.22073
444.13        77.47117
444.58        77.51251
445.02        77.56998
445.47        77.89375
445.91         78.1446
446.36        78.23143
446.80        78.06234
447.24        78.36297
447.69         77.8931
448.13         78.0716
448.58        78.43652
449.02        78.52113
449.47        78.33508
449.91        78.27145
450.36        78.37314
450.80        78.36454
451.25        78.29062
451.69        78.32034
452.13        78.44526
452.58        78.54279
453.02        78.58488
453.47        78.56057
453.91        78.43176
454.36        78.37649
454.80        78.33152
455.24        77.85324
455.69        77.07813
456.13        77.09312
456.58        76.60715
457.02        76.95377
457.46        77.38833
457.91        77.17086
458.35        76.62715
458.79        76.33519
459.24        76.46142
459.68        76.42303
460.13        76.17675
460.57        75.99681
461.01        76.32803
461.46        75.32749
461.90        75.28922
462.34        75.69933
462.79        75.89813
463.23        75.84214
463.68        75.27449
464.12        75.10944
464.56        75.34607
465.01        75.51965
465.45        75.44204
465.89        75.40889
466.34        75.45872
466.78         75.0318
467.22        74.16769
467.67        75.02376
468.11          74.451
468.55        74.58452
468.99        74.47836
469.44        74.49937
469.88         74.6224
470.32        74.69103
470.77        74.69907
471.21        74.65257
471.65        74.54837
472.10        74.40269
472.54        74.21177
472.98        74.04269
473.42        73.91891
473.87        73.75728
474.31        73.57122
474.75        73.68172
475.20        73.95675
475.64        73.91801
476.08        73.61188
476.52         73.4202
476.97        73.33075
477.41        73.65268
477.85        73.31679
478.29        73.18634
478.74        73.82907
479.18        72.95664
479.62        73.51638
480.06        73.38153
480.50        73.34547
480.95         73.3792
481.39        73.45795
481.83        73.22207
482.27        73.32658
482.72        73.18208
483.16        73.17438
483.60        73.10577
484.04         73.0304
484.48        72.88505
484.93        72.90437
485.37        73.03866
485.81         73.5966
486.25        73.96735
486.69        74.02814
487.14        72.99927
487.58        73.13014
488.02        73.49233
488.46        73.46694
488.90        73.41476
489.34        72.52882
489.79        72.20605
490.23        72.70365
490.67        72.91245
491.11        72.87849
491.55        72.77603
491.99        72.65505
492.43         72.6058
492.88        72.63579
493.32        72.64994
493.76        72.60474
494.20        72.60803
494.64        72.68512
495.08         72.6142
495.52        72.46587
495.96        72.81679
496.41        73.45347
496.85        73.23071
497.29        72.35767
497.73         72.0937
498.17        72.71101
498.61        73.01426
499.05        72.92935
499.49        72.77155
499.93        72.62163
500.37         72.4271
500.82        72.19913
501.26        72.23693
501.70        72.62769
502.14        71.82791
502.58        72.41728
503.02        72.46949
503.46        72.43337
503.90        72.45602
504.34        72.46329
504.78        72.50001
505.22        72.49619
505.66        72.40671
506.10        72.33028
506.54        72.22757
506.98        72.05283
507.42        72.62672
507.86        72.90931
508.30        72.24786
508.74        72.74728
509.18        72.49963
509.62        72.28397
510.06        72.14889
510.50        72.14594
510.94        72.20496
511.38        72.26195
511.82        72.27879
512.26        72.23261
512.70        72.15426
513.14        72.06529
513.58        71.96858
514.02         71.8744
514.46        71.82613
514.90        71.85764
515.34        71.77064
515.78        71.97665
516.22        72.12466
516.66        72.29085
517.10        72.38791
517.54        72.39857
517.98        72.34083
518.42        72.23714
518.86        72.13995
519.30        72.06875
519.74        72.01006
520.18         71.9725
520.62        71.96745
521.06        71.99415
521.50        72.05592
521.93        72.12867
522.37        72.15415
522.81        72.12772
523.25        72.06081
523.69        71.99065
524.13        71.97833
524.57        72.03555
525.01        72.14122
525.45        72.25533
525.89        72.31512
526.32        72.29846
526.76        72.23732
527.20        72.15764
527.64        72.11055
528.08        72.10662
528.52        72.12332
528.96        72.13952
529.40        72.12283
529.83        72.05965
530.27        71.98371
530.71        71.89038
531.15         71.7793
531.59        71.66021
532.03         71.5352
532.46        71.43391
532.90        71.42673
533.34        71.51237
533.78        71.66466
534.22        71.82675
534.66        71.91221
535.09        71.89189
535.53        71.81247
535.97        71.69678
536.41        71.60072
536.85        71.54446
537.28        71.51449
537.72        71.50837
538.16        71.51246
538.60        71.52277
539.04        71.55976
539.47        71.59325
539.91        71.61494
540.35        71.60371
540.79        71.57741
541.22        71.53609
541.66        71.49178
542.10          71.448
542.54        71.40297
542.97        71.36237
543.41         71.3755
543.85        71.43201
544.29        71.52393
544.72        71.60619
545.16        71.64504
545.60        71.61505
546.04        71.52307
546.47        71.40699
546.91        71.33829
547.35        71.32399
547.79        71.35964
548.22        71.38586
548.66        71.31732
549.10        71.16691
549.53        71.11726
549.97        71.18524
550.41        71.23312
550.84        71.24913
551.28        71.35414
551.72        71.51645
552.15        71.53281
552.59        71.38491
553.03        71.48598
553.46        71.19294
553.90        71.16978
554.34        71.21789
554.77        71.34581
555.21        71.47038
555.65         71.4795
556.08        71.29279
556.52         71.1078
556.96        70.96598
557.39        71.02808
557.83        71.25589
558.27        71.30717
558.70        71.17695
559.14        71.15355
559.57        71.22526
560.01        71.23347
560.45        71.16048
560.88        71.11578
561.32        71.14328
561.75         71.0507
562.19        70.92039
562.63        71.03587
563.06        71.31543
563.50        71.33056
563.93        71.09171
564.37        71.02485
564.80         71.1215
565.24        71.20286
565.68        71.24111
566.11        71.27231
566.55         71.3152
566.98        71.33929
567.42        71.35625
567.85        71.34209
568.29        71.34535
568.72        71.23949
569.16        71.09389
569.60        71.13945
570.03        71.40516
570.47        71.20291
570.90        71.36411
571.34        71.65215
571.77        71.71385
572.21        71.28053
572.64        71.75061
573.08        71.13921
573.51         71.3681
573.95        71.52122
574.38        71.99456
574.82        71.52443
575.25        71.38485
575.69        71.73968
576.12        71.03713
576.56        71.21089
576.99        71.49984
577.42         71.4082
577.86        71.29469
578.29        71.55152
578.73        71.53342
579.16        71.58044
579.60        71.39711
580.03        71.32854
580.47        71.33198
580.90        71.40557
581.33        71.84032
581.77        71.77798
582.20        71.61359
582.64        71.60667
583.07        71.54323
583.51        71.36446
583.94        71.21513
584.37          71.253
584.81        71.53318
585.24        71.48415
585.68        71.18951
586.11        71.30582
586.54        71.74624
586.98         71.0338
587.41        71.69099
587.85        71.63616
588.28        71.40428
588.71        71.20551
589.15        71.82125
589.58        71.06126
590.01        71.30397
590.45        71.68278
590.88        70.94185
591.31        70.90135
591.75        70.98161
592.18        71.00124
592.61        71.13368
593.05         71.1193
593.48        72.05565
593.91        71.34061
594.35        71.23821
594.78        71.38778
595.21        71.11285
595.65        71.23353
596.08        71.28898
596.51        71.37464
596.94        71.20424
597.38        71.14994
597.81         71.1826
598.24         71.1844
598.68        71.22511
599.11        71.06359
599.54        71.06908
599.97        71.35613
600.41        71.54684
600.84         71.6208
601.27        71.40074
601.70        71.36073
602.14        70.87387
602.57        70.94139
603.00        71.39457
603.43        71.43204
603.87        71.49812
604.30        71.10844
604.73        70.83019
605.16        71.43168
605.60        71.16711
606.03        71.40511
606.46        71.55985
606.89        71.29039
607.32        71.07487
607.76        71.63647
608.19        71.11961
608.62        71.11577
609.05        71.12061
609.48        71.16172
609.92         71.0939
610.35        71.57815
610.78        71.40965
611.21        70.76589
611.64        71.35666
612.07        71.26987
612.50        71.13828
612.94         71.0361
613.37        71.01102
613.80        71.23418
614.23        71.18387
614.66        71.22052
615.09        71.16544
615.52        71.19305
615.96        71.34811
616.39        70.94736
616.82         71.1436
617.25        71.17244
617.68        71.18803
618.11        71.06454
618.54        70.87733
618.97        70.96651
619.40        71.18948
619.84        71.58641
620.27        71.34847
620.70        71.13188
621.13         70.7272
621.56        71.22529
621.99        70.92316
622.42        70.88501
622.85        70.99396
623.28        70.71615
623.71        70.78807
624.14        70.59651
624.57        70.75308
625.00        71.01633
625.43        70.74363
625.86        70.82915
626.29        71.03618
626.72        71.02892
627.15        70.89645
627.58         70.8956
628.01        71.15576
628.44        70.55704
628.87        70.21881
629.30        70.84867
629.73        70.80379
630.16        70.53596
630.59        70.64425
631.02        70.59174
631.45        70.68568
631.88        70.74419
632.31        70.80433
632.74        70.56193
633.17        70.71956
633.60        70.70877
634.03        70.73441
634.46        70.77593
634.89        70.82411
635.32        70.83904
635.75        70.80563
636.18        70.77907
636.61        70.75285
637.04        70.63622
637.47        70.47544
637.89        70.46961
638.32        70.58963
638.75        70.66425
639.18        70.67934
639.61        70.73701
640.04        70.81552
640.47        70.84473
640.90        70.82041
641.33        70.73441
641.76        70.59617
642.18        70.59982
642.61        70.47779
643.04        70.44142
643.47        70.41975
643.90        70.43213
644.33        70.47517
644.76        70.55017
645.18        70.62924
645.61        70.65116
646.04        70.60352
646.47        70.49059
646.90        70.36336
647.33        70.30375
647.75        70.33825
648.18        70.46902
648.61        70.61302
649.04        70.64029
649.47        70.54668
649.89        70.31901
650.32        70.08226
650.75         70.2215
651.18        70.64918
651.61        70.80063
652.03         70.6213
652.46        70.44983
652.89        70.42936
653.32        70.27584
653.74        70.41822
654.17        70.61404
654.60        70.98045
655.03        70.40924
655.46        70.79398
655.88        71.11069
656.31        72.57253
656.74          73.619
657.16        71.67152
657.59        70.69817
658.02         70.3799
658.45        71.34621
658.87        71.36088
659.30        70.79997
659.73        70.82971
660.15        70.66154
660.58        70.39237
661.01         70.5802
661.44        70.96844
661.86        71.07276
662.29        70.84634
662.72         70.6022
663.14         70.4511
663.57        70.48495
664.00        70.66117
664.42        70.66812
664.85        70.49894
665.27        70.37691
665.70        70.32728
666.13        70.28333
666.55         70.2548
666.98         70.2479
667.41        70.28027
667.83        70.37559
668.26        70.52249
668.69        70.72177
669.11        70.90505
669.54        70.98428
669.96        70.95302
670.39        70.74468
670.82        70.48321
671.24        70.55279
671.67        70.89472
672.09         71.0256
672.52         70.9315
672.94        70.86855
673.37        70.86435
673.80        70.82816
674.22         70.7775
674.65        70.69882
675.07        70.62328
675.50        70.57803
675.92        70.57491
676.35         70.5839
676.77        70.60432
677.20        70.65588
677.62        70.74162
678.05        70.80766
678.47        70.83565
678.90        70.97627
679.32        70.96896
679.75         71.0129
680.17        71.03563
680.60        71.05693
681.02         71.0512
681.45        70.99905
681.87         70.9229
682.30        70.71207
682.72        70.47311
683.15        70.62569
683.57        71.08245
684.00        71.16121
684.42        70.88713
684.85        70.86233
685.27        71.08812
685.70        71.20737
686.12        71.19775
686.54        71.23808
686.97        71.33218
687.39        71.36146
687.82        71.30154
688.24        71.24378
688.66        71.58981
689.09        70.96262
689.51        71.34874
689.94        71.24587
690.36        71.21838
690.78        71.21429
691.21        71.22171
691.63        71.17921
692.06        71.06818
692.48        70.92783
692.90        70.79207
693.33        70.70214
693.75        70.67812
694.17        70.71465
694.60        70.78088
695.02        70.87131
695.44        70.96527
695.87        71.01476
696.29        71.04424
696.71        71.21266
697.14        71.44899
697.56        71.48064
697.98        71.32191
698.41        71.28689
698.83         71.3681
699.25        71.41659
699.68        71.41074
700.10        71.44823
700.52        71.51566
700.94        71.59064
701.37        71.63319
701.79        71.61623
702.21        71.51707
702.64        71.37007
703.06         71.2085
703.48        71.10416
703.90        71.08144
704.33        71.11306
704.75        71.18839
705.17        71.26503
705.59        71.32857
706.01        71.36666
706.44        71.38369
706.86        71.51918
707.28         71.5739
707.70         71.6824
708.12        71.78143
708.55        71.86256
708.97        71.90883
709.39        71.91881
709.81        71.89547
710.23        71.85871
710.66        71.81508
711.08        71.77985
711.50        71.73563
711.92           71.68
712.34        71.61803
712.76        71.55216
713.19        71.50616
713.61        71.56645
714.03        71.71804
714.45        71.93239
714.87         72.1495
715.29        72.27814
715.71        72.29634
716.13        72.23077
716.56        72.10127
716.98        72.02573
717.40        72.01111
717.82        72.03513
718.24        72.08942
718.66        72.16078
719.08        72.23485
719.50        72.31058
719.92        72.37181
720.34        72.38854
720.76        72.35518
721.19        72.27621
721.61        72.16989
722.03        72.03612
722.45        71.89006
722.87         71.7389
723.29        71.63053
723.71        71.63754
724.13        71.77142
724.55        72.00961
724.97          72.285
725.39        72.48544
725.81        72.57467
726.23        72.57253
726.65        72.52393
727.07        72.50884
727.49        72.54678
727.91        72.60995
728.33        72.66148
728.75        72.64082
729.17        72.54091
729.59        72.40142
730.01        72.25824
730.43        72.16454
730.85        72.13599
731.27        72.14344
731.69        72.20547
732.10        72.35297
732.52        72.56309
732.94        72.88007
733.36        73.21112
733.78        73.28455
734.20        73.04326
734.62        73.05414
735.04        72.31475
735.46        72.43761
735.88        72.95419
736.30        72.98125
736.72        72.51648
737.13        72.34074
737.55        72.48866
737.97        72.56192
738.39         72.5442
738.81        72.59767
739.23        72.69812
739.65         72.7524
740.06        72.72742
740.48        72.72417
740.90        72.71111
741.32        72.71679
741.74        72.65942
742.16        72.71591
742.57        72.86755
742.99         73.0704
743.41        73.26721
743.83        73.35223
744.25        73.30456
744.67        73.15287
745.08        72.98136
745.50        72.88675
745.92         72.9189
746.34         73.0491
746.75        73.21011
747.17        73.30544
747.59        73.30746
748.01        73.18634
748.42        73.02161
748.84         73.0411
749.26         73.2014
749.68        73.24871
750.09        73.14737
750.51        72.94399
750.93        72.73035
751.35        72.78077
751.76        73.05102
752.18        73.15929
752.60        73.08457
753.01        73.06594
753.43        73.11304
753.85        73.16814
754.27        73.23251
754.68        73.31726
755.10        73.40694
755.52        73.47542
755.93        73.53065
756.35        73.58572
756.77        73.60703
757.18        73.69354
757.60        73.88206
758.02        73.78326
758.43        73.43386
758.85        74.16446
759.26        74.38551
759.68        74.25565
760.10        74.39409
760.51        73.28773
760.93        73.74601
761.34        73.13493
761.76        73.49596
762.18        73.70638
762.59        74.06503
763.01        74.10737
763.42        73.92487
763.84         73.9118
764.26        74.11143
764.67        74.39331
765.09        74.65202
765.50        74.49693
765.92        74.04541
766.33        73.83144
766.75         73.8752
767.16        73.88628
767.58        73.81202
768.00        74.02406
768.41        74.44382
768.83        74.47119
769.24         74.1795
769.66        74.21459
770.07        74.51238
770.49        74.59506
770.90        74.45305
771.32        74.33928
771.73        74.32433
772.15        74.33665
772.56        74.39401
772.97        74.58427
773.39        74.80135
773.80        74.76752
774.22        74.50943
774.63        74.49545
775.05        74.69524
775.46        74.77686
775.88        74.69549
776.29        74.70341
776.70         74.7933
777.12        74.84341
777.53        74.87143
777.95        74.90689
778.36        74.94482
778.77        74.95087
779.19        74.91676
779.60        74.84693
780.02        74.79905
780.43        74.84279
780.84        74.95351
781.26         75.2643
781.67        75.71109
782.09        75.59444
782.50        74.94189
782.91        75.49517
783.33        75.27639
783.74        75.41547
784.15        75.29993
784.57         75.2154
784.98        75.20047
785.39        75.35788
785.81        75.61604
786.22        75.63139
786.63        75.36617
787.04        75.34143
787.46        75.55992
787.87        75.74216
788.28        75.85911
788.70        75.98232
789.11        76.08127
789.52        76.12746
789.93        76.12997
790.35        76.14506
790.76        76.17787
791.17        76.08289
791.58        75.91547
792.00        75.87356
792.41        75.99275
792.82         76.1703
793.23        76.37846
793.65        76.53135
794.06        76.64133
794.47        76.88087
794.88        77.15683
795.29        77.00388
795.71        76.89232
796.12        76.40787
796.53        75.85954
796.94        75.89548
797.35        76.44178
797.76        76.55571
798.18        76.22772
798.59        76.21316
799.00        76.52214
799.41         76.6823
799.82        76.65328
800.23        76.63141
800.64        76.61945
801.06        76.52605
801.47        76.43519
801.88        76.41026
802.29        76.46735
802.70        76.60635
803.11        76.75297
803.52        76.76765
803.93        76.62699
804.34        76.37535
804.75        76.12804
805.17        76.07287
805.58        76.28286
805.99        76.64273
806.40        77.03518
806.81        77.31833
807.22        77.39423
807.63         77.2039
808.04        76.85355
808.45        76.63951
808.86        76.63126
809.27        76.69427
809.68        76.78745
810.09        76.88416
810.50        76.95876
810.91        77.02676
811.32        77.08349
811.73        77.12832
812.14        77.16277
812.55        77.13433
812.96        77.05737
813.37        77.08063
813.78        77.16441
814.19        77.05069
814.60        76.79967
815.01        76.72239
815.42         76.8427
815.83        76.99687
816.24        77.14956
816.65        77.30917
817.05        77.44843
817.46        77.51559
817.87        77.53391
818.28        77.49097
818.69        77.39066
819.10        77.24165
819.51        77.06821
819.92        76.91704
820.33        76.81512
820.74        76.76101
821.14        76.75269
821.55        76.81397
821.96        76.92115
822.37        77.07028
822.78        77.23248
823.19        77.35162
823.60        77.40973
824.00        77.44054
824.41        77.41219
824.82        77.37668
825.23        77.34802
825.64        77.31188
826.04        77.32046
826.45        77.41611
826.86         77.6104
827.27        77.89162
827.68        78.16338
828.08        78.29363
828.49        78.18256
828.90         77.9097
829.31        77.59909
829.72        77.46579
830.12        77.58918
830.53        77.85701
830.94        78.17708
831.35        78.35384
831.75        78.35157
832.16         78.1852
832.57        77.94501
832.97        77.74901
833.38        77.64129
833.79        77.59473
834.20        77.60661
834.60        77.67168
835.01        77.78955
835.42        77.95208
835.82        78.15125
836.23        78.28109
836.64        78.33795
837.04        78.35398
837.45        78.28677
837.86        78.17868
838.26        78.06065
838.67        77.91968
839.08        77.79635
839.48        77.73537
839.89        77.74904
840.29        77.82756
840.70         77.9628
841.11        78.13986
841.51        78.35974
841.92        78.57858
842.33        78.76812
842.73        78.87947
843.14        78.85133
843.54        78.72774
843.95        78.55394
844.35        78.43206
844.76        78.38077
845.17         78.3797
845.57        78.41037
845.98        78.39423
846.38        78.33784
846.79        78.24389
847.19        78.13933
847.60        78.00947
848.00         77.8831
848.41        77.72068
848.81        77.58395
849.22        77.49575
849.62        77.50182
850.03         77.5834
850.43        77.69514
850.84        77.67374
851.24         77.5434
851.65        77.27273
852.05        77.07629
852.46        77.21092
852.86        77.70594
853.27        78.45496
853.67        79.11512
854.07        79.43438
854.48        79.32184
854.88        78.88884
855.29        78.23166
855.69        77.77113
856.10        77.55969
856.50        77.60696
856.90         77.7089
857.31        77.56199
857.71        77.15195
858.12        76.52296
858.52         75.9587
858.92        75.77902
859.33        76.03456
859.73        76.65009
860.13         77.3143
860.54        77.51086
860.94        77.13717
861.34        76.32582
861.75        75.35025
862.15        74.70123
862.55        74.49359
862.96         74.6134
863.36        74.89959
863.76        75.06738
864.17        75.02091
864.57         74.8643
864.97        74.72694
865.38        74.78463
865.78        75.11909
866.18        75.62624
866.58        76.11995
866.99        76.30585
867.39         76.1356
867.79        75.67519
868.19        75.13245
868.60        74.76991
869.00        74.65166
869.40        74.75048
869.80        74.94692
870.21         75.0256
870.61        74.99546
871.01        74.85706
871.41        74.74325
871.81        74.84097
872.22        75.14951
872.62        75.63788
873.02        76.13491
873.42         76.3195
873.82        76.11616
874.22        75.65778
874.63        75.18304
875.03        75.00108
875.43        75.18527
875.83        75.61308
876.23         76.1633
876.63        76.63116
877.03        76.92376
877.44        77.09259
877.84        77.10669
878.24        76.88721
878.64        76.45757
879.04        75.85007
879.44         75.2411
879.84        74.87846
880.24        74.80495
880.64        74.97843
881.04        75.24162
881.44        75.30681
881.84        75.09879
882.24        74.68895
882.65         74.2412
883.05        74.14205
883.45        74.42059
883.85          74.944
884.25         75.4854
884.65        75.71841
885.05        75.57428
885.45         75.1663
885.85        74.65679
886.25        74.32454
886.65        74.27254
887.05        74.42464
887.45        74.69009
887.85        74.93216
888.25        75.09824
888.65        75.22036
889.04        75.33153
889.44        75.51662
889.84        75.76463
890.24        76.03574
890.64         76.2354
891.04        76.23376
891.44        76.01844
891.84        75.64524
892.24        75.25076
892.64        75.04237
893.04        75.07493
893.44        75.29995
893.83        75.62347
894.23        75.82103
894.63        75.85432
895.03        75.76262
895.43        75.64188
895.83        75.64716
896.23        75.80962
896.63        76.07851
897.02        76.31339
897.42         76.3521
897.82        76.16307
898.22        75.82278
898.62        75.49456
899.01        75.46178
899.41        75.75839
899.81        76.27745
900.21        76.86287
900.61        77.25851
901.00        77.36644
901.40         77.2919
901.80        77.04449
902.20        76.65276
902.59        76.18485
902.99        75.63382
903.39        75.17631
903.79         75.0869
904.18        75.40301
904.58        76.04414
904.98        76.78947
905.38        77.31763
905.77        77.52979
906.17        77.49002
906.57        77.31362
906.96        77.23129
907.36        77.28647
907.76        77.45044
908.15         77.5818
908.55         77.3772
908.95        76.83145
909.34        76.03078
909.74        75.32461
910.14        75.18085
910.53        75.68287
910.93        76.65779
911.33        77.70845
911.72        78.15798
912.12        77.83612
912.52        77.00947
912.91        76.03479
913.31        75.44775
913.70        75.37115
914.10        75.62661
914.49        76.10872
914.89         76.5581
915.29        76.87392
915.68         77.1222
916.08        77.28788
916.47        77.33646
916.87        77.28834
917.26        77.11035
917.66         76.8614
918.05        76.61792
918.45        76.40622
918.84         76.2585
919.24         76.1454
919.64        76.09038
920.03        76.11298
920.42        76.20264
920.82        76.35931
921.21        76.56977
921.61        76.79955
922.00        77.03986
922.40        77.26291
922.79         77.5117
923.19        77.73595
923.58        77.96214
923.98        78.07101
924.37        77.94091
924.77        77.56393
925.16        76.98528
925.55        76.41925
925.95        76.22577
926.34        76.49208
926.74        77.09002
927.13        77.81622
927.52        78.24004
927.92        78.26894
928.31        78.00531
928.70        77.62576
929.10        77.39387
929.49        77.38473
929.89        77.48146
930.28        77.64543
930.67         77.6898
931.07         77.5564
931.46        77.35555
931.85        77.13378
932.24        76.98274
932.64        76.93279
933.03        76.94705
933.42        77.02469
933.82        77.16661
934.21        77.36069
934.60        77.60381
934.99        77.84734
935.39        77.98406
935.78        78.02293
936.17         77.9718
936.56        77.87294
936.96        77.80335
937.35        77.83003
937.74        77.88464
938.13        77.94685
938.53        77.98475
938.92        77.98968
939.31         77.9851
939.70        77.93149
940.09        77.75764
940.49        77.44859
940.88        77.06786
941.27        76.73868
941.66         76.6534
942.05        76.84652
942.44        77.27596
942.84         77.7953
943.23        78.10239
943.62          78.139
944.01        77.95725
944.40        77.71255
944.79        77.69367
945.18        77.95432
945.57        78.36414
945.97        78.69809
946.36        78.69781
946.75          78.277
947.14        77.55087
947.53        76.66109
947.92        75.85635
948.31        75.26801
948.70        74.86662
949.09        74.65575
949.48        74.62044
949.87        74.73605
950.26        75.00802
950.65        75.39151
951.04        75.80698
951.43        76.20921
951.82        76.57077
952.21        76.85218
952.60        77.01616
952.99        77.04212
953.38        76.92679
953.77        76.69573
954.16         76.3916
954.55         76.0444
954.94        75.67863
955.33        75.31117
955.72         74.9577
956.11        74.63828
956.50          74.365
956.89        74.19604
957.28        74.20815
957.66         74.4399
958.05         74.8533
958.44        75.32754
958.83        75.67157
959.22        75.81676
959.61        75.74124
960.00        75.61488
960.39        75.72366
960.78        76.10833
961.16        76.74159
961.55        77.20358
961.94        76.89987
962.33        75.75057
962.72        74.01809
963.11        72.31763
963.49        71.52871
963.88        71.83205
964.27        72.99095
964.66        74.49143
965.04        75.40926
965.43        75.35149
965.82        74.62199
966.21         73.6739
966.60        73.21216
966.98        73.42579
967.37        74.05732
967.76        74.79369
968.15        75.04812
968.53        74.66479
968.92        73.88966
969.31        73.05736
969.69        72.62198
970.08        72.70837
970.47        73.17691
970.86        73.94965
971.24        74.89687
971.63        75.83174
972.02        76.77094
972.40        77.62971
972.79        78.17738
973.17        78.47156
973.56        78.45896
973.95        78.28448
974.33        78.18941
974.72        78.22402
975.11        78.32977
975.49        78.34269
975.88         78.0019
976.26        77.28255
976.65        76.29181
977.04         75.2312
977.42        74.40859
977.81        73.89058
978.19        73.58277
978.58        73.58833
978.96        73.99769
979.35        74.72989
979.74        75.78302
980.12        76.82813
980.51        77.11211
980.89        76.61068
981.28         75.3978
981.66        74.03588
982.05        73.60695
982.43        74.38084
982.82        75.96629
983.20        77.78104
983.59        78.75314
983.97        78.70551
984.35        77.91214
984.74        76.70325
985.12        75.67433
985.51        75.08881
985.89         74.8159
986.28        74.81966
986.66        75.12984
987.04        75.65704
987.43        76.35821
987.81        77.14761
988.20        77.72926
988.58        78.04449
988.96        78.15061
989.35        77.91398
989.73         77.2563
990.12        76.14063
990.50        74.49152
990.88        72.80363
991.27         72.2258
991.65        73.08896
992.03        75.04387
992.42        76.92786
992.80        77.52962
993.18        76.53222
993.56        74.12419
993.95        71.07227
994.33        69.38364
994.71        70.01567
995.10        72.06351
995.48        74.31712
995.86         75.4427
996.24         75.3013
996.63        74.22906
997.01        72.79153
997.39        72.10623
997.77        72.63808
998.15        73.96935
998.54        75.34724
998.92        75.79565
999.30        75.12112
999.68        73.66658
1000.06        72.03224
1000.45        71.25975
1000.83        71.74751
1001.21        73.05247
1001.59        74.64179
1001.97         75.7604
1002.35        76.22012
1002.73        76.32027
1003.12        76.09281
1003.50        75.51967
1003.88        74.76105
1004.26        73.71391
1004.64        72.87579
1005.02          72.908
1005.40        73.80836
1005.78        75.48065
1006.16        77.02935
1006.54        76.81055
1006.92        74.47819
1007.30        70.54565
1007.69        66.46243
1008.07        64.57423
1008.45        65.54619
1008.83        68.60595
1009.21        72.33396
1009.59        74.69823
1009.97        75.14113
1010.35        74.08484
1010.73        72.15328
1011.11        70.98166
1011.49        71.32982
1011.86        72.64339
1012.24        73.99802
1012.62        74.41109
1013.00        73.75336
1013.38        72.65855
1013.76        71.44585
1014.14        70.55264
1014.52         70.2003
1014.90        70.03922
1015.28        70.64169
1015.66        73.03994
1016.04        77.10883
1016.41        82.44161
1016.79        86.86703
1017.17        87.64645
1017.55        84.49226
1017.93        78.37794
1018.31        71.56902
1018.69        67.65739
1019.06        67.71798
1019.44        70.99566
1019.82        76.07475
1020.20        79.68584
1020.58        80.36452
1020.95        79.01187
1021.33        76.82344
1021.71        75.28082
1022.09         74.7086
1022.46        74.49654
1022.84        74.14752
1023.22        72.76697
1023.60        70.06277
1023.97        66.15638
1024.35        62.04969
1024.73        59.51466
