SpectraSmart Spectrum 2.9.0.0
--------- Device Information -----------
Spectrum Name :  反射率_0
Saving Time :  2024/04/27 23:51:18
Spectro-Module Model Name : SE2030-DUVN
Spectro-Module Serial Number : OS361AC55029948
Wavelength Start : 200
Wavelength End : 1025
Wavelength Unit : Wavelength(nm)
Spectrum Unit : Reflectance(%)
-----------Spectrum Setting ------------
Integration Time : 20ms
Average : 10
Boxcar : 0
Background removal :  enabled
linearity correction :  enabled
SC :  disabled
Intensity correction :  disabled
DWT denoise :  enabled
savitzky-golay :  disabled
FFT :  disabled
Running average :  disabled
Kalman :  disabled
High pass :  disabled
---------------BEGIN--------------------
Wavelength(nm)             Reflectance(%)
200.29               0
200.75        18.20238
201.21        17.23088
201.67        24.04124
202.13        31.60146
202.58        38.92887
203.04         47.5565
203.50        57.09621
203.96        65.42337
204.42        71.41086
204.88        75.35605
205.34        78.07397
205.80        80.98287
206.26        84.80894
206.72         89.9909
207.18        96.24759
207.64        98.16225
208.10         93.1265
208.55        86.63593
209.01        81.20923
209.47        76.52975
209.93        70.50528
210.39        57.83899
210.85        22.90865
211.31       -12.72182
211.77        42.01672
212.23        74.46079
212.69        85.30285
213.14         88.5871
213.60        87.91419
214.06        84.30704
214.52         76.3776
214.98        67.70487
215.44        65.56038
215.90        67.17741
216.36        69.78514
216.81        72.18061
217.27        74.23775
217.73          76.653
218.19        78.31258
218.65        76.95805
219.11        71.97463
219.57        63.41279
220.02        53.13744
220.48        47.74241
220.94        49.29897
221.40        55.26281
221.86        62.06658
222.32        66.08801
222.77        67.08601
223.23        66.42284
223.69        64.87096
224.15         63.0002
224.61        60.99212
225.06        58.43221
225.52        55.96527
225.98        54.67078
226.44        54.71483
226.90        55.42458
227.36        56.16001
227.81          56.349
228.27        55.95089
228.73        55.06821
229.19        53.55938
229.65        51.31841
230.10        48.54649
230.56        45.79784
231.02         43.4477
231.48        42.03291
231.93        41.55968
232.39        41.89109
232.85        42.98999
233.31        44.81025
233.77        47.16016
234.22        50.03497
234.68        52.72037
235.14        54.43426
235.60        55.12502
236.05        54.83104
236.51        54.57664
236.97        56.40615
237.43        60.76944
237.88        66.98361
238.34        72.85625
238.80        76.46308
239.26        77.50378
239.71        75.98722
240.17        71.88512
240.63        69.41038
241.08        72.26292
241.54        77.46523
242.00        81.66415
242.46        83.44641
242.91        83.28899
243.37        81.12825
243.83        75.97942
244.28        69.70378
244.74          70.213
245.20        77.05339
245.66        83.02131
246.11        85.78822
246.57        86.53106
247.03        85.95514
247.48        84.89939
247.94         86.6247
248.40        92.22151
248.85        98.71397
249.31        102.9383
249.77        102.5865
250.22        99.25543
250.68        95.27814
251.14        91.91486
251.59        90.06286
252.05        89.69827
252.51        89.95661
252.96        91.23882
253.42        94.71609
253.88        98.86131
254.33        102.2367
254.79        103.3501
255.25        100.6693
255.70         95.3082
256.16        89.43345
256.62        85.11563
257.07        84.66446
257.53        87.50932
257.99        91.16051
258.44        93.71169
258.90        94.24249
259.35        92.57146
259.81        90.15875
260.27        87.36256
260.72        84.66241
261.18        82.68921
261.63        80.86412
262.09        79.46236
262.55        78.22964
263.00        76.98427
263.46        75.95303
263.91        74.93518
264.37        74.14073
264.83        73.44863
265.28        72.74719
265.74        72.05317
266.19        71.06139
266.65        69.86309
267.11         68.4808
267.56        67.00578
268.02        65.72089
268.47        64.63812
268.93        63.69764
269.38        62.84733
269.84        62.05165
270.30        61.25216
270.75        60.45182
271.21        59.54597
271.66        58.30079
272.12        56.73973
272.57        54.91558
273.03        53.08627
273.48        51.55358
273.94        50.46396
274.39        49.66047
274.85        49.06972
275.31        48.45773
275.76        47.72427
276.22        46.97902
276.67        46.16901
277.13        45.36047
277.58        44.50428
278.04         43.6493
278.49        42.75859
278.95        41.93889
279.40        41.14521
279.86        40.44006
280.31        39.77151
280.77        39.21049
281.22        38.70264
281.68        38.29233
282.13        37.90949
282.59        37.53631
283.04        37.13299
283.50        36.73834
283.95        36.35688
284.41        36.05984
284.86         35.8392
285.32        35.70589
285.77        35.61298
286.22        35.54969
286.68        35.52018
287.13        35.47866
287.59        35.46378
288.04        35.44396
288.50        35.44637
288.95        35.43732
289.41        35.41786
289.86        35.32726
290.32        35.20121
290.77        35.06319
291.22        34.98613
291.68        35.06321
292.13        35.31308
292.59        35.74317
293.04        36.33506
293.50        37.08471
293.95        37.96783
294.40        38.99512
294.86        40.14885
295.31         41.3911
295.77        42.71519
296.22        44.09356
296.68         45.5349
297.13        47.02652
297.58        48.55135
298.04        50.09872
298.49        51.62547
298.95        53.12664
299.40        54.60785
299.85        56.10292
300.31         57.6778
300.76         59.3678
301.21        61.17559
301.67        63.08701
302.12        65.00433
302.58        66.88506
303.03         68.6743
303.48        70.41422
303.94        72.18074
304.39         73.9922
304.84        75.89137
305.30        77.88092
305.75         79.8689
306.20        81.81989
306.66        83.73934
307.11        85.57896
307.57        87.41591
308.02        89.23694
308.47        91.04907
308.93        92.84219
309.38        94.50089
309.83        95.96674
310.29        97.26569
310.74        98.41411
311.19        99.51015
311.65        100.6789
312.10        101.9088
312.55         103.151
313.00        104.3706
313.46        105.5257
313.91        106.5755
314.36        107.5537
314.82        108.3999
315.27        109.0103
315.72         109.387
316.18        109.5881
316.63        109.7387
317.08        110.0808
317.53        110.6701
317.99         111.432
318.44        112.2592
318.89        112.9403
319.35        113.4075
319.80         113.731
320.25        113.9591
320.70        114.1807
321.16        114.4204
321.61        114.6649
322.06        114.9167
322.51        115.1983
322.97        115.4918
323.42         115.839
323.87        116.1906
324.32        116.4809
324.78        116.6749
325.23        116.8259
325.68        116.9537
326.13        117.1266
326.59        117.3385
327.04        117.6288
327.49        117.9431
327.94        118.2296
328.39        118.4791
328.85        118.6744
329.30        118.9356
329.75        119.2861
330.20        119.7352
330.66        120.2227
331.11        120.7688
331.56        121.2807
332.01        121.7432
332.46        122.1737
332.92        122.5327
333.37        122.9278
333.82         123.317
334.27        123.6893
334.72        124.0639
335.17        124.4782
335.63        124.9083
336.08        125.4051
336.53        125.9034
336.98        126.3417
337.43        126.7025
337.88        127.0033
338.34        127.2581
338.79        127.5514
339.24        127.8902
339.69        128.2739
340.14        128.6849
340.59        129.0937
341.05        129.4935
341.50        129.8922
341.95        130.3221
342.40        130.8508
342.85        131.4758
343.30        132.1576
343.75        132.7988
344.20        133.2479
344.66        133.4796
345.11        133.5448
345.56         133.533
346.01        133.5838
346.46        133.7473
346.91        133.9898
347.36        134.2984
347.81        134.6487
348.26        135.0163
348.72        135.4015
349.17        135.7568
349.62        136.0304
350.07        136.1955
350.52        136.2491
350.97        136.1938
351.42        136.0463
351.87        135.8218
352.32        135.5283
352.77        135.1849
353.22        134.8164
353.67        134.4352
354.13        134.0595
354.58        133.6674
355.03         133.284
355.48        132.9064
355.93        132.5227
356.38        132.1135
356.83        131.6468
357.28        131.1134
357.73        130.5302
358.18        129.8961
358.63        129.2065
359.08        128.4782
359.53        127.7267
359.98        126.9941
360.43          126.35
360.88        125.7954
361.33        125.2837
361.78         124.784
362.23        124.2361
362.68        123.6092
363.13        122.9466
363.58        122.1879
364.03        121.1414
364.48        119.9809
364.93        118.6306
365.38        117.3041
365.83        116.2577
366.28        115.5427
366.73        115.0787
367.18        114.7075
367.63        114.1694
368.08        113.3929
368.53         112.461
368.98        111.4624
369.43        110.5422
369.88        109.7521
370.33        109.0403
370.78        108.3943
371.23         107.801
371.68        107.2412
372.13        106.7207
372.58        106.2065
373.03        105.6387
373.48        105.0027
373.93          104.31
374.38        103.5862
374.83        102.8735
375.28        102.1907
375.72        101.5185
376.17        100.8883
376.62        100.2747
377.07        99.67163
377.52        99.06799
377.97        98.49253
378.42        97.98932
378.87        97.55666
379.32        97.18748
379.77        96.78569
380.22         96.1999
380.67        95.41519
381.11        94.48843
381.56        93.57594
382.01        92.94998
382.46        92.68002
382.91        92.68643
383.36        92.79923
383.81         92.7478
384.26        92.45682
384.71        91.99743
385.15        91.46664
385.60        91.08548
386.05        90.87435
386.50        90.74974
386.95        90.61284
387.40        90.32596
387.85        89.86858
388.29        89.26243
388.74         88.6709
389.19        88.10549
389.64        87.57453
390.09        87.03516
390.54        86.52521
390.98        86.09203
391.43        85.80798
391.88        85.66898
392.33        85.54982
392.78        85.33385
393.23        85.03558
393.67        84.45287
394.12        83.86932
394.57        84.11005
395.02        84.61559
395.47        84.58752
395.91        83.95471
396.36        83.71152
396.81        83.89816
397.26        83.95308
397.71        83.79665
398.15        83.54844
398.60        83.28975
399.05        82.85027
399.50        82.39461
399.95         82.2849
400.39        82.46455
400.84        82.58906
401.29        82.52827
401.74        82.03726
402.18        81.28475
402.63        80.98597
403.08        81.14517
403.53        81.04561
403.97        80.67529
404.42        80.54098
404.87        80.57234
405.32        80.47389
405.76        80.21629
406.21        79.77599
406.66        79.29102
407.11        79.23405
407.55        79.52489
408.00        79.51218
408.45        79.16914
408.90        78.71243
409.34        78.31033
409.79        78.39159
410.24        78.83064
410.68        78.97186
411.13        78.75722
411.58         78.5918
412.03        78.52796
412.47         78.4645
412.92        78.38942
413.37        78.35848
413.81         78.3138
414.26        78.22358
414.71        78.06282
415.15        77.86562
415.60        77.66103
416.05         77.5705
416.49        77.62746
416.94        77.78236
417.39        77.96657
417.83         78.0723
418.28        78.05846
418.73        77.93019
419.17        77.75176
419.62        77.63636
420.07        77.62494
420.51        77.68944
420.96        77.74097
421.41        77.66322
421.85          77.423
422.30        76.90837
422.74        76.32082
423.19        76.53578
423.64        77.36738
424.08        77.62506
424.53        77.17044
424.98        77.03369
425.42        77.25751
425.87        77.01335
426.31        76.47938
426.76        76.62746
427.21        77.33907
427.65        77.55669
428.10         77.2234
428.54         77.1086
428.99        77.25553
429.44        77.22313
429.88        77.00153
430.33        76.84557
430.77        76.73171
431.22        76.69855
431.66         76.7483
432.11        76.94209
432.56          77.258
433.00        77.46279
433.45        77.41181
433.89        77.38914
434.34        77.29772
434.78        76.91108
435.23          76.337
435.67        75.85365
436.12        77.24459
436.57        77.50924
437.01        77.28802
437.46        77.04348
437.90        77.27914
438.35        78.14795
438.79        77.58806
439.24        77.57719
439.68        77.51508
440.13         77.4736
440.57        77.47663
441.02        77.57715
441.46         77.6692
441.91        77.65769
442.35        77.55936
442.80        77.21503
443.24        77.64818
443.69        77.86842
444.13        78.08181
444.58        78.22396
445.02        78.26198
445.47        78.23088
445.91        78.14117
446.36        78.08743
446.80        78.07673
447.24        78.01631
447.69        77.96168
448.13        78.15971
448.58        78.52086
449.02        78.56306
449.47        78.33757
449.91        78.27489
450.36        78.41208
450.80        78.46691
451.25         78.4344
451.69        78.41253
452.13        78.39063
452.58        78.28229
453.02        78.12762
453.47        78.02822
453.91        77.97969
454.36        78.06745
454.80        78.19791
455.24        77.90054
455.69        77.28508
456.13        77.00992
456.58        77.24116
457.02        76.62674
457.46        77.32669
457.91        76.95663
458.35        76.52499
458.79        76.25373
459.24        76.26839
459.68        76.15145
460.13        75.89075
460.57         75.9211
461.01        75.57085
461.46        75.68629
461.90        75.38823
462.34        75.49688
462.79        75.36023
463.23         75.3906
463.68        75.43674
464.12        75.31233
464.56        75.10211
465.01        75.24141
465.45        75.47707
465.89        75.39805
466.34        75.11823
466.78        74.60091
467.22        73.90056
467.67        74.96042
468.11        74.55509
468.55        74.67687
468.99        74.40176
469.44        74.34302
469.88         74.4909
470.32        74.51491
470.77         74.4223
471.21        74.34206
471.65        74.27907
472.10        74.20684
472.54         74.0969
472.98        73.98564
473.42        73.88959
473.87        73.72097
474.31        73.48991
474.75         73.5843
475.20        73.87015
475.64        73.65001
476.08        73.02857
476.52        72.84917
476.97        73.16589
477.41        73.17854
477.85        73.40795
478.29        73.45035
478.74         73.4132
479.18        72.68176
479.62        73.42952
480.06        73.37978
480.50        73.17822
480.95        73.11649
481.39         73.1764
481.83        73.04119
482.27        73.10592
482.72        72.88081
483.16        72.96126
483.60        72.88535
484.04        72.71025
484.48        72.84106
484.93        73.49257
485.37        72.61339
485.81        72.82819
486.25        73.43903
486.69        73.31618
487.14         72.2602
487.58        72.66508
488.02        73.29091
488.46        73.13734
488.90        72.91103
489.34        72.68468
489.79        72.15887
490.23        72.22838
490.67        72.36635
491.11        72.65621
491.55        72.57863
491.99        72.18335
492.43        72.03918
492.88        72.16236
493.32        72.21595
493.76        72.15231
494.20        72.16013
494.64        72.25745
495.08        72.24593
495.52        72.17235
495.96        72.46951
496.41        72.98238
496.85        72.83686
497.29        72.16058
497.73        72.06698
498.17        72.43378
498.61        72.61122
499.05        72.47968
499.49        72.37543
499.93        72.38144
500.37        72.36076
500.82         72.2881
501.26        72.53123
501.70        73.10162
502.14        72.20116
502.58        72.49044
503.02        72.34961
503.46        72.26553
503.90        72.26773
504.34        72.26022
504.78        72.21426
505.22        72.10135
505.66         72.1138
506.10         72.2765
506.54        72.30147
506.98        72.12899
507.42        72.67786
507.86        72.52168
508.30        72.51841
508.74        72.60459
509.18         72.5448
509.62        72.44414
510.06        72.31872
510.50        72.19778
510.94        72.05804
511.38        71.93658
511.82        71.89751
512.26        71.94605
512.70        72.07256
513.14        72.21516
513.58        72.24297
514.02        72.13065
514.46        71.96454
514.90        71.83799
515.34        71.65009
515.78        71.84212
516.22        72.03062
516.66        72.26447
517.10        72.41582
517.54        72.45138
517.98        72.40483
518.42        72.30128
518.86        72.19308
519.30        72.10303
519.74        72.01653
520.18        71.94661
520.62        71.91451
521.06        71.92342
521.50        71.97566
521.93        72.05068
522.37        72.09463
522.81        72.09935
523.25        72.06983
523.69        72.03126
524.13         72.0267
524.57        72.06326
525.01        72.12666
525.45        72.18069
525.89        72.16903
526.32        72.07745
526.76        71.94144
527.20        71.80265
527.64        71.73443
528.08        71.75257
528.52        71.83012
528.96        71.92871
529.40        71.98817
529.83        71.98344
530.27         71.9465
530.71        71.88334
531.15        71.81366
531.59        71.74732
532.03        71.67768
532.46        71.60703
532.90        71.56354
533.34        71.54587
533.78        71.55328
534.22        71.57201
534.66        71.57783
535.09        71.55686
535.53        71.53554
535.97         71.5151
536.41        71.51583
536.85        71.54047
537.28        71.58086
537.72        71.62627
538.16        71.65099
538.60        71.65281
539.04        71.65272
539.47        71.62408
539.91        71.60843
540.35        71.59993
540.79        71.53204
541.22        71.39133
541.66         71.5686
542.10        71.42339
542.54        71.46545
542.97        71.48958
543.41        71.52637
543.85         71.5514
544.29        71.58189
544.72        71.61559
545.16        71.60347
545.60        71.51878
546.04        71.54633
546.47        71.52926
546.91        71.28353
547.35        71.36491
547.79        71.31284
548.22        71.27308
548.66        71.19499
549.10        71.09012
549.53        71.06988
549.97         71.1321
550.41        71.17475
550.84        71.17865
551.28        71.24311
551.72         71.3634
552.15        71.37003
552.59        71.24676
553.03        71.49282
553.46        71.24644
553.90        71.26769
554.34        71.29618
554.77        71.33857
555.21         71.3521
555.65        71.34952
556.08        71.24013
556.52         71.0733
556.96        70.88678
557.39        70.94071
557.83        71.18748
558.27        71.22462
558.70        71.06158
559.14        70.99189
559.57        71.01457
560.01        71.09379
560.45        71.14724
560.88        70.96655
561.32        70.67892
561.75        70.53247
562.19        70.58935
562.63        70.78262
563.06        71.00746
563.50        70.99837
563.93        70.77396
564.37        70.71506
564.80        70.81615
565.24         70.8998
565.68        70.93285
566.11        70.96449
566.55        71.01711
566.98        71.02686
567.42         71.0241
567.85        71.09897
568.29        71.28619
568.72        71.26939
569.16        71.05338
569.60        71.27582
570.03        71.41902
570.47        71.04216
570.90        70.87196
571.34        71.39212
571.77        71.26498
572.21        70.88953
572.64        71.17745
573.08        71.00105
573.51        70.79233
573.95        70.87707
574.38        71.17664
574.82        71.01241
575.25        70.67719
575.69        70.82545
576.12        70.59612
576.56        71.14678
576.99        71.35625
577.42        71.12343
577.86        70.60908
578.29        71.20189
578.73        70.88152
579.16        71.02546
579.60        70.98534
580.03        70.91481
580.47        70.69074
580.90        71.36687
581.33        71.53111
581.77        71.36715
582.20        71.35109
582.64        71.00513
583.07        70.83732
583.51        70.65816
583.94        70.82358
584.37        71.01597
584.81        71.14668
585.24        71.23962
585.68        71.42045
586.11        70.94162
586.54        71.02517
586.98        71.12325
587.41        71.21914
587.85        70.75735
588.28        71.11078
588.71        70.81125
589.15        71.15403
589.58        70.92124
590.01          71.064
590.45        71.24664
590.88        70.59541
591.31        70.58613
591.75        70.83868
592.18        70.80211
592.61        70.67688
593.05        70.86333
593.48        71.45438
593.91        71.10553
594.35        70.92477
594.78        70.96202
595.21        70.78005
595.65        70.79335
596.08        70.76855
596.51        70.92933
596.94        70.75347
597.38        70.84515
597.81        71.17346
598.24        70.48949
598.68        70.97076
599.11        70.64351
599.54        70.91632
599.97         70.6723
600.41        70.83974
600.84        70.80705
601.27        70.72623
601.70        70.94097
602.14        70.64915
602.57         70.8986
603.00        70.70119
603.43        70.66013
603.87        70.73418
604.30         70.6903
604.73        70.67192
605.16        70.98716
605.60        70.63811
606.03        70.71195
606.46         70.8992
606.89        70.92871
607.32        70.73807
607.76        71.42407
608.19         70.9701
608.62        70.99062
609.05        70.95972
609.48         71.0125
609.92        70.93851
610.35        71.03677
610.78        71.09824
611.21        70.33514
611.64        71.03694
612.07        70.92985
612.50        70.73208
612.94        70.65941
613.37        70.76914
613.80        70.79903
614.23        70.82004
614.66        70.83978
615.09        70.88425
615.52        70.89435
615.96         70.8186
616.39        70.90899
616.82        70.53101
617.25        70.52792
617.68         70.5057
618.11        70.57391
618.54        70.67323
618.97        70.85435
619.40        70.96643
619.84        71.17424
620.27        70.78677
620.70        70.58381
621.13        70.29726
621.56        70.91782
621.99        70.85583
622.42        70.52525
622.85        70.20161
623.28        70.62067
623.71        70.48093
624.14        70.17541
624.57        70.52255
625.00        70.56264
625.43        70.35575
625.86        70.41193
626.29        70.68776
626.72        70.40532
627.15        70.49951
627.58        70.44393
628.01        70.62041
628.44        70.20993
628.87        70.28205
629.30        70.58749
629.73        70.62743
630.16        70.10044
630.59        70.41216
631.02        70.41371
631.45        70.52939
631.88        70.59352
632.31        70.62246
632.74        70.39206
633.17         70.4656
633.60        70.42173
634.03        70.42989
634.46        70.47488
634.89        70.53463
635.32        70.54808
635.75        70.49773
636.18        70.44163
636.61        70.39973
637.04        70.32218
637.47        70.25812
637.89        70.39124
638.32        70.64375
638.75        70.76427
639.18        70.72213
639.61        70.64529
640.04        70.57003
640.47        70.52039
640.90        70.51535
641.33        70.51704
641.76        70.49129
642.18        70.55876
642.61        70.43085
643.04        70.34627
643.47        70.25354
643.90         70.2025
644.33        70.20118
644.76        70.23778
645.18        70.29714
645.61        70.33117
646.04        70.32743
646.47         70.3294
646.90        70.27881
647.33        70.25182
647.75        70.24315
648.18        70.23418
648.61        70.21047
649.04        70.23341
649.47        70.27386
649.89        70.11913
650.32        69.86435
650.75         69.9425
651.18        70.31052
651.61         70.4879
652.03        70.35679
652.46        70.25287
652.89        70.32491
653.32        69.93114
653.74        69.47966
654.17        70.54393
654.60         70.4652
655.03         70.1027
655.46        70.06796
655.88        70.22478
656.31        71.82593
656.74        72.14317
657.16        70.60277
657.59        70.07122
658.02        69.91054
658.45        70.67725
658.87         70.5833
659.30          70.672
659.73        70.22176
660.15        70.28419
660.58        70.24433
661.01        70.49581
661.44        70.76271
661.86        70.70052
662.29        70.36073
662.72        70.16965
663.14        70.21088
663.57        70.32751
664.00        70.46378
664.42        70.50504
664.85        70.43799
665.27        70.35132
665.70        70.27045
666.13        70.19766
666.55        70.14875
666.98        70.11317
667.41        70.10373
667.83        70.13841
668.26        70.20835
668.69        70.32176
669.11        70.43356
669.54        70.48727
669.96        70.48001
670.39        70.33688
670.82        70.14558
671.24        70.22607
671.67        70.50744
672.09        70.54139
672.52        70.35221
672.94        70.22282
673.37        70.20819
673.80        70.26495
674.22        70.37006
674.65        70.38163
675.07        70.30358
675.50        70.22544
675.92        70.18832
676.35        70.16485
676.77        70.16225
677.20        70.29678
677.62         70.3457
678.05        70.40998
678.47        70.41712
678.90        70.40039
679.32        70.37536
679.75        70.38432
680.17        70.43621
680.60        70.52206
681.02         70.6097
681.45        70.64233
681.87        70.62319
682.30        70.51662
682.72        70.38956
683.15        70.44796
683.57        70.66726
684.00        70.72551
684.42        70.63341
684.85        70.65176
685.27        70.76809
685.70        70.85445
686.12        70.87725
686.54        70.82964
686.97        70.72994
687.39        70.68636
687.82        70.68971
688.24        70.56857
688.66        70.68851
689.09        70.38874
689.51        70.56847
689.94         70.5694
690.36        70.62885
690.78        70.70361
691.21         70.7717
691.63        70.83049
692.06         70.8414
692.48        70.71068
692.90        70.49326
693.33        70.36552
693.75        70.35749
694.17        70.39398
694.60        70.43221
695.02        70.47803
695.44        70.51229
695.87        70.49216
696.29         70.4588
696.71        70.59461
697.14        70.83363
697.56        70.89207
697.98        70.77916
698.41         70.8051
698.83          70.956
699.25        71.07743
699.68        71.12986
700.10        71.18572
700.52        71.22581
700.94        71.23401
701.37        71.19007
701.79        71.10126
702.21        70.95922
702.64        70.79581
703.06        70.63651
703.48         70.5364
703.90        70.51625
704.33        70.55547
704.75        70.65019
705.17        70.76755
705.59        70.88669
706.01        70.98274
706.44        71.04721
706.86        71.17775
707.28        71.16653
707.70        71.23286
708.12         71.3073
708.55        71.20428
708.97        70.99257
709.39        71.05428
709.81        71.34287
710.23        71.44178
710.66        71.31748
711.08        71.22173
711.50        71.18462
711.92        71.17299
712.34        71.19949
712.76        71.26559
713.19        71.34044
713.61        71.42223
714.03        71.47955
714.45        71.51668
714.87        71.53053
715.29        71.51778
715.71        71.47978
716.13        71.41524
716.56         71.3242
716.98        71.28779
717.40        71.29699
717.82        71.34658
718.24        71.41576
718.66        71.46758
719.08        71.49084
719.50        71.49068
719.92        71.48962
720.34        71.52484
720.76        71.60008
721.19         71.6909
721.61        71.77379
722.03        71.77985
722.45        71.69798
722.87        71.55338
723.29         71.3951
723.71        71.30034
724.13        71.29575
724.55        71.36522
724.97        71.47987
725.39        71.59009
725.81        71.67465
726.23        71.73796
726.65         71.7971
727.07        71.88123
727.49         71.9916
727.91        72.11421
728.33        72.20483
728.75        72.19407
729.17        72.07597
729.59        71.88377
730.01        71.68565
730.43        71.59109
730.85         71.6233
731.27        71.73855
731.69        71.90269
732.10        72.06075
732.52        72.17478
732.94        72.31818
733.36        72.45692
733.78        72.42055
734.20        72.18031
734.62        72.27055
735.04        71.65749
735.46        71.85239
735.88        72.38353
736.30        72.44586
736.72        72.02713
737.13        71.85788
737.55         71.9798
737.97        71.97475
738.39        71.87014
738.81        72.00689
739.23        72.31969
739.65        72.41386
740.06        72.27621
740.48        72.28488
740.90        72.41194
741.32        72.52708
741.74        72.50595
742.16         72.5313
742.57        72.57883
742.99        72.62495
743.41        72.66425
743.83        72.64127
744.25        72.56778
744.67        72.51323
745.08        72.52042
745.50        72.55353
745.92        72.62478
746.34        72.75928
746.75        72.89339
747.17        72.88531
747.59        72.71355
748.01        72.46625
748.42        72.23289
748.84        72.02797
749.26        71.93587
749.68        72.20474
750.09        72.68486
750.51        72.82797
750.93        72.63223
751.35        72.56462
751.76        72.65268
752.18        72.62959
752.60        72.51268
753.01         72.4537
753.43        72.45979
753.85        72.51414
754.27          72.618
754.68        72.78156
755.10        72.95772
755.52        73.06425
755.93        73.08777
756.35        73.05424
756.77        73.00817
757.18         73.0346
757.60        73.14851
758.02        73.27354
758.43        73.38266
758.85        73.46689
759.26         73.4384
759.68         73.4247
760.10        73.49814
760.51         72.6797
760.93        72.40152
761.34        72.74046
761.76        73.43411
762.18        73.81262
762.59        73.67872
763.01        73.53648
763.42        73.53844
763.84        73.50011
764.26        73.49543
764.67        73.72573
765.09         74.0641
765.50        73.92017
765.92         73.4046
766.33        73.13035
766.75        73.13531
767.16        73.13557
767.58        73.08936
768.00        73.36103
768.41        73.84673
768.83        73.92345
769.24        73.65293
769.66        73.64025
770.07        73.85497
770.49         73.9675
770.90        73.94044
771.32        73.80962
771.73        73.65837
772.15        73.61195
772.56         73.6972
772.97        73.89439
773.39        74.09432
773.80        74.06902
774.22        73.84422
774.63        73.86769
775.05        74.11125
775.46        74.24737
775.88        74.23049
776.29         74.3151
776.70        74.47434
777.12        74.55798
777.53        74.57481
777.95        74.54781
778.36        74.51913
778.77        74.53499
779.19        74.60311
779.60        74.70847
780.02         74.8092
780.43        74.85783
780.84        74.81784
781.26        74.74148
781.67        74.71331
782.09         74.6171
782.50        74.37764
782.91        74.93733
783.33        74.36979
783.74        74.49401
784.15        74.72286
784.57        74.90348
784.98        75.01115
785.39        75.25969
785.81        75.55555
786.22        75.46377
786.63         75.0622
787.04        74.85736
787.46         74.9082
787.87        74.95356
788.28        74.95067
788.70        74.96375
789.11        74.97134
789.52        74.86813
789.93        74.74701
790.35        74.99343
790.76        75.52869
791.17        75.69621
791.58        75.49858
792.00        75.48703
792.41        75.70362
792.82        75.77599
793.23         75.7169
793.65        75.78867
794.06        75.98759
794.47        76.10398
794.88         76.1265
795.29        76.18357
795.71         76.2117
796.12        76.24749
796.53        76.25066
796.94        76.18255
797.35        76.05668
797.76        75.97366
798.18        75.98062
798.59        76.02251
799.00        76.10721
799.41        76.27523
799.82        76.46746
800.23        76.56165
800.64        76.53085
801.06        76.39265
801.47        76.23113
801.88        76.10172
802.29        76.03854
802.70         76.0293
803.11        76.06915
803.52        76.14624
803.93        76.24392
804.34        76.35654
804.75        76.48415
805.17        76.57802
805.58        76.64737
805.99         76.7737
806.40        76.90183
806.81        76.69844
807.22        76.27356
807.63        76.19191
808.04        76.43693
808.45        76.48517
808.86        76.30476
809.27        76.22428
809.68        76.26144
810.09        76.28151
810.50         76.2842
810.91        76.30473
811.32        76.34424
811.73        76.42127
812.14        76.53599
812.55        76.62502
812.96        76.67816
813.37        76.79991
813.78        76.93384
814.19        76.83165
814.60        76.55866
815.01        76.43832
815.42         76.5043
815.83        76.58982
816.24        76.68676
816.65        76.85328
817.05         77.0712
817.46        77.27292
817.87        77.43872
818.28        77.48892
818.69         77.4125
819.10        77.23919
819.51        77.01422
819.92        76.82472
820.33        76.71629
820.74        76.67352
821.14        76.70246
821.55        76.84131
821.96        77.06305
822.37        77.35915
822.78        77.66348
823.19        77.85335
823.60        77.88392
824.00        77.79306
824.41        77.58768
824.82         77.3866
825.23        77.23228
825.64        77.11951
826.04        77.05717
826.45         77.0098
826.86        76.98599
827.27        76.99985
827.68        77.07961
828.08        77.29462
828.49        77.56983
828.90        77.90477
829.31        78.22323
829.72        78.41057
830.12        78.45477
830.53        78.33284
830.94        78.11446
831.35        77.88628
831.75        77.71377
832.16        77.54167
832.57        77.40112
832.97        77.30041
833.38         77.2369
833.79        77.22724
834.20        77.27284
834.60        77.36299
835.01        77.49763
835.42        77.65505
835.82        77.82744
836.23        77.92191
836.64        77.94496
837.04        77.93787
837.45        77.86784
837.86        77.78828
838.26        77.73163
838.67        77.67377
839.08        77.65918
839.48        77.73956
839.89        77.91167
840.29        78.14914
840.70        78.39304
841.11        78.55149
841.51        78.61679
841.92        78.57986
842.33        78.46993
842.73        78.33546
843.14         78.1574
843.54        77.96347
843.95        77.80131
844.35        77.76725
844.76        77.86533
845.17        78.07363
845.57        78.32881
845.98        78.47673
846.38        78.49969
846.79        78.40701
847.19         78.2597
847.60        78.10873
848.00        78.00621
848.41        77.90049
848.81        77.82483
849.22        77.75855
849.62        77.72942
850.03        77.71634
850.43        77.72169
850.84        77.65237
851.24        77.54764
851.65        77.37991
852.05        77.24619
852.46         77.2005
852.86        77.26223
853.27        77.41556
853.67        77.56542
854.07        77.77115
854.48        77.97769
854.88        78.21965
855.29        78.34056
855.69        78.26613
856.10        77.88326
856.50        77.32447
856.90        76.70548
857.31        76.24862
857.71        76.07335
858.12        76.07474
858.52        76.23373
858.92        76.37767
859.33        76.42672
859.73        76.45557
860.13        76.43913
860.54        76.36053
860.94        76.25999
861.34        76.09688
861.75        75.86391
862.15        75.62218
862.55        75.37275
862.96        75.14822
863.36        74.96256
863.76        74.81464
864.17        74.70475
864.57        74.63713
864.97        74.67135
865.38        74.88136
865.78        75.30715
866.18        75.89412
866.58        76.44427
866.99        76.62609
867.39        76.39296
867.79        75.81036
868.19        75.13871
868.60        74.73225
869.00        74.66812
869.40         74.8895
869.80        75.22845
870.21        75.37202
870.61        75.29961
871.01        75.05682
871.41        74.79431
871.81        74.71786
872.22        74.84243
872.62        75.12488
873.02        75.45999
873.42        75.65125
873.82        75.63792
874.22        75.50223
874.63        75.35644
875.03        75.32641
875.43        75.45219
875.83        75.66924
876.23        75.94315
876.63        76.21961
877.03        76.46135
877.44        76.67991
877.84        76.82036
878.24         76.7586
878.64        76.48941
879.04        76.05493
879.44        75.61155
879.84        75.38004
880.24        75.39697
880.64        75.61226
881.04        75.87966
881.44        75.93951
881.84         75.7215
882.24        75.29252
882.65        74.79638
883.05        74.58393
883.45        74.69274
883.85        75.02798
884.25        75.40496
884.65        75.55077
885.05        75.41024
885.45        75.07384
885.85        74.70525
886.25        74.58031
886.65         74.7765
887.05         75.2008
887.45         75.6923
887.85        76.01677
888.25        76.10307
888.65        76.00111
889.04        75.82249
889.44        75.79003
889.84        75.93749
890.24         76.2049
890.64        76.42885
891.04        76.35979
891.44        75.96883
891.84        75.36388
892.24        74.77686
892.64        74.55874
893.04        74.78954
893.44        75.36193
893.83         76.0875
894.23        76.59229
894.63        76.79398
895.03        76.77734
895.43        76.67406
895.83        76.70564
896.23        76.91949
896.63        77.21515
897.02        77.47153
897.42        77.56611
897.82        77.45853
898.22        77.22751
898.62        76.93503
899.01        76.68663
899.41        76.50594
899.81        76.36935
900.21        76.30408
900.61        76.35387
901.00         76.4985
901.40        76.74261
901.80        76.96963
902.20        77.00318
902.59        76.82118
902.99        76.45784
903.39        76.05472
903.79        75.83816
904.18         75.8662
904.58         76.0867
904.98        76.38552
905.38        76.60038
905.77        76.67943
906.17         76.6701
906.57        76.64585
906.96        76.75048
907.36        76.98801
907.76        77.33284
908.15        77.67036
908.55        77.73978
908.95        77.53106
909.34        77.10604
909.74        76.70517
910.14        76.64418
910.53        76.99106
910.93        77.61638
911.33        78.30926
911.72        78.70555
912.12        78.68574
912.52        78.39565
912.91        77.96182
913.31        77.59705
913.70        77.36118
914.10         77.1796
914.49        77.09442
914.89        77.11732
915.29        77.25681
915.68        77.50365
916.08        77.77399
916.47        77.92091
916.87        77.91965
917.26        77.77771
917.66        77.55766
918.05        77.33095
918.45        77.12331
918.84        76.95168
919.24        76.78484
919.64         76.6591
920.03        76.59945
920.42        76.59732
920.82        76.66623
921.21        76.80659
921.61        76.99187
922.00        77.22536
922.40        77.46475
922.79        77.72225
923.19         77.9454
923.58        78.16349
923.98        78.29758
924.37        78.29848
924.77        78.14899
925.16        77.83747
925.55        77.50195
925.95        77.37115
926.34        77.50138
926.74        77.84421
927.13        78.20255
927.52        78.15124
927.92        77.65698
928.31        76.84595
928.70        76.08909
929.10        75.94751
929.49         76.5248
929.89        77.59954
930.28        78.84411
930.67        79.54645
931.07        79.46958
931.46        78.85413
931.85        77.94802
932.24        77.18586
932.64        76.71838
933.03         76.4168
933.42        76.25967
933.82        76.21017
934.21         76.2457
934.60        76.42978
934.99        76.68024
935.39        76.80454
935.78        76.79402
936.17         76.6475
936.56        76.51215
936.96        76.65018
937.35        77.14391
937.74        77.85329
938.13        78.54308
938.53         78.8829
938.92        78.81508
939.31        78.43609
939.70        77.94617
940.09        77.69491
940.49        77.76698
940.88        78.09134
941.27        78.48769
941.66        78.68916
942.05        78.62992
942.44        78.40201
942.84        78.13861
943.23         77.9976
943.62        78.04694
944.01        78.21403
944.40        78.40163
944.79        78.44864
945.18        78.30998
945.57         78.0584
945.97        77.73628
946.36        77.46442
946.75        77.25272
947.14        77.07243
947.53        76.95825
947.92        76.96873
948.31        77.10952
948.70        77.37621
949.09        77.66997
949.48        77.83357
949.87        77.83069
950.26        77.68038
950.65         77.5061
951.04         77.5183
951.43        77.74995
951.82        78.13004
952.21        78.46973
952.60        78.45131
952.99        78.00594
953.38        77.25622
953.77        76.42177
954.16        75.82276
954.55        75.54645
954.94        75.51143
955.33        75.59049
955.72        75.57085
956.11        75.38168
956.50        75.08093
956.89        74.77225
957.28        74.61978
957.66        74.70466
958.05        74.97001
958.44         75.2752
958.83        75.40411
959.22        75.29806
959.61        74.96511
960.00        74.65584
960.39        74.76826
960.78        75.35563
961.16        76.35077
961.55         77.2153
961.94        77.14153
962.33        75.99133
962.72        74.09566
963.11        72.17809
963.49        71.28699
963.88        71.65158
964.27        72.98027
964.66        74.73572
965.04        75.94318
965.43        76.16793
965.82        75.72676
966.21        75.02592
966.60        74.70119
966.98        74.93871
967.37        75.48984
967.76        76.10765
968.15        76.33821
968.53        76.06343
968.92        75.48765
969.31        74.87974
969.69        74.58859
970.08        74.71009
970.47        75.13772
970.86        75.80022
971.24        76.59423
971.63        77.33897
972.02         78.0153
972.40        78.58652
972.79         78.8818
973.17        78.96397
973.56         78.8142
973.95        78.44658
974.33        77.87074
974.72        77.13703
975.11        76.27686
975.49        75.48907
975.88          75.113
976.26        75.24679
976.65        75.81845
977.04         76.5612
977.42         76.9793
977.81        76.86119
978.19         76.2804
978.58        75.62624
978.96        75.55445
979.35        76.19333
979.74        77.38094
980.12        78.63796
980.51        78.97227
980.89        78.29742
981.28        76.81432
981.66        75.20288
982.05        74.70477
982.43        75.63927
982.82        77.52665
983.20        79.68564
983.59         80.9225
983.97        81.00814
984.35        80.23546
984.74        78.94344
985.12        77.74918
985.51        76.95225
985.89        76.45717
986.28        76.23724
986.66        76.32178
987.04        76.64194
987.43        77.15681
987.81        77.88869
988.20         78.7215
988.58        79.58678
988.96        80.42713
989.35        80.88976
989.73        80.57117
990.12        79.34109
990.50        77.21805
990.88        74.73937
991.27        73.26501
991.65        73.36155
992.03        74.71259
992.42        76.31386
992.80        77.11643
993.18        76.79977
993.56        75.57156
993.95        73.98937
994.33        73.32567
994.71        74.13852
995.10        75.77193
995.48        77.35276
995.86        77.94107
996.24        77.46127
996.63        76.08674
997.01        74.47611
997.39        73.94984
997.77        74.99054
998.15        77.14721
998.54        79.29189
998.92        79.90216
999.30        78.70034
999.68        76.11837
1000.06         73.1702
1000.45        71.72645
1000.83        72.43678
1001.21        74.62227
1001.59        77.21927
1001.97         78.6786
1002.35        78.61951
1002.73        77.53867
1003.12        75.92078
1003.50         74.7065
1003.88        74.39481
1004.26        74.52689
1004.64        75.04017
1005.02        75.93582
1005.40        77.10141
1005.78        78.63439
1006.16         79.9399
1006.54        79.87822
1006.92        78.23985
1007.30        75.37099
1007.69        72.34071
1008.07        70.88038
1008.45        71.51653
1008.83        73.68855
1009.21         76.4406
1009.59        78.40802
1009.97        79.18996
1010.35        79.07312
1010.73        78.33118
1011.11        77.67919
1011.49        77.49995
1011.86        77.63173
1012.24         77.6288
1012.62        77.13668
1013.00         76.1759
1013.38        75.09342
1013.76        74.29602
1014.14        74.39105
1014.52        75.54836
1014.90        77.47361
1015.28        80.02529
1015.66        82.81751
1016.04        85.38886
1016.41        87.74347
1016.79        89.00932
1017.17        88.40438
1017.55        85.98846
1017.93        82.12883
1018.31        78.03036
1018.69        75.55698
1019.06        75.31297
1019.44        77.06493
1019.82        79.99081
1020.20        82.13916
1020.58        82.62469
1020.95        81.75249
1021.33           80.55
1021.71        80.37811
1022.09        81.38114
1022.46        83.06053
1022.84        84.27585
1023.22        82.88641
1023.60         78.1952
1023.97        70.36563
1024.35        61.25784
1024.73        55.23107
