SpectraSmart Spectrum 2.9.0.0
--------- Device Information -----------
Spectrum Name :  反射率_0
Saving Time :  2024/04/27 23:43:59
Spectro-Module Model Name : SE2030-DUVN
Spectro-Module Serial Number : OS361AC55029948
Wavelength Start : 200
Wavelength End : 1025
Wavelength Unit : Wavelength(nm)
Spectrum Unit : Reflectance(%)
-----------Spectrum Setting ------------
Integration Time : 20ms
Average : 10
Boxcar : 0
Background removal :  enabled
linearity correction :  enabled
SC :  disabled
Intensity correction :  disabled
DWT denoise :  enabled
savitzky-golay :  disabled
FFT :  disabled
Running average :  disabled
Kalman :  disabled
High pass :  disabled
---------------BEGIN--------------------
Wavelength(nm)             Reflectance(%)
200.29               0
200.75        43.89415
201.21        78.45211
201.67        101.1697
202.13        107.0827
202.58        102.2291
203.04        92.15207
203.50        80.11008
203.96        71.54229
204.42        67.98809
204.88        67.06632
205.34        67.55946
205.80        68.58424
206.26        69.80102
206.72         71.8139
207.18        74.42694
207.64        74.63789
208.10        71.47011
208.55        68.10204
209.01        64.66548
209.47        60.51383
209.93        53.61248
210.39        37.33496
210.85       -9.765256
211.31       -61.81264
211.77        9.442328
212.23        53.61091
212.69        68.44748
213.14        72.24371
213.60        70.00139
214.06        62.76897
214.52        48.67435
214.98        35.80457
215.44        36.24638
215.90        42.88178
216.36        49.71097
216.81        54.87714
217.27        58.67228
217.73        62.32718
218.19        64.98872
218.65        64.59821
219.11        60.64357
219.57        53.41779
220.02        44.06321
220.48        37.75067
220.94        36.63447
221.40          39.097
221.86        43.86478
222.32        49.48601
222.77        55.00444
223.23        60.17441
223.69        63.74023
224.15        64.23769
224.61        61.77455
225.06        56.62956
225.52        50.53022
225.98        46.91198
226.44        46.63578
226.90        48.07011
227.36        49.43663
227.81        49.14967
228.27        47.13054
228.73        43.84106
229.19        39.80062
229.65        36.31264
230.10        34.03831
230.56        32.92893
231.02        32.46013
231.48        31.96862
231.93        31.25563
232.39        30.65384
232.85        30.49554
233.31        31.22731
233.77        32.79976
234.22        34.98243
234.68        37.08604
235.14        38.43027
235.60        38.91645
236.05        38.60609
236.51        38.23531
236.97        39.15367
237.43        41.73544
237.88        45.66586
238.34         49.3997
238.80         51.6712
239.26        52.30532
239.71        51.21573
240.17        49.04323
240.63        49.73453
241.08        55.34868
241.54        62.02709
242.00        66.81065
242.46        69.29581
242.91         70.4264
243.37        70.47543
243.83        69.53273
244.28        69.13659
244.74        71.51006
245.20        74.89651
245.66        76.53264
246.11        75.87024
246.57        73.20041
247.03        68.34061
247.48        61.25583
247.94        57.00816
248.40        60.69353
248.85         68.8507
249.31        78.26006
249.77        86.45125
250.22        92.65586
250.68        97.41833
251.14        100.5207
251.59        102.0194
252.05        102.3742
252.51        101.1161
252.96        98.33422
253.42        96.52802
253.88        96.44153
254.33        96.83599
254.79        96.20409
255.25        92.30591
255.70        85.91857
256.16        79.52014
256.62        74.46342
257.07        72.36412
257.53        73.04797
257.99         74.4959
258.44        75.76093
258.90        76.63531
259.35        76.58801
259.81        76.30038
260.27        75.27245
260.72        72.97973
261.18        70.15469
261.63        66.92957
262.09        64.14151
262.55         62.2187
263.00        61.02105
263.46         60.3978
263.91        59.97753
264.37        59.66492
264.83        59.26742
265.28        58.79716
265.74        58.20621
266.19        57.16123
266.65        55.75526
267.11        54.03325
267.56        52.22791
268.02        50.83615
268.47        49.92606
268.93        49.38628
269.38        49.01455
269.84        48.51661
270.30        47.78188
270.75        46.88115
271.21        45.88018
271.66        44.82475
272.12        43.76928
272.57        42.66168
273.03        41.52953
273.48        40.34233
273.94        39.18501
274.39        38.05932
274.85        37.09207
275.31        36.35585
275.76        35.81828
276.22         35.4576
276.67        35.13017
277.13        34.73946
277.58        34.20623
278.04        33.62267
278.49        32.96913
278.95        32.34178
279.40        31.71681
279.86        31.13345
280.31        30.59072
280.77        30.21467
281.22        29.96511
281.68         29.8529
282.13        29.76211
282.59        29.58213
283.04        29.27646
283.50        28.90638
283.95        28.54046
284.41         28.3296
284.86        28.28347
285.32        28.36872
285.77        28.49474
286.22        28.57451
286.68          28.599
287.13        28.56198
287.59        28.52794
288.04        28.51318
288.50        28.55766
288.95         28.6202
289.41        28.69932
289.86        28.74371
290.32        28.77596
290.77        28.81468
291.22        28.91142
291.68        29.12887
292.13         29.4803
292.59        29.97809
293.04        30.60335
293.50        31.35037
293.95        32.20146
294.40        33.16617
294.86        34.25719
295.31        35.48328
295.77        36.84956
296.22        38.33078
296.68        39.88796
297.13        41.43037
297.58        42.92815
298.04        44.38573
298.49        45.84534
298.95        47.42565
299.40        49.14706
299.85        50.99457
300.31        52.91077
300.76        54.73789
301.21        56.44369
301.67        58.08562
302.12        59.70086
302.58        61.43793
303.03        63.28983
303.48        65.23144
303.94        67.25125
304.39         69.2439
304.84        71.21519
305.30         73.2084
305.75        75.17973
306.20        77.15437
306.66        79.15412
307.11        81.11153
307.57        83.06639
308.02        84.95943
308.47        86.78719
308.93        88.55141
309.38        90.18551
309.83        91.69923
310.29         93.1219
310.74        94.44009
311.19        95.68182
311.65         96.8623
312.10        97.95273
312.55        98.95393
313.00         99.8988
313.46        100.8468
313.91        101.7939
314.36        102.7496
314.82         103.644
315.27        104.3535
315.72        104.8643
316.18        105.2367
316.63        105.5718
317.08        106.0718
317.53        106.7774
317.99        107.6102
318.44        108.4756
318.89        109.1911
319.35        109.6983
319.80        110.0645
320.25        110.3213
320.70        110.5298
321.16        110.7147
321.61        110.8751
322.06        111.0541
322.51        111.3383
322.97        111.7177
323.42        112.2059
323.87        112.7036
324.32        113.0578
324.78        113.2166
325.23        113.2756
325.68        113.2793
326.13        113.3366
326.59        113.4679
327.04        113.6904
327.49        114.0114
327.94        114.4824
328.39        115.0929
328.85        115.7882
329.30        116.5304
329.75        117.0713
330.20        117.3501
330.66        117.3911
331.11        117.3709
331.56        117.4627
332.01        117.7475
332.46        118.1832
332.92        118.6945
333.37        119.3062
333.82        119.9296
334.27        120.5735
334.72        121.2193
335.17        121.8357
335.63        122.3781
336.08         122.895
336.53         123.339
336.98        123.6953
337.43        123.9774
337.88        124.2096
338.34        124.4323
338.79        124.7677
339.24        125.2243
339.69        125.7764
340.14        126.3974
340.59        127.0344
341.05          127.66
341.50        128.2962
341.95        128.8901
342.40        129.3806
342.85        129.7634
343.30        130.0379
343.75        130.2986
344.20        130.7057
344.66        131.2848
345.11        131.9789
345.56         132.637
346.01         133.011
346.46        133.0583
346.91         132.875
347.36         132.631
347.81        132.5845
348.26           132.8
348.72        133.1955
349.17        133.6579
349.62        134.0326
350.07        134.2542
350.52        134.3626
350.97         134.381
351.42        134.3412
351.87        134.2662
352.32        134.1561
352.77        133.9987
353.22         133.785
353.67        133.5189
354.13        133.2085
354.58        132.9005
355.03         132.731
355.48        132.6962
355.93        132.7395
356.38        132.6816
356.83        132.2448
357.28        131.3898
357.73        130.2287
358.18        128.9594
358.63        127.8872
359.08        127.1025
359.53        126.5253
359.98        126.0619
360.43        125.5579
360.88        124.9544
361.33         124.293
361.78        123.6012
362.23        122.9085
362.68        122.2214
363.13        121.5348
363.58        120.8164
364.03        119.9342
364.48        119.0414
364.93        118.0508
365.38         117.065
365.83        116.1674
366.28        115.3751
366.73        114.6524
367.18        113.9625
367.63         113.246
368.08        112.4858
368.53         111.715
368.98        110.9174
369.43        110.0653
369.88        109.1676
370.33        108.2264
370.78        107.3344
371.23         106.645
371.68        106.1758
372.13        105.8735
372.58        105.5904
373.03        105.0851
373.48         104.302
373.93        103.3205
374.38        102.2715
374.83        101.3603
375.28        100.6495
375.72        100.0636
376.17        99.57745
376.62        99.07761
377.07        98.52785
377.52        97.95143
377.97        97.38179
378.42         96.8653
378.87        96.41108
379.32         96.0078
379.77        95.58725
380.22        95.04768
380.67        94.37733
381.11        93.61117
381.56         92.8696
382.01        92.36354
382.46        92.13877
382.91        92.13046
383.36        92.17389
383.81        92.00892
384.26        91.57543
384.71        90.95294
385.15        90.26675
385.60        89.77927
386.05        89.52624
386.50        89.41998
386.95        89.35273
387.40        89.16714
387.85        88.82624
388.29        88.34296
388.74        87.86971
389.19         87.4119
389.64        86.97443
390.09        86.51058
390.54        86.04467
390.98        85.61913
391.43        85.31407
391.88        85.09823
392.33        84.86832
392.78         84.6629
393.23        84.46739
393.67        83.79547
394.12        82.96159
394.57        83.35098
395.02        83.86563
395.47        83.86671
395.91        83.11813
396.36        82.78696
396.81        82.92247
397.26        82.89241
397.71        82.63432
398.15        82.35137
398.60        82.13512
399.05        81.68376
399.50        81.18504
399.95        81.27956
400.39        81.79411
400.84        81.80608
401.29         81.2633
401.74        80.59596
402.18        80.02109
402.63        79.85707
403.08        80.05368
403.53        80.01081
403.97        79.69536
404.42        79.55913
404.87        79.59259
405.32        79.57653
405.76        79.47901
406.21        79.33656
406.66        79.16888
407.11        79.04392
407.55        78.94872
408.00        78.80351
408.45         78.5915
408.90        78.07154
409.34        77.41017
409.79        77.28964
410.24        77.62479
410.68        77.73463
411.13        77.56939
411.58        77.52357
412.03        77.61635
412.47        77.69769
412.92        77.72874
413.37         77.7607
413.81        77.75034
414.26        77.69986
414.71        77.59231
415.15        77.44981
415.60        77.28425
416.05        77.19048
416.49        77.19832
416.94        77.27301
417.39        77.37742
417.83        77.44652
418.28        77.45148
418.73        77.39161
419.17        77.29846
419.62        77.22904
420.07        77.20634
420.51        77.21683
420.96        77.21631
421.41        77.12472
421.85        76.91491
422.30         76.5506
422.74        76.16361
423.19        76.32433
423.64        76.91859
424.08        77.26522
424.53        77.20357
424.98        77.17393
425.42        77.35368
425.87        77.08442
426.31        76.57929
426.76        76.60771
427.21         77.0718
427.65         77.0735
428.10        76.63145
428.54        76.50744
428.99        76.74808
429.44        76.94114
429.88        77.00629
430.33        76.99813
430.77        76.87852
431.22        76.86733
431.66        76.95384
432.11        77.02264
432.56        77.12968
433.00         77.1954
433.45         77.0534
433.89        77.15461
434.34        77.52367
434.78        76.45068
435.23        76.59001
435.67        76.52715
436.12        77.87907
436.57         78.0819
437.01        77.48746
437.46        77.54432
437.90        77.62998
438.35        77.89529
438.79        77.53388
439.24        77.48074
439.68        77.60397
440.13         77.9343
440.57        78.32894
441.02        78.59415
441.46        78.61995
441.91        78.18322
442.35        77.50117
442.80        77.63985
443.24        78.40018
443.69        78.52817
444.13        78.02877
444.58        77.95947
445.02         78.3027
445.47         78.4925
445.91        78.47971
446.36        78.52663
446.80        78.61756
447.24        78.61295
447.69        78.56212
448.13          78.696
448.58        78.94164
449.02        78.86261
449.47        78.54657
449.91        78.44881
450.36        78.61504
450.80         78.7603
451.25        78.85297
451.69        78.93717
452.13        78.98206
452.58        78.91416
453.02        78.75584
453.47        78.58504
453.91        78.40583
454.36          78.307
454.80        78.22465
455.24        77.84069
455.69        77.30132
456.13        77.05874
456.58        77.19529
457.02        77.15623
457.46        77.53589
457.91        77.34037
458.35        77.10912
458.79        76.93067
459.24        76.90717
459.68        76.84244
460.13         76.7742
460.57        76.41385
461.01        76.09601
461.46        76.04403
461.90        75.79964
462.34        75.31827
462.79        75.86732
463.23        75.77309
463.68        75.49313
464.12        75.35448
464.56        75.39691
465.01        75.50052
465.45        75.48264
465.89        75.38915
466.34        75.27997
466.78        74.93532
467.22        74.40964
467.67        74.99457
468.11        74.74094
468.55        74.79424
468.99        74.59444
469.44        74.53779
469.88        74.61515
470.32        74.61131
470.77        74.52057
471.21        74.41132
471.65        74.28942
472.10        74.16231
472.54        74.00244
472.98        73.85746
473.42        73.74762
473.87        73.53422
474.31        73.26787
474.75        73.47985
475.20        74.00352
475.64        73.94552
476.08        73.37134
476.52        73.19118
476.97        73.44373
477.41        73.27377
477.85        73.38396
478.29        73.05671
478.74        73.71038
479.18        72.88027
479.62        73.03376
480.06        72.81501
480.50        72.86267
480.95        72.92973
481.39        72.90497
481.83        72.93127
482.27        73.12484
482.72        72.45874
483.16        72.77163
483.60        72.62799
484.04         72.5203
484.48        72.62174
484.93         73.0861
485.37        72.69638
485.81        73.07201
486.25        73.46275
486.69        73.86086
487.14        73.18388
487.58        72.71706
488.02        72.82803
488.46        72.73699
488.90        73.23848
489.34        72.13916
489.79         71.4578
490.23        72.27304
490.67        72.20443
491.11        71.78983
491.55        71.73689
491.99        72.03246
492.43        72.11732
492.88        71.94075
493.32        71.77258
493.76        71.64835
494.20         71.5996
494.64        71.65871
495.08        71.73212
495.52        71.79311
495.96        72.00003
496.41        72.25852
496.85        72.07965
497.29        71.56396
497.73        71.55021
498.17        71.87833
498.61        71.86723
499.05        71.49798
499.49        71.42986
499.93        71.67368
500.37        71.73057
500.82        71.53545
501.26        71.50491
501.70         71.7812
502.14        70.98654
502.58        71.65551
503.02        71.66771
503.46        71.46948
503.90        71.37395
504.34        71.32671
504.78        71.31826
505.22        71.30626
505.66        71.20342
506.10        71.06301
506.54        71.03616
506.98         71.1285
507.42        71.14421
507.86        71.65574
508.30        71.14504
508.74         71.5123
509.18        71.35144
509.62        71.22819
510.06        71.16492
510.50        71.18394
510.94        71.24862
511.38         71.3091
511.82        71.33438
512.26        71.30631
512.70        71.24577
513.14        71.16998
513.58        71.07698
514.02        70.97372
514.46        70.90832
514.90        70.90478
515.34        70.75059
515.78         70.8559
516.22        70.88728
516.66        70.94854
517.10        70.99824
517.54        71.02827
517.98        71.03965
518.42        71.03453
518.86        71.02998
519.30        71.03024
519.74        71.03084
520.18        71.03003
520.62        71.02582
521.06        71.01851
521.50        71.01004
521.93        71.00799
522.37        71.00874
522.81        71.01639
523.25        71.02728
523.69        71.03235
524.13        71.01756
524.57        70.98137
525.01        70.93045
525.45        70.87394
525.89        70.82551
526.32        70.78493
526.76        70.76301
527.20         70.7556
527.64        70.76386
528.08        70.78498
528.52        70.81472
528.96         70.8481
529.40        70.87768
529.83        70.89215
530.27        70.90327
530.71        70.89612
531.15        70.85976
531.59        70.79369
532.03        70.70119
532.46        70.59341
532.90        70.51103
533.34         70.4583
533.78        70.43195
534.22        70.41374
534.66        70.37312
535.09         70.2972
535.53        70.21754
535.97         70.1487
536.41        70.12842
536.85        70.16496
537.28        70.24818
537.72        70.35036
538.16        70.41954
538.60        70.44172
539.04        70.43629
539.47        70.40826
539.91        70.41539
540.35        70.44932
540.79        70.49929
541.22        70.51008
541.66        70.48406
542.10        70.28502
542.54        70.04962
542.97        69.81927
543.41        69.75738
543.85        69.87045
544.29        70.11089
544.72        70.36721
545.16         70.4788
545.60        70.38839
546.04         70.1994
546.47        69.98355
546.91        69.72877
547.35        69.53155
547.79        69.67475
548.22        70.01463
548.66        70.06834
549.10        69.82329
549.53        69.68581
549.97         69.7123
550.41        69.73543
550.84        69.76817
551.28        69.90948
551.72        70.09885
552.15        70.18568
552.59        70.15983
553.03         70.0423
553.46        69.88438
553.90        69.81601
554.34        69.84457
554.77        69.95847
555.21        70.06772
555.65        70.03721
556.08         69.7837
556.52         69.5201
556.96        69.31385
557.39         69.3604
557.83        69.62746
558.27        69.76664
558.70        69.74203
559.14        69.77771
559.57        69.84382
560.01        69.82388
560.45        69.71793
560.88         69.5944
561.32        69.53662
561.75        69.49965
562.19        69.50823
562.63        69.61235
563.06        69.73036
563.50        69.60004
563.93        69.27683
564.37        69.17204
564.80        69.28146
565.24        69.40563
565.68        69.48734
566.11        69.56255
566.55          69.643
566.98        69.62649
567.42         69.5628
567.85        69.64217
568.29        69.85561
568.72        69.74054
569.16         69.3888
569.60        69.41442
570.03        69.85901
570.47        69.68204
570.90        69.68164
571.34        70.38674
571.77        70.20292
572.21        69.97937
572.64         70.0622
573.08        70.02521
573.51        69.64615
573.95        69.76012
574.38        70.07814
574.82        70.29662
575.25        70.34199
575.69        69.93901
576.12        69.76605
576.56        69.99477
576.99        69.95374
577.42        70.13374
577.86        70.19273
578.29         70.4576
578.73        70.35677
579.16        70.36768
579.60        70.22246
580.03         70.1385
580.47        70.11191
580.90        70.17479
581.33        69.95833
581.77        70.82317
582.20        70.67267
582.64        70.51401
583.07        70.53568
583.51        70.36628
583.94        70.44082
584.37        70.32809
584.81        70.14687
585.24        70.08221
585.68        70.17901
586.11        70.12944
586.54        70.36778
586.98        69.96774
587.41         70.1498
587.85        70.08439
588.28        70.12156
588.71         69.7696
589.15        70.39193
589.58        69.87261
590.01        70.22544
590.45        70.46164
590.88        69.42319
591.31        69.36878
591.75        69.70395
592.18        69.75771
592.61        69.74054
593.05        69.51313
593.48        70.58843
593.91        70.08884
594.35        70.02986
594.78         70.0822
595.21        69.52611
595.65        69.62302
596.08        69.61108
596.51        69.83981
596.94        69.49414
597.38        69.52179
597.81        69.82597
598.24        69.41418
598.68        69.63503
599.11         69.5726
599.54        69.79476
599.97        69.70129
600.41        69.60873
600.84        69.53658
601.27        69.53738
601.70         69.4502
602.14        69.19894
602.57        69.41802
603.00        69.32275
603.43        69.44374
603.87        69.91902
604.30        69.51545
604.73         69.2293
605.16         69.6144
605.60        69.32616
606.03        69.53854
606.46        69.63202
606.89        69.96588
607.32        69.48323
607.76        69.86599
608.19        69.57542
608.62        69.46336
609.05        69.24014
609.48         69.2072
609.92        69.38025
610.35        69.45339
610.78        69.92219
611.21        69.53751
611.64        69.32937
612.07        69.17644
612.50        69.29935
612.94        69.35004
613.37          69.388
613.80        68.96475
614.23         69.2901
614.66        69.34248
615.09        69.41328
615.52        69.37627
615.96        69.28278
616.39        69.08089
616.82        69.10375
617.25        69.29559
617.68        69.19263
618.11        69.15657
618.54        69.08954
618.97        69.14508
619.40        69.22269
619.84        69.41457
620.27         69.2937
620.70        69.07836
621.13        68.61426
621.56        69.14297
621.99        69.00338
622.42        68.84052
622.85        68.76167
623.28        69.24562
623.71        68.86071
624.14        68.41222
624.57        68.72841
625.00        68.80266
625.43        68.55722
625.86        68.63013
626.29        68.91994
626.72        68.65798
627.15        68.74368
627.58        68.64087
628.01        68.74069
628.44        68.36186
628.87         68.4562
629.30        69.04862
629.73        68.50043
630.16        68.59896
630.59        68.50636
631.02        68.58993
631.45        68.70658
631.88         68.7298
632.31        68.66268
632.74        68.59004
633.17        68.55471
633.60        68.56316
634.03        68.62123
634.46        68.72467
634.89        68.82873
635.32        68.84723
635.75        68.76215
636.18        68.63528
636.61        68.50206
637.04        68.34028
637.47        68.20705
637.89        68.27335
638.32        68.46862
638.75        68.55525
639.18        68.50517
639.61        68.44945
640.04        68.40184
640.47        68.34914
640.90        68.30444
641.33        68.23576
641.76        68.15408
642.18         68.2506
642.61        68.25473
643.04        68.36794
643.47        68.46822
643.90         68.4899
644.33        68.41507
644.76        68.26629
645.18        68.09608
645.61        67.97523
646.04        67.93169
646.47        67.94633
646.90          67.989
647.33        68.02494
647.75        68.04852
648.18        68.02807
648.61         67.9878
649.04        68.10429
649.47        68.32553
649.89        68.28886
650.32         68.0555
650.75        68.11725
651.18         68.4244
651.61        68.47456
652.03        68.24089
652.46        68.06609
652.89        68.03809
653.32        67.93375
653.74        67.81151
654.17        68.20323
654.60        67.84859
655.03        67.90907
655.46        67.98441
655.88        68.61557
656.31        70.20496
656.74        72.01208
657.16        71.50552
657.59        70.62946
658.02         68.8825
658.45        69.20678
658.87        69.17434
659.30        68.68313
659.73        68.57176
660.15        68.16169
660.58        67.99977
661.01        68.21248
661.44        68.65058
661.86        68.69375
662.29        68.31937
662.72        68.04255
663.14        67.96497
663.57        68.00149
664.00         68.1207
664.42         68.1536
664.85        68.09143
665.27        68.07948
665.70        68.10892
666.13        68.08954
666.55        68.02103
666.98        67.91873
667.41        67.83042
667.83        67.83232
668.26        67.93182
668.69        68.11761
669.11        68.31398
669.54        68.41713
669.96         68.4119
670.39        68.24107
670.82        68.01949
671.24        68.10458
671.67        68.43775
672.09         68.5643
672.52        68.47604
672.94        68.40637
673.37        68.39702
673.80        68.41205
674.22        68.45432
674.65         68.4357
675.07        68.37501
675.50        68.33426
675.92        68.32909
676.35        68.32381
676.77        68.32416
677.20        68.34367
677.62        68.38032
678.05        68.40858
678.47        68.42186
678.90        68.43095
679.32        68.43915
679.75        68.46651
680.17        68.51455
680.60        68.58706
681.02        68.64378
681.45        68.62548
681.87        68.54103
682.30        68.32698
682.72        68.08901
683.15        68.16605
683.57        68.51244
684.00        68.62998
684.42        68.51392
684.85        68.55492
685.27        68.74197
685.70        68.82522
686.12        68.78816
686.54        68.79554
686.97        68.84138
687.39        68.74752
687.82        68.72826
688.24        68.62918
688.66        68.63136
689.09        68.61725
689.51        68.63358
689.94        68.65707
690.36        68.69026
690.78        68.73045
691.21        68.76562
691.63        68.78174
692.06        68.76959
692.48        68.70036
692.90        68.60605
693.33        68.54869
693.75        68.55235
694.17        68.60961
694.60        68.65725
695.02        68.69054
695.44        68.70269
695.87         68.5086
696.29        68.24017
696.71        68.56517
697.14        69.27765
697.56        69.26634
697.98        68.61793
698.41        68.43485
698.83        68.73045
699.25        68.91033
699.68        68.90326
700.10        68.93933
700.52        68.99759
700.94        69.02122
701.37        69.00057
701.79        68.96048
702.21        68.88868
702.64        68.80332
703.06        68.71904
703.48        68.67206
703.90        68.67612
704.33        68.72251
704.75        68.78803
705.17        68.80907
705.59        68.77558
706.01        68.68073
706.44        68.58083
706.86        68.69895
707.28        68.85639
707.70         69.1432
708.12        69.42555
708.55        69.60734
708.97        69.63797
709.39        69.49603
709.81        69.25607
710.23        69.11391
710.66        69.11485
711.08        69.19907
711.50        69.29678
711.92         69.3388
712.34         69.3041
712.76        69.21961
713.19        69.11965
713.61        69.10477
714.03        69.17461
714.45        69.29684
714.87        69.43108
715.29        69.51848
715.71        69.54165
716.13        69.52073
716.56        69.45691
716.98        69.42693
717.40         69.4271
717.82        69.44907
718.24        69.49108
718.66        69.55201
719.08        69.62493
719.50        69.70148
719.92        69.78149
720.34        69.86318
720.76        69.93916
721.19        70.00042
721.61         70.0267
722.03        69.95575
722.45        69.78665
722.87        69.54514
723.29        69.30813
723.71         69.1978
724.13        69.24685
724.55        69.42535
724.97        69.66526
725.39        69.84998
725.81        69.94032
726.23        69.96009
726.65        69.95144
727.07        69.98636
727.49        70.07961
727.91        70.20043
728.33        70.30231
728.75         70.3131
729.17        70.22083
729.59        70.06261
730.01        69.88734
730.43        69.77048
730.85        69.73386
731.27        69.74673
731.69        69.80492
732.10        69.90562
732.52        70.02056
732.94         70.1931
733.36        70.36727
733.78        70.38843
734.20         70.2376
734.62         70.3538
735.04        69.66953
735.46        70.10622
735.88        70.41428
736.30          70.263
736.72        69.55552
737.13        69.55132
737.55        70.17167
737.97        70.40623
738.39        70.20255
738.81        70.00201
739.23        69.90356
739.65        70.04873
740.06        70.32774
740.48        70.39951
740.90        70.21434
741.32        70.09304
741.74        69.99316
742.16        69.98009
742.57        70.04725
742.99         70.1908
743.41        70.35958
743.83        70.44929
744.25        70.43516
744.67         70.3395
745.08        70.22365
745.50        70.14868
745.92        70.15733
746.34        70.23522
746.75        70.33216
747.17        70.38175
747.59        70.36319
748.01        70.23341
748.42        70.08521
748.84        70.14477
749.26        70.36378
749.68        70.55221
750.09        70.60936
750.51         70.3462
750.93        69.90388
751.35        69.85996
751.76        70.19396
752.18        70.32948
752.60        70.24775
753.01        70.32272
753.43        70.51991
753.85        70.62836
754.27        70.62941
754.68        70.58443
755.10        70.52908
755.52        70.51594
755.93         70.5656
756.35        70.66415
756.77        70.77782
757.18        70.87761
757.60        70.95649
758.02        70.93925
758.43        70.87132
758.85        70.95563
759.26        71.09801
759.68        71.04192
760.10        70.98849
760.51        70.12897
760.93         70.3483
761.34         70.2459
761.76        71.13241
762.18        71.23153
762.59        70.87085
763.01         70.6663
763.42        70.77423
763.84         70.9483
764.26        71.16422
764.67        71.32444
765.09        71.41056
765.50        71.49981
765.92         71.5696
766.33        71.35155
766.75        70.88523
767.16        70.68221
767.58        70.76769
768.00        70.90433
768.41        71.06693
768.83          71.299
769.24        71.50414
769.66        71.53973
770.07        71.40476
770.49        71.21302
770.90        71.05997
771.32        71.11877
771.73        71.35295
772.15        71.43425
772.56        71.34988
772.97        71.35389
773.39        71.43346
773.80        71.39496
774.22        71.25011
774.63        71.46878
775.05        71.91791
775.46        72.11655
775.88        71.98248
776.29         71.8084
776.70        71.67383
777.12        71.61346
777.53        71.67886
777.95        71.82914
778.36        72.01295
778.77         72.1278
779.19        72.15003
779.60        72.12622
780.02        72.06332
780.43        72.03241
780.84         72.0341
781.26        71.94143
781.67        71.86826
782.09        72.07504
782.50        72.31684
782.91        72.82069
783.33        71.76999
783.74        71.62601
784.15         71.8825
784.57        72.00211
784.98        71.97407
785.39         72.1663
785.81        72.52481
786.22        72.69841
786.63        72.67658
787.04         72.7029
787.46        72.79366
787.87        72.79634
788.28        72.71987
788.70        72.66334
789.11        72.62302
789.52        72.51746
789.93        72.39611
790.35        72.48567
790.76        72.74461
791.17        72.76476
791.58        72.55877
792.00        72.50777
792.41        72.64933
792.82        72.68349
793.23        72.66885
793.65        72.90142
794.06         73.3455
794.47        73.73227
794.88        73.95776
795.29        73.86652
795.71        73.90317
796.12        73.49058
796.53        72.91472
796.94        72.88219
797.35        73.33355
797.76        73.34605
798.18        72.93475
798.59         72.8594
799.00        73.13578
799.41        73.30456
799.82        73.32256
800.23        73.36008
800.64         73.4095
801.06        73.39312
801.47        73.35564
801.88        73.29888
802.29        73.23363
802.70        73.17393
803.11         73.1273
803.52        73.09535
803.93        73.08102
804.34        73.08191
804.75        73.11359
805.17        73.18631
805.58        73.32515
805.99        73.49835
806.40         73.6478
806.81        73.69398
807.22        73.60534
807.63        73.36709
808.04        73.08872
808.45        73.00261
808.86        73.15786
809.27         73.4747
809.68        73.83112
810.09        74.02338
810.50         73.9917
810.91        73.79379
811.32        73.54585
811.73        73.45797
812.14        73.58764
812.55        73.82426
812.96        74.07713
813.37        74.30221
813.78        74.40034
814.19        74.18437
814.60        73.77578
815.01        73.56695
815.42        73.61172
815.83        73.71815
816.24        73.85004
816.65        74.01723
817.05        74.18778
817.46        74.32208
817.87        74.41547
818.28        74.40672
818.69        74.29228
819.10        74.09024
819.51        73.86038
819.92         73.7167
820.33        73.70336
820.74        73.79575
821.14        73.95224
821.55        74.13866
821.96        74.31354
822.37        74.48347
822.78        74.63941
823.19         74.7622
823.60        74.84245
824.00        74.89922
824.41        74.87672
824.82          74.785
825.23        74.63686
825.64        74.44774
826.04        74.30312
826.45        74.29844
826.86        74.46246
827.27        74.76069
827.68        75.09986
828.08        75.35349
828.49        75.40231
828.90        75.30911
829.31        75.13028
829.72        74.96963
830.12        74.88882
830.53        74.82389
830.94        74.75333
831.35        74.60513
831.75        74.39358
832.16          74.107
832.57        73.86387
832.97        73.81693
833.38        73.98892
833.79        74.33183
834.20        74.71382
834.60        74.93955
835.01        74.97588
835.42        74.85758
835.82        74.71027
836.23        74.67599
836.64        74.82346
837.04        75.12078
837.45        75.40391
837.86        75.50684
838.26        75.40295
838.67        75.14622
839.08        74.87267
839.48          74.781
839.89        74.92302
840.29        75.22542
840.70        75.60344
841.11        75.92851
841.51        76.16865
841.92        76.32286
842.33         76.4005
842.73        76.41227
843.14        76.32195
843.54        76.14956
843.95        75.94183
844.35         75.8045
844.76        75.75144
845.17        75.76699
845.57        75.80495
845.98        75.73769
846.38        75.56366
846.79        75.30377
847.19        75.02769
847.60        74.79404
848.00        74.65616
848.41        74.56436
848.81        74.54813
849.22        74.57806
849.62        74.67625
850.03        74.82261
850.43        75.00195
850.84        75.10516
851.24          75.161
851.65        75.12624
852.05         75.1152
852.46        75.22165
852.86        75.44755
853.27        75.74989
853.67        75.96458
854.07        76.05027
854.48        75.95384
854.88        75.75822
855.29        75.40173
855.69        74.99266
856.10        74.50722
856.50        74.03143
856.90        73.65215
857.31        73.53102
857.71        73.73382
858.12        74.14901
858.52          74.675
858.92        75.01162
859.33        75.04929
859.73        74.88722
860.13        74.55867
860.54        74.17409
860.94        73.83494
861.34        73.48234
861.75         73.1357
862.15        72.88541
862.55        72.71655
862.96        72.64977
863.36        72.61823
863.76        72.47784
864.17        72.19997
864.57        71.84181
864.97        71.51886
865.38        71.40205
865.78        71.57005
866.18        71.93597
866.58         72.3662
866.99        72.63125
867.39        72.68757
867.79        72.58195
868.19         72.3965
868.60          72.223
869.00        72.08628
869.40        71.96501
869.80         71.8998
870.21        71.97692
870.61        72.25903
871.01        72.65078
871.41         72.9985
871.81        73.07245
872.22         72.8134
872.62        72.32241
873.02        71.74999
873.42        71.38992
873.82        71.35107
874.22        71.54254
874.63        71.89094
875.03        72.25936
875.43        72.59892
875.83        72.94225
876.23        73.23199
876.63        73.36787
877.03        73.32887
877.44        73.11655
877.84         72.8312
878.24        72.62858
878.64        72.55581
879.04        72.57958
879.44        72.64278
879.84        72.64938
880.24        72.58179
880.64        72.48347
881.04        72.38972
881.44        72.35646
881.84        72.39388
882.24        72.45392
882.65          72.505
883.05        72.60561
883.45        72.70657
883.85        72.81843
884.25        72.86198
884.65        72.71354
885.05        72.37331
885.45        71.88412
885.85        71.41844
886.25        71.27621
886.65        71.52415
887.05        72.06284
887.45        72.67896
887.85        73.04606
888.25        73.07236
888.65        72.83539
889.04        72.46373
889.44        72.22235
889.84        72.16901
890.24        72.22939
890.64        72.29352
891.04        72.19147
891.44        71.90244
891.84        71.52284
892.24        71.17114
892.64        71.01592
893.04        71.09938
893.44        71.34981
893.83        71.73012
894.23          72.118
894.63         72.4773
895.03        72.81398
895.43        73.06283
895.83        73.12489
896.23        72.99338
896.63        72.70263
897.02        72.34512
897.42        72.10123
897.82        72.00596
898.22        72.03873
898.62        72.14693
899.01        72.24315
899.41        72.27702
899.81        72.27586
900.21        72.29165
900.61         72.4089
901.00        72.62148
901.40        72.90113
901.80        73.13129
902.20          73.151
902.59        72.94639
902.99        72.56831
903.39        72.15429
903.79         71.9152
904.18        71.91066
904.58        72.08667
904.98        72.35891
905.38        72.60891
905.77        72.78165
906.17        72.90311
906.57        72.98197
906.96        73.05392
907.36        73.09956
907.76        73.12511
908.15        73.08543
908.55        72.84365
908.95        72.43341
909.34         71.8956
909.74        71.43854
910.14        71.31514
910.53          71.578
910.93        72.13151
911.33        72.78652
911.72        73.20901
912.12        73.28443
912.52        73.13231
912.91        72.87029
913.31        72.70712
913.70          72.691
914.10        72.72765
914.49        72.82965
914.89        72.96199
915.29        73.11048
915.68          73.291
916.08        73.40686
916.47        73.28986
916.87         72.9453
917.26        72.41545
917.66        71.87796
918.05         71.5802
918.45        71.57123
918.84        71.79885
919.24        72.11623
919.64        72.35444
920.03        72.47117
920.42        72.52342
920.82        72.53991
921.21        72.55679
921.61        72.57893
922.00        72.57336
922.40        72.61359
922.79        72.91293
923.19        73.43932
923.58        74.15786
923.98        74.76525
924.37        74.85886
924.77        74.36423
925.16        73.39574
925.55         72.3071
925.95        71.71387
926.34        71.80001
926.74        72.38938
927.13        73.19216
927.52        73.63495
927.92        73.58849
928.31        73.20384
928.70        72.75027
929.10        72.62919
929.49        72.93044
929.89        73.48147
930.28        74.09174
930.67        74.32206
931.07        74.05151
931.46        73.47666
931.85        72.80478
932.24        72.38309
932.64        72.30183
933.03        72.42452
933.42        72.68023
933.82        72.95532
934.21        73.18921
934.60        73.44367
934.99        73.60692
935.39        73.45719
935.78        73.01544
936.17        72.33349
936.56        71.68813
936.96        71.55225
937.35        72.06964
937.74        73.03271
938.13        74.13235
938.53        74.92916
938.92        75.30341
939.31        75.35486
939.70        75.18577
940.09        74.98019
940.49        74.79769
940.88        74.63037
941.27        74.43756
941.66        74.16913
942.05        73.83542
942.44        73.49525
942.84        73.26389
943.23        73.25078
943.62        73.48644
944.01        73.89162
944.40        74.33145
944.79        74.57108
945.18        74.52373
945.57        74.26376
945.97        73.79326
946.36        73.18848
946.75        72.47654
947.14        71.65813
947.53        70.90948
947.92        70.54179
948.31        70.62498
948.70        71.07573
949.09        71.66147
949.48        71.99647
949.87         71.9833
950.26        71.73585
950.65        71.39482
951.04        71.19603
951.43        71.21636
951.82        71.36693
952.21        71.61039
952.60        71.89539
952.99        72.16409
953.38        72.41029
953.77         72.5792
954.16        72.57972
954.55        72.39831
954.94        72.06998
955.33        71.60917
955.72        71.05371
956.11        70.44321
956.50        69.78098
956.89        69.19997
957.28        68.90942
957.66        68.99125
958.05        69.40643
958.44        69.93919
958.83        70.22744
959.22        70.16629
959.61        69.78259
960.00        69.35745
960.39        69.35508
960.78        69.85175
961.16        70.75683
961.55        71.54035
961.94        71.40332
962.33        70.21642
962.72        68.32542
963.11        66.44519
963.49        65.60415
963.88        66.02177
964.27        67.39594
964.66        69.20538
965.04        70.50463
965.43        70.85416
965.82        70.55184
966.21        69.93613
966.60        69.54112
966.98        69.54045
967.37         69.7282
967.76        69.95741
968.15          69.967
968.53         69.7117
968.92        69.35313
969.31        69.07472
969.69        69.09756
970.08         69.4623
970.47        70.07027
970.86        70.86279
971.24        71.75189
971.63        72.56853
972.02        73.31197
972.40        73.88817
972.79        74.04359
973.17        73.84671
973.56        73.28046
973.95        72.56766
974.33        72.07465
974.72        71.92578
975.11        72.06603
975.49        72.27988
975.88        72.21438
976.26        71.79232
976.65        71.10069
977.04        70.39792
977.42         70.1073
977.81        70.28483
978.19        70.76704
978.58        71.40275
978.96        71.84779
979.35        71.95276
979.74        71.89206
980.12        71.71333
980.51        71.25745
980.89        70.66974
981.28        69.87181
981.66        69.25129
982.05        69.54826
982.43        70.83515
982.82        72.78924
983.20        74.75227
983.59        75.54436
983.97        75.00687
984.35        73.44186
984.74        71.34988
985.12        69.66579
985.51        68.79104
985.89        68.53335
986.28        68.79587
986.66        69.50578
987.04         70.4978
987.43          71.736
987.81        73.02629
988.20        73.88181
988.58        74.18422
988.96        74.03045
989.35        73.37498
989.73        72.29021
990.12        70.80257
990.50        68.79762
990.88        66.84142
991.27        66.21684
991.65        67.28249
992.03        69.67054
992.42        72.05118
992.80        73.04794
993.18        72.31384
993.56        70.04474
993.95        67.08492
994.33        65.57175
994.71         66.4678
995.10        68.77644
995.48        71.14339
995.86         72.0535
996.24        71.36774
996.63        69.48232
997.01        67.13448
997.39        65.92406
997.77        66.52778
998.15        68.34969
998.54        70.41153
998.92        71.42546
999.30        71.10605
999.68        69.93403
1000.06        68.40119
1000.45        67.35567
1000.83        67.22532
1001.21        67.62344
1001.59        68.44614
1001.97        69.60202
1002.35        71.01283
1002.73        72.83308
1003.12        74.59492
1003.50        75.10188
1003.88        74.13066
1004.26         72.0851
1004.64        69.98447
1005.02        69.12869
1005.40        69.71074
1005.78        71.40499
1006.16        73.53702
1006.54        74.84954
1006.92         74.9099
1007.30        74.04614
1007.69        72.91871
1008.07        72.51292
1008.45        73.14617
1008.83        74.41809
1009.21        75.66022
1009.59        75.94626
1009.97        74.99916
1010.35        72.96639
1010.73        70.36649
1011.11          68.582
1011.49        68.41462
1011.86        69.73426
1012.24        71.51706
1012.62        72.54267
1013.00        72.56206
1013.38        71.89024
1013.76        71.32306
1014.14        72.18807
1014.52        74.77887
1014.90        78.68963
1015.28        82.73392
1015.66        84.59504
1016.04        83.53936
1016.41        80.43903
1016.79        76.55017
1017.17        74.10144
1017.55        73.63969
1017.93        74.51729
1018.31        76.13986
1018.69        77.53751
1019.06        78.40322
1019.44        79.12552
1019.82        79.59894
1020.20        79.57018
1020.58         79.0025
1020.95         77.7125
1021.33        76.34276
1021.71          75.743
1022.09         75.9576
1022.46        76.82749
1022.84        77.51552
1023.22        76.28815
1023.60        72.60199
1023.97        66.45347
1024.35        59.46517
1024.73        55.29271
