SpectraSmart Spectrum 2.9.0.0
--------- Device Information -----------
Spectrum Name :  反射率_0
Saving Time :  2024/04/27 23:46:48
Spectro-Module Model Name : SE2030-DUVN
Spectro-Module Serial Number : OS361AC55029948
Wavelength Start : 200
Wavelength End : 1025
Wavelength Unit : Wavelength(nm)
Spectrum Unit : Reflectance(%)
-----------Spectrum Setting ------------
Integration Time : 20ms
Average : 10
Boxcar : 0
Background removal :  enabled
linearity correction :  enabled
SC :  disabled
Intensity correction :  disabled
DWT denoise :  enabled
savitzky-golay :  disabled
FFT :  disabled
Running average :  disabled
Kalman :  disabled
High pass :  disabled
---------------BEGIN--------------------
Wavelength(nm)             Reflectance(%)
200.29               0
200.75        60.02377
201.21        76.09698
201.67        87.86997
202.13         89.5371
202.58        84.13159
203.04        75.62518
203.50        67.54092
203.96        65.14175
204.42           68.38
204.88        73.88681
205.34        79.05089
205.80        81.98953
206.26        82.41854
206.72        80.39553
207.18        75.01244
207.64        67.80648
208.10        63.46267
208.55        63.25321
209.01        62.52308
209.47        57.97761
209.93        46.74931
210.39        17.84456
210.85       -67.70531
211.31       -163.7389
211.77       -34.21622
212.23        46.58045
212.69        73.78741
213.14         80.5501
213.60        77.01235
214.06        64.52649
214.52         41.0617
214.98        23.38062
215.44        30.27646
215.90        46.21179
216.36        59.45536
216.81        66.58331
217.27        69.25268
217.73        70.04855
218.19        68.91681
218.65         65.0265
219.11        58.35804
219.57         48.5862
220.02        37.14232
220.48        30.16893
220.94        29.90481
221.40        34.33035
221.86        40.94197
222.32        46.94437
222.77        51.53645
223.23        55.15646
223.69        57.11453
224.15        56.47345
224.61        53.46712
225.06        48.21827
225.52        42.65063
225.98        40.39571
226.44        41.86289
226.90        44.92491
227.36        47.64616
227.81        48.50121
228.27         47.5145
228.73        45.24056
229.19         41.9492
229.65        38.39596
230.10        35.18564
230.56        32.58908
231.02        30.69921
231.48        29.66477
231.93        29.37302
232.39        29.79249
232.85        30.91114
233.31        32.69384
233.77        34.91869
234.22        37.49728
234.68        39.71052
235.14        40.79738
235.60        40.69165
236.05        39.45622
236.51        37.99491
236.97        38.17972
237.43        40.65577
237.88        45.00368
238.34        49.49388
238.80        52.63742
239.26        54.25798
239.71        54.54834
240.17        54.06218
240.63        55.36269
241.08        59.46777
241.54        63.61562
242.00        66.15468
242.46        66.90199
242.91        66.21496
243.37        63.42756
243.83        57.50098
244.28        51.34678
244.74        54.52878
245.20        65.39246
245.66        73.15536
246.11        74.36366
246.57         70.3341
247.03        60.41013
247.48        45.82322
247.94        41.12773
248.40        56.98765
248.85        82.93356
249.31        104.8963
249.77        112.4233
250.22        108.7259
250.68        100.3548
251.14        91.92538
251.59        86.83797
252.05        84.94275
252.51        84.35126
252.96        84.11751
253.42         83.0831
253.88        80.82813
254.33        79.35908
254.79        78.34124
255.25        76.13023
255.70        72.97853
256.16        69.91447
256.62        68.46107
257.07        70.32967
257.53        74.58111
257.99        78.97316
258.44        81.63586
258.90        81.54627
259.35         78.8248
259.81        75.10633
260.27        71.05598
260.72        67.50599
261.18        65.05755
261.63        63.08454
262.09         61.7004
262.55        60.60154
263.00        59.57673
263.46        58.78819
263.91        58.04206
264.37         57.4495
264.83        56.88586
265.28        56.26361
265.74        55.54933
266.19        54.46399
266.65        53.08755
267.11        51.47298
267.56        49.77139
268.02         48.3378
268.47        47.21972
268.93        46.34024
269.38        45.62172
269.84        44.96012
270.30           44.29
270.75        43.64425
271.21        42.93642
271.66         41.9794
272.12        40.78756
272.57        39.37675
273.03        37.97578
273.48        36.86877
273.94        36.16116
274.39        35.70855
274.85        35.36947
275.31        34.85217
275.76        34.07963
276.22        33.18726
276.67        32.24254
277.13        31.43393
277.58        30.75886
278.04        30.21327
278.49         29.6967
278.95        29.18118
279.40        28.60856
279.86        28.05541
280.31        27.55033
280.77        27.24392
281.22        27.10197
281.68        27.11079
282.13        27.12723
282.59         27.0021
283.04        26.70477
283.50        26.31365
283.95        25.94463
284.41        25.81239
284.86        25.93369
285.32        26.23961
285.77        26.59502
286.22        26.84694
286.68        26.96944
287.13        26.97755
287.59        26.94947
288.04         26.9261
288.50        26.95773
288.95          26.999
289.41        27.05608
289.86        27.09251
290.32          27.134
290.77        27.20355
291.22        27.34538
291.68        27.60682
292.13        28.00216
292.59        28.55191
293.04         29.2491
293.50         30.1038
293.95        31.10285
294.40        32.24779
294.86         33.5435
295.31         34.9913
295.77        36.58493
296.22        38.28835
296.68        40.06073
297.13        41.80535
297.58        43.49572
298.04        45.15828
298.49        46.81149
298.95        48.54124
299.40         50.3786
299.85        52.31774
300.31        54.40631
300.76        56.64523
301.21        59.00515
301.67         61.4748
302.12        63.90289
302.58        66.16806
303.03        68.21924
303.48        70.12779
303.94        72.05955
304.39        74.17442
304.84         76.5337
305.30        79.08321
305.75        81.65816
306.20        84.10848
306.66        86.41582
307.11        88.58752
307.57        90.70598
308.02        92.76151
308.47        94.77763
308.93        96.72598
309.38        98.57964
309.83        100.4292
310.29        102.3034
310.74        104.1639
311.19        105.9286
311.65        107.4254
312.10        108.5893
312.55        109.4833
313.00         110.268
313.46         111.207
313.91        112.3427
314.36        113.6188
314.82        114.8797
315.27        115.8623
315.72        116.5055
316.18        116.9154
316.63        117.2199
317.08        117.6641
317.53        118.3102
317.99        119.0644
318.44        119.8415
318.89        120.4802
319.35        120.9265
319.80        121.2502
320.25        121.4805
320.70        121.6657
321.16         121.828
321.61        121.9803
322.06         122.153
322.51        122.4127
322.97        122.7486
323.42        123.1788
323.87         123.646
324.32        124.0721
324.78        124.4077
325.23        124.7178
325.68        124.9669
326.13        125.1364
326.59        125.2099
327.04         125.249
327.49        125.3119
327.94        125.5416
328.39        125.9671
328.85        126.5115
329.30        127.1554
329.75        127.6579
330.20        127.9564
330.66        128.0786
331.11        128.1692
331.56        128.3347
332.01         128.628
332.46        128.9938
332.92        129.3789
333.37        129.8777
333.82        130.4096
334.27        130.9773
334.72        131.4936
335.17        131.8078
335.63        131.8762
336.08        131.8242
336.53          131.75
336.98        131.8773
337.43         132.273
337.88        132.8635
338.34         133.583
338.79        134.3797
339.24        135.1729
339.69        135.9784
340.14        136.6862
340.59        137.1217
341.05        137.2729
341.50        137.2044
341.95        137.0895
342.40        137.2326
342.85        137.7067
343.30        138.4145
343.75        139.2289
344.20        139.9331
344.66        140.4489
345.11        140.8315
345.56        141.0788
346.01        141.1838
346.46        141.1763
346.91        141.0666
347.36        140.9451
347.81        140.9604
348.26        141.1377
348.72        141.4299
349.17        141.7628
349.62        142.0343
350.07        142.1918
350.52        142.2577
350.97        142.1956
351.42        141.9513
351.87        141.5405
352.32        140.9956
352.77        140.4099
353.22        139.9324
353.67        139.5901
354.13        139.3378
354.58        139.0966
355.03        138.8019
355.48        138.4092
355.93        137.9383
356.38        137.3281
356.83        136.4809
357.28        135.4122
357.73        134.1841
358.18        132.9361
358.63        131.8816
359.08        131.0783
359.53        130.4696
359.98        129.9837
360.43        129.4988
360.88        128.9538
361.33         128.359
361.78        127.6966
362.23        126.9363
362.68        126.0668
363.13        125.1007
363.58         124.049
364.03        122.8334
364.48        121.6562
364.93        120.4171
365.38        119.1894
365.83        117.9921
366.28        116.8428
366.73        115.7354
367.18         114.722
367.63        113.8811
368.08        113.2115
368.53        112.6878
368.98         112.175
369.43        111.4552
369.88        110.4864
370.33         109.329
370.78        108.1461
371.23         107.214
371.68        106.5929
372.13        106.1819
372.58        105.8367
373.03        105.3244
373.48         104.572
373.93        103.6617
374.38        102.6495
374.83        101.6139
375.28        100.6059
375.72        99.60028
376.17        98.67561
376.62        97.88474
377.07        97.23598
377.52        96.70039
377.97        96.25459
378.42        95.85437
378.87        95.46561
379.32        95.09038
379.77        94.65498
380.22        94.04797
380.67        93.26181
381.11        92.33866
381.56        91.39884
382.01        90.66338
382.46        90.19728
382.91        89.94205
383.36        89.79627
383.81        89.58896
384.26        89.26492
384.71        88.87482
385.15        88.43587
385.60        88.03675
386.05        87.68015
386.50         87.3336
386.95        86.99825
387.40         86.6916
387.85        86.41227
388.29        86.10472
388.74        85.83787
389.19         85.5069
389.64         85.0867
390.09         84.5714
390.54        84.00725
390.98        83.45705
391.43        83.01457
391.88        82.68109
392.33        82.37425
392.78        82.03003
393.23        81.66427
393.67        81.08236
394.12        80.53666
394.57        80.69591
395.02        81.13953
395.47        81.05551
395.91        80.38383
396.36         80.0165
396.81        79.99406
397.26        79.77341
397.71        79.39352
398.15        79.15576
398.60        79.10831
399.05        78.99915
399.50        78.83121
399.95         78.6479
400.39        78.44022
400.84        78.28609
401.29        78.14616
401.74        77.57683
402.18        76.76744
402.63        76.58571
403.08         76.9511
403.53        76.93188
403.97        76.47462
404.42        76.13129
404.87        75.95637
405.32        75.83236
405.76         75.7579
406.21        75.71829
406.66        75.68365
407.11         75.6931
407.55        75.69682
408.00        75.52839
408.45        75.22659
408.90        74.76926
409.34        74.31104
409.79        74.34257
410.24         74.7201
410.68        74.78072
411.13        74.46738
411.58        74.15438
412.03        73.94277
412.47        73.85779
412.92        73.90773
413.37        74.08571
413.81        74.28708
414.26        74.42039
414.71        74.43594
415.15        74.37877
415.60        74.25706
416.05        74.15546
416.49        74.10764
416.94        74.07901
417.39        74.05898
417.83        74.02785
418.28        73.97487
418.73         73.9025
419.17        73.83504
419.62        73.80894
420.07        73.83923
420.51        73.91379
420.96        73.99736
421.41        74.02174
421.85        73.95098
422.30        73.74109
422.74         73.4902
423.19        73.70139
423.64        74.27869
424.08        74.61665
424.53        74.55183
424.98        74.56705
425.42        74.69021
425.87        74.38449
426.31        73.85116
426.76        74.05328
427.21        74.82188
427.65        74.86215
428.10        74.24633
428.54        74.10526
428.99        74.47772
429.44        74.88413
429.88        75.14031
430.33        74.86294
430.77        74.21085
431.22        74.21339
431.66         74.7718
432.11        74.90941
432.56        74.67775
433.00        74.71587
433.45        74.85321
433.89        75.12823
434.34        75.53139
434.78        74.37369
435.23        74.14723
435.67        74.65898
436.12        75.63371
436.57        75.86931
437.01          75.313
437.46        74.90635
437.90        75.12371
438.35        76.16398
438.79        75.54998
439.24        75.67298
439.68        75.81625
440.13        76.02203
440.57        76.21395
441.02        76.49545
441.46         76.7539
441.91        76.42747
442.35        75.73926
442.80        75.99396
443.24        76.97033
443.69        77.18373
444.13        76.63818
444.58        76.56223
445.02        76.94727
445.47        77.15141
445.91        77.11622
446.36        77.12582
446.80        77.17052
447.24        77.10662
447.69        77.02065
448.13        77.20731
448.58        77.59146
449.02        77.69307
449.47        77.54266
449.91        77.52886
450.36        77.67871
450.80        77.72169
451.25        77.67397
451.69        77.66238
452.13        77.67998
452.58        77.63273
453.02        77.51978
453.47        77.38013
453.91        77.20588
454.36        77.09968
454.80        77.01469
455.24        76.64155
455.69        76.12228
456.13         75.9182
456.58        76.10072
457.02        75.94176
457.46        76.33583
457.91        75.95619
458.35        75.48013
458.79        75.13746
459.24        75.04771
459.68        74.93045
460.13        74.81043
460.57        74.53339
461.01        74.43734
461.46        74.52754
461.90        74.21107
462.34        74.38948
462.79        74.22755
463.23        74.15993
463.68        74.02457
464.12        73.86362
464.56        73.73589
465.01         73.8883
465.45        74.06793
465.89        73.91928
466.34        73.58508
466.78        73.12136
467.22         72.5533
467.67        73.55146
468.11         73.1256
468.55        73.04501
468.99        72.54113
469.44        72.37202
469.88         72.5524
470.32        72.68345
470.77        72.70563
471.21        72.66724
471.65        72.54903
472.10        72.35524
472.54        72.11355
472.98        71.93973
473.42        71.86774
473.87         71.7952
474.31        71.70174
474.75        71.87621
475.20        72.17087
475.64        72.05636
476.08        71.63281
476.52        71.42427
476.97        71.41931
477.41        71.71924
477.85        71.77935
478.29         71.4287
478.74        71.47446
479.18        71.08362
479.62        71.55381
480.06        71.55125
480.50        71.41447
480.95        71.35851
481.39        71.11086
481.83        71.28256
482.27        71.46702
482.72        70.76637
483.16         71.2661
483.60        71.15172
484.04        71.07601
484.48        70.94319
484.93        70.93441
485.37        71.08667
485.81        71.44859
486.25        71.71059
486.69        72.21975
487.14         71.6097
487.58        71.42932
488.02        71.42326
488.46        70.95731
488.90        71.36385
489.34        71.05747
489.79        69.98951
490.23        70.66014
490.67        70.49858
491.11        70.36216
491.55         70.2782
491.99        70.27738
492.43        70.27898
492.88        70.25415
493.32        70.26762
493.76        70.28929
494.20        70.37017
494.64        70.53317
495.08        70.56968
495.52        70.52798
495.96        70.97324
496.41        71.66017
496.85         71.4732
497.29         70.2951
497.73        70.13498
498.17        70.74229
498.61        71.01025
499.05        70.76419
499.49        70.49714
499.93         70.3412
500.37        70.28516
500.82        70.29058
501.26        70.48585
501.70        70.90405
502.14          70.046
502.58        70.47349
503.02         70.4296
503.46        70.37421
503.90        70.37676
504.34        70.36459
504.78        70.41521
505.22        70.46183
505.66        70.43753
506.10        70.38814
506.54        70.29259
506.98        70.11895
507.42         70.3954
507.86        70.45325
508.30        69.98719
508.74        70.30611
509.18         70.2038
509.62        70.14154
510.06        70.10899
510.50        70.12655
510.94        70.16608
511.38        70.19242
511.82        70.18951
512.26        70.14726
512.70        70.07616
513.14        70.00895
513.58        69.97195
514.02        69.97021
514.46        70.04042
514.90        70.16438
515.34        70.06186
515.78        70.12624
516.22          70.052
516.66        69.98318
517.10        69.94592
517.54        69.94846
517.98        69.96838
518.42         69.9949
518.86        70.00501
519.30        69.98718
519.74        70.00414
520.18        70.02981
520.62        69.89702
521.06        69.66799
521.50        69.63372
521.93         69.7795
522.37        69.83121
522.81        69.78241
523.25        69.73828
523.69         69.7965
524.13        69.81351
524.57        69.81395
525.01        69.81425
525.45        69.80444
525.89        69.76712
526.32          69.698
526.76        69.61716
527.20        69.54485
527.64        69.52458
528.08        69.56113
528.52        69.63232
528.96        69.71694
529.40        69.78075
529.83        69.80568
530.27        69.82018
530.71        69.80369
531.15        69.73455
531.59        69.61897
532.03        69.46331
532.46        69.32071
532.90        69.29995
533.34        69.40742
533.78        69.60611
534.22        69.81176
534.66         69.8951
535.09        69.82024
535.53        69.64979
535.97        69.43544
536.41        69.27667
536.85        69.20623
537.28        69.19868
537.72        69.23108
538.16        69.25735
538.60         69.2635
539.04        69.27798
539.47        69.28857
539.91        69.31197
540.35        69.33237
540.79        69.35903
541.22         69.3689
541.66        69.33842
542.10        69.26494
542.54        69.15773
542.97        69.05512
543.41        69.05474
543.85        69.15504
544.29         69.3316
544.72         69.5009
545.16        69.56854
545.60        69.49508
546.04        69.30583
546.47        69.07717
546.91        68.93562
547.35        68.90326
547.79        68.97739
548.22        69.06358
548.66        68.97925
549.10        68.74874
549.53        68.66591
549.97        68.75669
550.41        68.82404
550.84        68.86678
551.28         69.0126
551.72        69.21467
552.15        69.32198
552.59        69.32836
553.03        69.26025
553.46        69.14594
553.90        69.07983
554.34        69.06212
554.77        69.08634
555.21        69.11071
555.65        69.05743
556.08        68.85011
556.52        68.73938
556.96        68.70775
557.39        68.68119
557.83        68.67799
558.27        68.71137
558.70        68.76474
559.14         68.8091
559.57        68.81878
560.01        68.83801
560.45        68.84921
560.88        68.80264
561.32        68.76824
561.75        68.76006
562.19        68.80274
562.63        68.88874
563.06        68.96323
563.50        68.88528
563.93        68.69108
564.37        68.63274
564.80        68.70501
565.24        68.85832
565.68          69.021
566.11        69.04872
566.55        68.97989
566.98        68.95886
567.42        69.00893
567.85        69.02423
568.29        69.05829
568.72        69.00232
569.16        68.88473
569.60        69.05486
570.03        69.25778
570.47        68.97888
570.90        69.00725
571.34        69.36777
571.77        69.41559
572.21        69.09103
572.64        69.56011
573.08        69.26716
573.51        68.78749
573.95        69.02074
574.38         69.7487
574.82        69.40291
575.25        69.45805
575.69         69.3363
576.12        68.98442
576.56        69.20232
576.99        69.30921
577.42        69.42963
577.86        69.46549
578.29        69.33738
578.73        69.34501
579.16        69.30942
579.60         69.2421
580.03         69.1575
580.47        68.97621
580.90         69.3462
581.33        69.67507
581.77        69.59706
582.20        69.60501
582.64        69.62093
583.07        69.36748
583.51        69.24141
583.94        69.33031
584.37        69.27018
584.81        69.14497
585.24        69.15623
585.68        69.29241
586.11        69.36229
586.54        69.45757
586.98        68.93498
587.41        69.07088
587.85        69.18236
588.28        69.22903
588.71        68.73222
589.15        69.39808
589.58        68.64181
590.01        69.02176
590.45        69.00457
590.88        68.29355
591.31        68.35855
591.75        68.83459
592.18        68.75116
592.61        68.24153
593.05        68.78125
593.48        69.02271
593.91        68.69304
594.35        69.01954
594.78         68.9838
595.21        68.85334
595.65        68.69898
596.08         68.4511
596.51        68.95544
596.94        68.36653
597.38        68.41776
597.81        68.65508
598.24        68.23651
598.68        68.83688
599.11        68.32429
599.54        69.10126
599.97        68.83459
600.41        68.74509
600.84        68.66166
601.27        68.77256
601.70         68.5737
602.14        68.44413
602.57        68.63522
603.00         68.5477
603.43        68.71994
603.87        68.74866
604.30        68.75108
604.73        68.78279
605.16        68.83121
605.60        68.69318
606.03        68.81993
606.46        69.01961
606.89        69.14185
607.32         68.8603
607.76        68.86604
608.19         68.8565
608.62        68.83614
609.05        68.75507
609.48         68.6851
609.92        68.65876
610.35        68.46586
610.78        68.95779
611.21        68.39252
611.64        68.82993
612.07        68.58671
612.50         68.3091
612.94        68.14847
613.37        68.14223
613.80        68.50954
614.23        68.53006
614.66        68.58857
615.09         68.4922
615.52        68.51255
615.96        68.64953
616.39        68.50079
616.82        68.35792
617.25        68.40686
617.68        68.24072
618.11        68.20522
618.54        68.18836
618.97         68.3447
619.40        68.58295
619.84        68.62803
620.27        68.64074
620.70        68.45242
621.13        68.10324
621.56        68.39748
621.99        67.69587
622.42        68.10897
622.85        68.09632
623.28        68.53342
623.71        68.10447
624.14        67.81338
624.57        68.14306
625.00        67.96822
625.43        67.83036
625.86        67.83996
626.29        68.11387
626.72        67.90104
627.15        67.89043
627.58        67.91405
628.01         68.2448
628.44        67.76487
628.87         67.5151
629.30        67.98621
629.73        67.99131
630.16        67.44602
630.59        67.71951
631.02        67.67104
631.45        67.78728
631.88        67.86031
632.31        67.91277
632.74        67.75935
633.17        67.87096
633.60        67.85604
634.03        67.85349
634.46         67.8497
634.89        67.84793
635.32        67.83357
635.75        67.80034
636.18         67.7951
636.61        67.79881
637.04        67.70283
637.47        67.54427
637.89        67.51658
638.32        67.60423
638.75        67.66441
639.18        67.68777
639.61         67.7672
640.04        67.85935
640.47        67.86123
640.90        67.76512
641.33        67.57742
641.76        67.34433
642.18        67.31083
642.61         67.2345
643.04        67.29555
643.47        67.38861
643.90        67.47121
644.33        67.52013
644.76        67.55295
645.18        67.56261
645.61        67.52085
646.04        67.43101
646.47        67.29652
646.90        67.15826
647.33        67.07986
647.75         67.0817
648.18        67.17199
648.61        67.30108
649.04        67.35568
649.47         67.3254
649.89        67.27943
650.32        67.26958
650.75        67.32585
651.18        67.44198
651.61        67.63767
652.03        67.79115
652.46        67.65603
652.89        67.41912
653.32        67.17261
653.74        67.22552
654.17        67.91033
654.60        67.53162
655.03        66.87488
655.46        67.27192
655.88        68.01691
656.31        69.20767
656.74        71.40079
657.16        70.29273
657.59        69.46382
658.02        68.03357
658.45        68.36337
658.87        68.62022
659.30        68.10264
659.73        67.89198
660.15        67.69012
660.58        67.50134
661.01        67.68364
661.44        67.94977
661.86        67.93897
662.29        67.62514
662.72        67.30473
663.14        67.11298
663.57        67.20114
664.00        67.50867
664.42        67.63264
664.85        67.54293
665.27        67.53012
665.70        67.53546
666.13        67.52411
666.55        67.48228
666.98        67.42811
667.41        67.38258
667.83        67.38086
668.26        67.42283
668.69        67.50977
669.11        67.60958
669.54        67.67188
669.96        67.69098
670.39        67.63717
670.82        67.56973
671.24        67.64406
671.67         67.8339
672.09          67.964
672.52        68.00828
672.94        67.95145
673.37        67.83369
673.80        67.76982
674.22        67.77476
674.65        67.70904
675.07        67.59714
675.50        67.51913
675.92        67.50014
676.35        67.51524
676.77        67.56845
677.20        67.66563
677.62        67.77794
678.05        67.83913
678.47        67.83353
678.90        67.78239
679.32        67.71806
679.75        67.70905
680.17        67.77042
680.60        67.89111
681.02        68.00894
681.45        68.03912
681.87        67.98074
682.30        67.74877
682.72        67.46481
683.15        67.56231
683.57        67.97072
684.00        68.02962
684.42         67.7595
684.85        67.73149
685.27         67.9446
685.70        68.05907
686.12        68.05954
686.54        68.12313
686.97        68.25217
687.39        68.32983
687.82        68.31344
688.24        68.25836
688.66        68.54457
689.09        67.86627
689.51        68.15237
689.94        68.01627
690.36        68.01071
690.78        68.07468
691.21        68.16686
691.63        68.18073
692.06        68.08025
692.48        67.90639
692.90        67.72427
693.33        67.61898
693.75        67.62138
694.17        67.73959
694.60        67.88089
695.02        67.90872
695.44        67.82211
695.87        67.64931
696.29        67.49953
696.71        67.73432
697.14        68.21865
697.56        68.28484
697.98        67.95786
698.41        67.89977
698.83        68.10289
699.25          68.199
699.68        68.15411
700.10        68.15819
700.52         68.2047
700.94        68.24919
701.37        68.26236
701.79        68.23667
702.21        68.15341
702.64        68.03748
703.06        67.92865
703.48        67.90427
703.90        67.98084
704.33        68.12848
704.75        68.28812
705.17        68.33922
705.59        68.25621
706.01        68.05481
706.44        67.81612
706.86        67.79479
707.28        67.83488
707.70         68.0452
708.12        68.30052
708.55        68.45824
708.97        68.49239
709.39        68.50562
709.81        68.52374
710.23        68.53773
710.66         68.5581
711.08        68.61114
711.50        68.66542
711.92        68.68379
712.34         68.6603
712.76        68.61034
713.19        68.53851
713.61        68.49581
714.03        68.47645
714.45        68.47685
714.87        68.49032
715.29        68.50426
715.71        68.51511
716.13        68.52667
716.56        68.53396
716.98        68.60159
717.40         68.7114
717.82        68.85105
718.24        68.99392
718.66        69.10049
719.08        69.15776
719.50         69.1695
719.92        69.15824
720.34        69.16278
720.76         69.1912
721.19        69.22435
721.61        69.24708
722.03        69.20305
722.45        69.08554
722.87        68.91798
723.29        68.74734
723.71         68.6451
724.13        68.63517
724.55        68.70427
724.97        68.81786
725.39        68.91692
725.81         68.9805
726.23        69.01595
726.65        69.05349
727.07        69.14413
727.49        69.29242
727.91        69.47527
728.33        69.63307
728.75        69.67194
729.17        69.57696
729.59        69.37976
730.01        69.13978
730.43         69.0153
730.85        69.04625
731.27        69.07259
731.69        69.03293
732.10        69.41874
732.52        69.25397
732.94        69.36863
733.36        69.46481
733.78        69.42382
734.20        69.22204
734.62        69.37685
735.04        68.87622
735.46        69.14297
735.88        69.70042
736.30        69.69813
736.72        69.19227
737.13        69.05858
737.55         69.3101
737.97        69.49233
738.39        69.53021
738.81        69.37907
739.23        69.12019
739.65        69.19769
740.06        69.53355
740.48        69.67262
740.90        69.56458
741.32        69.56659
741.74        69.57764
742.16        69.55804
742.57        69.48553
742.99        69.38561
743.41        69.30445
743.83        69.29327
744.25        69.35921
744.67        69.47608
745.08        69.61691
745.50        69.69597
745.92        69.70783
746.34        69.67638
746.75        69.61292
747.17        69.55071
747.59        69.50539
748.01        69.40926
748.42        69.30724
748.84         69.3797
749.26        69.56937
749.68         69.6209
750.09        69.51033
750.51        69.36481
750.93        69.23708
751.35        69.21872
751.76         69.2999
752.18         69.3185
752.60         69.2741
753.01        69.28948
753.43        69.35587
753.85        69.43416
754.27        69.51618
754.68        69.60405
755.10        69.69225
755.52        69.77332
755.93        69.85719
756.35        69.94987
756.77         70.0104
757.18        70.10376
757.60        70.26488
758.02        70.13013
758.43        69.76853
758.85         70.3332
759.26        70.95663
759.68        70.53105
760.10        69.78973
760.51        68.97485
760.93        69.65165
761.34        69.52768
761.76        70.27853
762.18        70.50085
762.59        70.56473
763.01        70.37238
763.42          70.097
763.84        69.97102
764.26        70.08096
764.67        70.29732
765.09        70.53893
765.50        70.70901
765.92        70.74169
766.33        70.43764
766.75        69.89144
767.16        69.64754
767.58        69.73958
768.00        70.03535
768.41        70.41048
768.83        70.43265
769.24        70.15348
769.66         70.1861
770.07        70.47182
770.49        70.47055
770.90        70.21635
771.32         70.1552
771.73        70.28739
772.15        70.31827
772.56        70.25867
772.97        70.21315
773.39         70.1349
773.80        70.37017
774.22        70.05441
774.63         70.3447
775.05        70.83936
775.46        71.07558
775.88        70.96199
776.29        70.79396
776.70        70.67638
777.12        70.66196
777.53        70.80494
777.95        71.05746
778.36        71.33411
778.77        71.46787
779.19        71.42069
779.60        71.28886
780.02        71.12286
780.43        70.97187
780.84        70.88319
781.26        70.93184
781.67        71.15367
782.09        71.37919
782.50        71.40526
782.91        71.91335
783.33        71.08871
783.74         70.9918
784.15        71.10643
784.57        71.08959
784.98        70.95831
785.39        71.08752
785.81        71.41067
786.22        71.47421
786.63        71.30053
787.04        71.28452
787.46        71.45269
787.87        71.57093
788.28        71.61369
788.70        71.67568
789.11        71.73822
789.52        71.66883
789.93        71.54273
790.35         71.7283
790.76        72.14971
791.17        72.17099
791.58        71.80326
792.00        71.64646
792.41         71.7608
792.82        71.65295
793.23        71.41875
793.65        71.68386
794.06        72.32211
794.47        72.54841
794.88        72.37765
795.29        72.20049
795.71        72.46796
796.12        72.41228
796.53        72.17683
796.94        72.14484
797.35        72.28259
797.76        72.17307
798.18        71.88663
798.59        71.82621
799.00        72.01891
799.41        72.26131
799.82        72.45554
800.23        72.53626
800.64        72.46712
801.06        72.24197
801.47        71.99353
801.88        71.86404
802.29        71.90208
802.70        72.07879
803.11        72.29877
803.52         72.3956
803.93        72.32269
804.34        72.12244
804.75        71.91982
805.17        71.88239
805.58        72.07306
805.99        72.48788
806.40        72.95679
806.81        72.99983
807.22        72.64674
807.63        72.42271
808.04        72.40728
808.45        72.34617
808.86        72.26632
809.27        72.36704
809.68        72.60428
810.09        72.77418
810.50        72.83739
810.91        72.85615
811.32         72.8419
811.73        72.82436
812.14        72.81866
812.55        72.76121
812.96        72.67039
813.37        72.69909
813.78        72.80775
814.19        72.74945
814.60        72.56187
815.01        72.50784
815.42        72.60604
815.83        72.71373
816.24        72.81431
816.65        72.94888
817.05        73.10484
817.46        73.21954
817.87        73.31659
818.28        73.38927
818.69         73.4345
819.10        73.45549
819.51        73.43937
819.92        73.36469
820.33         73.2395
820.74        73.08262
821.14        72.93172
821.55        72.87386
821.96        72.90762
822.37        73.01608
822.78        73.16409
823.19         73.2832
823.60        73.34402
824.00        73.37811
824.41        73.35147
824.82        73.30289
825.23        73.24538
825.64        73.17898
826.04        73.13435
826.45        73.12418
826.86        73.16618
827.27        73.25832
827.68        73.39179
828.08        73.57835
828.49         73.7366
828.90         73.8879
829.31        74.01673
829.72        74.10575
830.12        74.16613
830.53        74.15166
830.94        74.06807
831.35        73.89324
831.75        73.66148
832.16        73.35596
832.57         73.0578
832.97        72.86481
833.38         72.8065
833.79        72.86691
834.20        73.02376
834.60        73.23504
835.01        73.48514
835.42        73.76289
835.82        74.04761
836.23         74.2245
836.64        74.29216
837.04        74.29166
837.45        74.20703
837.86        74.12266
838.26        74.07939
838.67        74.04636
839.08        74.06096
839.48        74.16028
839.89        74.33963
840.29        74.58403
840.70         74.8295
841.11        74.97563
841.51        75.01158
841.92        74.91866
842.33        74.75289
842.73        74.61025
843.14        74.47533
843.54        74.36226
843.95        74.24779
844.35        74.10954
844.76        73.93964
845.17        73.76513
845.57        73.62972
845.98        73.55663
846.38         73.5781
846.79        73.65663
847.19        73.77609
847.60        73.86215
848.00        73.90787
848.41        73.88013
848.81        73.82942
849.22        73.76667
849.62        73.73704
850.03        73.72573
850.43        73.69825
850.84        73.51394
851.24        73.20865
851.65        72.76147
852.05        72.41347
852.46        72.47792
852.86        72.99557
853.27        73.84013
853.67        74.63366
854.07        75.06238
854.48        75.03323
854.88        74.68158
855.29        74.11227
855.69         73.7495
856.10        73.64568
856.50        73.76917
856.90        73.96177
857.31        74.00072
857.71        73.86897
858.12        73.59397
858.52        73.30119
858.92        73.05288
859.33        72.86338
859.73        72.73867
860.13        72.62215
860.54         72.4511
860.94        72.25323
861.34         72.0351
861.75        71.82125
862.15        71.70274
862.55        71.66892
862.96        71.70647
863.36        71.77205
863.76        71.78432
864.17        71.71429
864.57        71.59428
864.97        71.48074
865.38        71.44661
865.78        71.55229
866.18        71.74912
866.58        71.94507
866.99        71.99469
867.39        71.88957
867.79        71.64486
868.19         71.3651
868.60        71.16764
869.00        71.07027
869.40        71.06933
869.80        71.10051
870.21        71.05447
870.61        70.97933
871.01        70.86216
871.41        70.76338
871.81        70.76193
872.22        70.84575
872.62        71.01052
873.02        71.22166
873.42        71.40391
873.82        71.52248
874.22        71.60299
874.63        71.66441
875.03         71.7103
875.43        71.75793
875.83        71.79089
876.23         71.8366
876.63        71.94715
877.03         72.1167
877.44        72.31186
877.84        72.46986
878.24        72.45264
878.64        72.24334
879.04        71.91489
879.44           71.55
879.84        71.25503
880.24        71.06763
880.64        70.96342
881.04        70.96482
881.44        71.10704
881.84        71.37137
882.24        71.72108
882.65         72.0488
883.05        72.27677
883.45         72.3286
883.85        72.24626
884.25         72.0461
884.65        71.75935
885.05        71.42116
885.45        71.02827
885.85         70.6969
886.25        70.62643
886.65        70.85014
887.05        71.30859
887.45        71.80988
887.85        72.05327
888.25         71.9649
888.65        71.61779
889.04        71.15913
889.44        70.88924
889.84         70.8717
890.24          71.019
890.64        71.20316
891.04         71.2249
891.44        71.04047
891.84        70.73737
892.24        70.41586
892.64        70.21947
893.04        70.19337
893.44        70.29057
893.83        70.48807
894.23        70.68426
894.63        70.86933
895.03        71.05814
895.43        71.24515
895.83        71.42042
896.23        71.57191
896.63        71.67745
897.02        71.72893
897.42        71.76421
897.82         71.7762
898.22        71.77507
898.62        71.73814
899.01        71.63431
899.41        71.45337
899.81        71.23091
900.21        71.04134
900.61        71.00363
901.00        71.12761
901.40        71.38121
901.80        71.67793
902.20        71.89126
902.59        71.99149
902.99          72.006
903.39        71.94935
903.79        71.83912
904.18        71.69938
904.58        71.53405
904.98        71.41402
905.38        71.45431
905.77        71.65129
906.17        71.97235
906.57        72.30308
906.96        72.46353
907.36        72.37703
907.76        72.11849
908.15        71.76599
908.55        71.38721
908.95        71.06451
909.34        70.75972
909.74        70.56622
910.14        70.56155
910.53        70.75347
910.93        71.11419
911.33        71.51174
911.72         71.7135
912.12        71.64447
912.52        71.37788
912.91        71.05364
913.31         70.9087
913.70        70.98728
914.10        71.21574
914.49         71.5005
914.89        71.61179
915.29        71.50515
915.68        71.25077
916.08        70.97533
916.47        70.86539
916.87        70.98132
917.26        71.23987
917.66        71.54721
918.05        71.72475
918.45        71.71731
918.84        71.60289
919.24        71.43535
919.64        71.38398
920.03        71.50778
920.42        71.74831
920.82           72.02
921.21        72.18676
921.61         72.1956
922.00        72.08112
922.40        71.94757
922.79        72.04706
923.19        72.38372
923.58        72.91969
923.98         73.3695
924.37        73.36197
924.77        72.82867
925.16        71.87462
925.55        70.86465
925.95        70.42585
926.34        70.71773
926.74        71.53699
927.13         72.5211
927.52        72.98594
927.92        72.79466
928.31        72.15924
928.70        71.40945
929.10        71.04337
929.49        71.18668
929.89        71.62534
930.28        72.23119
930.67        72.66831
931.07        72.79993
931.46        72.78217
931.85        72.60444
932.24        72.27245
932.64        71.83572
933.03        71.28349
933.42        70.80123
933.82        70.70016
934.21        71.03098
934.60        71.71358
934.99        72.49313
935.39        72.89977
935.78        72.84113
936.17        72.44037
936.56        71.90594
936.96        71.60391
937.35        71.69497
937.74        72.00377
938.13         72.4263
938.53        72.82847
938.92        73.15173
939.31        73.43887
939.70        73.62051
940.09        73.55657
940.49        73.22057
940.88        72.70715
941.27        72.15367
941.66        71.78421
942.05        71.66268
942.44         71.7397
942.84        71.98357
943.23        72.26791
943.62        72.55772
944.01        72.86501
944.40        73.12876
944.79        73.24467
945.18        73.17986
945.57        72.93983
945.97        72.56147
946.36        72.18938
946.75        71.83031
947.14        71.46838
947.53        71.10837
947.92        70.75088
948.31        70.42255
948.70        70.17626
949.09        70.01015
949.48        69.89965
949.87        69.84581
950.26        69.83771
950.65        69.94238
951.04        70.27814
951.43        70.83199
951.82        71.52813
952.21        72.18108
952.60        72.47871
952.99        72.33739
953.38        71.86543
953.77        71.21197
954.16        70.60956
954.55        70.14582
954.94        69.76321
955.33        69.49358
955.72        69.38322
956.11        69.42002
956.50        69.60899
956.89        69.82496
957.28        69.82278
957.66        69.57505
958.05        69.14257
958.44        68.66994
958.83         68.4006
959.22        68.39247
959.61        68.52618
960.00         68.7878
960.39        69.15739
960.78        69.58461
961.16        70.12311
961.55        70.49171
961.94        70.31053
962.33         69.5495
962.72        68.38027
963.11        67.23969
963.49        66.77631
963.88         67.1221
964.27        68.08582
964.66         69.3472
965.04        70.32089
965.43        70.68466
965.82        70.62696
966.21        70.29831
966.60        69.94794
966.98        69.67774
967.37        69.37039
967.76        69.03376
968.15        68.69171
968.53        68.39953
968.92        68.23318
969.31        68.22214
969.69        68.35169
970.08         68.6067
970.47        68.97401
970.86        69.50464
971.24        70.29679
971.63        71.22602
972.02         72.1944
972.40        73.04298
972.79        73.44123
973.17         73.4328
973.56        73.04004
973.95        72.43244
974.33        71.88203
974.72        71.49601
975.11        71.21633
975.49        70.98101
975.88        70.70171
976.26        70.36581
976.65        70.03258
977.04        69.71312
977.42        69.39117
977.81        69.02525
978.19        68.56392
978.58        68.23463
978.96        68.36261
979.35         68.9679
979.74        69.99986
980.12        71.05538
980.51         71.2612
980.89        70.56093
981.28        69.07938
981.66        67.49094
982.05        67.07547
982.43        68.13168
982.82        70.19733
983.20        72.48481
983.59        73.62129
983.97        73.37012
984.35        72.08929
984.74        70.31076
985.12        68.99014
985.51        68.48759
985.89        68.53793
986.28        68.92999
986.66        69.44925
987.04        69.94006
987.43        70.46265
987.81         70.9612
988.20        71.20142
988.58        71.17152
988.96        70.90423
989.35         70.3651
989.73        69.62735
990.12        68.69515
990.50         67.4927
990.88        66.36709
991.27        66.08012
991.65        66.82109
992.03        68.37551
992.42        69.86316
992.80        70.46983
993.18         69.9474
993.56        68.41769
993.95        66.49539
994.33        65.61152
994.71         66.4262
995.10        68.21812
995.48        70.06438
995.86        70.91425
996.24        70.68874
996.63        69.65575
997.01        68.35213
997.39        67.86396
997.77        68.61085
998.15        70.16553
998.54        71.78928
998.92        72.53564
999.30         72.2086
999.68        71.15125
1000.06        69.81316
1000.45        68.96758
1000.83        68.99406
1001.21        69.58122
1001.59        70.50922
1001.97        71.48631
1002.35        72.41113
1002.73        73.43511
1003.12        74.38464
1003.50         74.7057
1003.88        74.30848
1004.26        73.30872
1004.64        72.20054
1005.02        71.62951
1005.40        71.68694
1005.78        72.25004
1006.16        72.91328
1006.54        72.93834
1006.92        72.13849
1007.30        70.73796
1007.69        69.35383
1008.07         68.8672
1008.45        69.55668
1008.83        71.10648
1009.21        72.80408
1009.59        73.65088
1009.97        73.36367
1010.35        72.05033
1010.73        70.24454
1011.11        69.33131
1011.49        69.92708
1011.86         71.7245
1012.24        73.52457
1012.62        73.90462
1013.00        72.69193
1013.38        70.47107
1013.76        68.17206
1014.14        67.32796
1014.52        68.39715
1014.90        70.86105
1015.28        74.17896
1015.66        77.17365
1016.04        79.16736
1016.41        80.53259
1016.79        80.86872
1017.17        80.03461
1017.55        78.22225
1017.93        75.50885
1018.31        72.83831
1018.69        71.73662
1019.06        72.62663
1019.44        75.31773
1019.82        78.83862
1020.20        80.93567
1020.58        80.71935
1020.95        78.74497
1021.33        76.23814
1021.71        74.75464
1022.09        74.55086
1022.46        75.10875
1022.84        75.68333
1023.22        74.82302
1023.60        72.04599
1023.97        67.49519
1024.35        62.38559
1024.73        59.18768
