SpectraSmart Spectrum 2.9.0.0
--------- Device Information -----------
Spectrum Name :  反射率_0
Saving Time :  2024/04/28 00:07:28
Spectro-Module Model Name : SE2030-DUVN
Spectro-Module Serial Number : OS361AC55029948
Wavelength Start : 200
Wavelength End : 1025
Wavelength Unit : Wavelength(nm)
Spectrum Unit : Reflectance(%)
-----------Spectrum Setting ------------
Integration Time : 20ms
Average : 10
Boxcar : 0
Background removal :  enabled
linearity correction :  enabled
SC :  disabled
Intensity correction :  disabled
DWT denoise :  enabled
savitzky-golay :  disabled
FFT :  disabled
Running average :  disabled
Kalman :  disabled
High pass :  disabled
---------------BEGIN--------------------
Wavelength(nm)             Reflectance(%)
200.29               0
200.75        149.7616
201.21        154.0116
201.67        149.9275
202.13        137.6226
202.58         119.478
203.04        98.37961
203.50        80.58169
203.96        76.44377
204.42        85.05805
204.88        99.37248
205.34        113.1678
205.80        121.8699
206.26         125.538
206.72        125.7254
207.18         121.565
207.64        114.1451
208.10        108.4436
208.55        105.7938
209.01        104.0679
209.47        101.0153
209.93          94.713
210.39        79.66116
210.85        37.14713
211.31       -4.619666
211.77        63.53651
212.23        102.2706
212.69        114.2789
213.14        116.2773
213.60        112.4068
214.06        102.6181
214.52        83.74706
214.98        64.68822
215.44        61.89685
215.90        68.03834
216.36        75.66273
216.81        81.80267
217.27         86.7829
217.73        92.28762
218.19        96.69323
218.65        96.50117
219.11        90.83353
219.57        79.80158
220.02        66.59733
220.48        61.07557
220.94        66.00689
221.40          76.922
221.86        88.10226
222.32        93.96865
222.77        94.39336
223.23        92.01665
223.69         88.1859
224.15        83.93512
224.61        79.53699
225.06        74.31024
225.52        69.50851
225.98        67.60001
226.44         68.7529
226.90        71.46561
227.36        74.03903
227.81        75.06584
228.27         74.7031
228.73        73.33528
229.19        71.28799
229.65        69.35042
230.10         67.8846
230.56        66.92465
231.02        66.28916
231.48        65.84344
231.93        65.43067
232.39        65.24039
232.85        65.28659
233.31        65.61661
233.77        66.20461
234.22        67.08479
234.68        67.87911
235.14        68.14813
235.60        67.86493
236.05        67.03687
236.51         66.3941
236.97        67.47891
237.43        70.62168
237.88        75.30539
238.34        79.78575
238.80        82.60721
239.26        83.53608
239.71        82.75537
240.17        79.89752
240.63        77.23901
241.08        77.56786
241.54        79.57035
242.00        81.77923
242.46        83.55168
242.91        85.37603
243.37        88.12599
243.83        93.47885
244.28        101.6484
244.74        105.2143
245.20        101.6234
245.66        96.13401
246.11        91.57433
246.57        86.98838
247.03        80.75853
247.48        72.91683
247.94        69.08057
248.40        74.61894
248.85        85.79131
249.31        97.48011
249.77        105.5708
250.22        109.8873
250.68        111.8503
251.14        112.5437
251.59        113.1643
252.05         114.118
252.51        114.9712
252.96        114.6939
253.42        111.6794
253.88        106.2803
254.33        100.8343
254.79        97.04447
255.25        94.06043
255.70        91.21735
256.16        89.05193
256.62        87.71918
257.07        87.53512
257.53        88.51102
257.99        89.59909
258.44        89.77343
258.90        88.76924
259.35        86.39208
259.81        83.66524
260.27        80.95508
260.72        78.78683
261.18         77.6034
261.63        76.73808
262.09        76.14735
262.55        75.25244
263.00        73.90771
263.46        72.48586
263.91        71.04508
264.37        70.12728
264.83        69.65436
265.28        69.38231
265.74        69.13671
266.19        68.39619
266.65        67.21304
267.11        65.68233
267.56        64.03651
268.02        62.75877
268.47        61.90585
268.93        61.37047
269.38         60.9176
269.84        60.22808
270.30        59.21193
270.75        57.97064
271.21         56.6804
271.66         55.5425
272.12        54.62687
272.57        53.79665
273.03        52.97442
273.48        51.94785
273.94        50.76377
274.39        49.48881
274.85        48.27087
275.31        47.18218
275.76        46.23393
276.22        45.43922
276.67        44.76999
277.13        44.33257
277.58        44.02791
278.04        43.85478
278.49        43.62499
278.95        43.21747
279.40        42.54288
279.86        41.73936
280.31        40.83366
280.77         40.0283
281.22        39.32496
281.68        38.74465
282.13        38.25079
282.59        37.87045
283.04        37.55818
283.50        37.34264
283.95        37.16071
284.41        36.97422
284.86        36.74594
285.32        36.50862
285.77        36.27082
286.22        36.10847
286.68        36.04371
287.13         36.0097
287.59        35.98973
288.04        35.86809
288.50        35.66807
288.95        35.39439
289.41        35.13404
289.86        34.95178
290.32        34.89683
290.77         34.9376
291.22        35.05402
291.68        35.20125
292.13        35.36509
292.59        35.59874
293.04        35.93533
293.50        36.45403
293.95        37.15821
294.40        38.02922
294.86        39.04255
295.31        40.15174
295.77        41.34262
296.22        42.60042
296.68        43.91768
297.13        45.24872
297.58        46.58198
298.04        47.92803
298.49        49.27814
298.95        50.67598
299.40        52.13708
299.85         53.6701
300.31        55.33189
300.76        57.14359
301.21        59.08761
301.67        61.14409
302.12        63.17379
302.58        65.07143
303.03        66.78223
303.48        68.37356
303.94        69.97849
304.39         71.7066
304.84        73.61848
305.30        75.68415
305.75        77.77827
306.20        79.81072
306.66        81.76603
307.11        83.61192
307.57        85.42349
308.02        87.18491
308.47        88.91156
308.93        90.60034
309.38        92.15188
309.83        93.53181
310.29        94.77135
310.74        95.87526
311.19        96.95037
311.65         98.1348
312.10        99.40838
312.55        100.7149
313.00          101.97
313.46        103.0535
313.91        103.9213
314.36        104.6436
314.82        105.2273
315.27        105.6786
315.72        106.0294
316.18        106.2965
316.63        106.5794
317.08        107.0755
317.53        107.8122
317.99        108.7251
318.44        109.6605
318.89        110.3325
319.35        110.6703
319.80        110.7712
320.25        110.7657
320.70        110.8803
321.16        111.1752
321.61         111.598
322.06        112.0966
322.51         112.598
322.97        113.0468
323.42        113.5068
323.87        113.9306
324.32        114.2564
324.78        114.4578
325.23        114.5818
325.68        114.6649
326.13        114.8109
326.59        115.0239
327.04        115.3355
327.49        115.6894
327.94        116.0252
328.39        116.3251
328.85        116.5753
329.30        116.8665
329.75        117.1768
330.20        117.5082
330.66        117.8148
331.11        118.1617
331.56        118.5333
332.01        118.9357
332.46        119.3689
332.92        119.7612
333.37        120.1564
333.82        120.4916
334.27        120.7721
334.72        121.0416
335.17        121.3739
335.63        121.7647
336.08        122.2668
336.53        122.7973
336.98        123.2611
337.43        123.6424
337.88        123.9713
338.34        124.3225
338.79          124.88
339.24        125.6483
339.69        126.5613
340.14        127.4951
340.59        128.2517
341.05        128.7784
341.50        129.1499
341.95        129.4299
342.40        129.7392
342.85        130.1287
343.30        130.5578
343.75        131.0465
344.20        131.6283
344.66        132.2887
345.11        133.0021
345.56          133.67
346.01        134.1268
346.46        134.3376
346.91         134.353
347.36        134.2691
347.81        134.2402
348.26        134.3162
348.72        134.4651
349.17        134.6453
349.62        134.8119
350.07        134.9397
350.52        135.0441
350.97        135.1296
351.42        135.1939
351.87        135.2383
352.32        135.2648
352.77        135.2445
353.22        135.1446
353.67        134.9553
354.13        134.6756
354.58        134.3508
355.03        134.1213
355.48        133.9956
355.93        133.9379
356.38        133.7741
356.83        133.2309
357.28        132.2806
357.73        131.0345
358.18        129.7436
358.63        128.7905
359.08        128.2648
359.53         128.056
359.98        127.9532
360.43         127.621
360.88        126.9607
361.33        126.0573
361.78        125.0704
362.23        124.2466
362.68        123.6459
363.13        123.2071
363.58        122.7641
364.03        121.9601
364.48        120.9213
364.93        119.6264
365.38        118.3285
365.83        117.3352
366.28        116.7101
366.73        116.3341
367.18        116.0353
367.63        115.5431
368.08        114.7816
368.53        113.8519
368.98        112.8267
369.43        111.8198
369.88        110.8877
370.33        109.9892
370.78         109.179
371.23        108.5509
371.68        108.1049
372.13        107.8173
372.58        107.5601
373.03        107.1158
373.48        106.4321
373.93        105.5671
374.38        104.6388
374.83        103.8397
375.28         103.223
375.72         102.716
376.17        102.2808
376.62        101.7837
377.07         101.191
377.52        100.5368
377.97        99.88293
378.42        99.32123
378.87         98.8684
379.32        98.49418
379.77        98.11162
380.22        97.58805
380.67        96.90194
381.11        96.10332
381.56        95.30089
382.01        94.68826
382.46        94.31714
382.91         94.1278
383.36        94.00756
383.81        93.77567
384.26        93.38375
384.71        92.89146
385.15        92.35105
385.60        91.90758
386.05        91.57452
386.50        91.30205
386.95        91.06157
387.40        90.82095
387.85        90.56261
388.29        90.24604
388.74        89.95597
389.19        89.59376
389.64        89.14951
390.09        88.63215
390.54        88.08623
390.98        87.56919
391.43        87.16383
391.88        86.85062
392.33        86.57878
392.78        86.31875
393.23        86.08047
393.67        85.75912
394.12        85.43568
394.57        85.64648
395.02        85.14967
395.47        85.21004
395.91        85.37281
396.36        85.30613
396.81        84.98801
397.26        84.63287
397.71        84.30285
398.15        83.96541
398.60        83.72981
399.05        83.46246
399.50        83.21588
399.95        83.18501
400.39         83.2942
400.84        83.23627
401.29        82.97092
401.74        82.45902
402.18        81.86388
402.63        81.67112
403.08        81.83702
403.53        81.75126
403.97        81.38298
404.42        81.14252
404.87        81.03697
405.32        80.92242
405.76        80.78867
406.21        80.63392
406.66        80.46806
407.11        80.43324
407.55        80.49306
408.00        80.33418
408.45        79.99966
408.90        79.69197
409.34        79.47526
409.79        79.44505
410.24        79.53011
410.68        79.51075
411.13        79.36099
411.58        79.21983
412.03        79.12377
412.47        79.08755
412.92        79.09698
413.37        79.16015
413.81        79.23578
414.26         79.3279
414.71        79.40625
415.15        79.49069
415.60        79.54142
416.05        79.56164
416.49        79.55476
416.94        79.50456
417.39        79.42726
417.83        79.34792
418.28        79.26386
418.73        79.15451
419.17        79.02654
419.62        78.89198
420.07        78.77329
420.51        78.68783
420.96         78.6114
421.41        78.51115
421.85        78.36472
422.30         78.0405
422.74        77.68061
423.19        78.03182
423.64        78.91209
424.08        79.28076
424.53        78.97551
424.98        78.83282
425.42        78.95593
425.87        78.59143
426.31        77.96807
426.76        78.02048
427.21         78.6544
427.65        78.90389
428.10        78.74073
428.54         78.8143
428.99        79.13754
429.44        79.51636
429.88        79.76611
430.33        79.35336
430.77        78.49883
431.22        78.35673
431.66        78.86787
432.11        79.10086
432.56        79.07987
433.00        79.30737
433.45        79.46935
433.89        79.57828
434.34        79.85931
434.78        78.14793
435.23        78.51977
435.67        79.44516
436.12        79.94308
436.57        80.05821
437.01        79.45935
437.46        79.11253
437.90        79.53461
438.35        80.46712
438.79        80.19339
439.24        80.31219
439.68        80.32543
440.13        80.28031
440.57        80.20616
441.02        80.32468
441.46        80.53529
441.91        80.37214
442.35         79.9043
442.80        79.97688
443.24        80.47165
443.69        80.64654
444.13        80.47041
444.58        80.49757
445.02        80.70675
445.47        80.83029
445.91        80.84259
446.36        80.89074
446.80        80.96188
447.24        80.96247
447.69         80.9457
448.13        81.10928
448.58         81.3919
449.02        81.42247
449.47        81.23969
449.91        81.16173
450.36        81.22487
450.80        81.20917
451.25        81.13821
451.69        81.12398
452.13        81.15687
452.58        81.14018
453.02        81.06988
453.47        80.97874
453.91        80.85462
454.36        80.81538
454.80         80.8093
455.24        80.44498
455.69        79.85592
456.13        79.64386
456.58         79.9671
457.02        79.54641
457.46        80.40592
457.91        80.14915
458.35        79.56911
458.79        79.21595
459.24        79.16344
459.68        78.99614
460.13        78.75777
460.57        78.44511
461.01        78.43453
461.46        78.34892
461.90        78.41586
462.34        78.34244
462.79        78.60371
463.23        78.65081
463.68        78.60041
464.12        78.38412
464.56        78.11683
465.01        78.19411
465.45        78.41113
465.89         78.3826
466.34        78.14462
466.78        77.74203
467.22        77.29522
467.67        77.61315
468.11        77.64408
468.55        77.72488
468.99        77.53107
469.44        77.45204
469.88        77.48022
470.32        77.37206
470.77        77.15468
471.21        76.99649
471.65        76.91654
472.10        76.88618
472.54        76.85206
472.98        76.81484
473.42        76.77768
473.87        76.64041
474.31        76.42307
474.75        76.57664
475.20        76.94991
475.64        76.73951
476.08        76.05119
476.52        75.84086
476.97        76.15326
477.41        76.14253
477.85        76.30482
478.29        76.48244
478.74        76.11226
479.18        75.90584
479.62        76.31479
480.06        76.35377
480.50        76.24054
480.95        76.10909
481.39        75.89557
481.83        76.08538
482.27        76.02813
482.72        75.44448
483.16        75.77779
483.60        75.67035
484.04        75.55392
484.48        75.61635
484.93        76.12046
485.37        75.61096
485.81        76.29803
486.25        76.56025
486.69        77.31789
487.14        75.88669
487.58        75.55679
488.02        76.03812
488.46        76.14281
488.90        76.02676
489.34        75.76875
489.79        75.42832
490.23        75.87185
490.67        75.76216
491.11        75.36858
491.55        75.14818
491.99         75.1321
492.43        75.07463
492.88        74.96886
493.32        74.98241
493.76        75.07299
494.20        75.16522
494.64        75.25704
495.08        75.27274
495.52        75.24417
495.96        75.44222
496.41        75.75971
496.85        75.65247
497.29        75.19959
497.73        75.10052
498.17        75.27431
498.61        75.52318
499.05        75.66755
499.49        75.63438
499.93        75.45436
500.37        75.10885
500.82        74.70297
501.26        74.70989
501.70        75.41811
502.14        74.74995
502.58        75.38659
503.02        75.42851
503.46        75.33116
503.90         75.1647
504.34        74.92043
504.78        74.82063
505.22        74.83807
505.66        74.85315
506.10        74.88705
506.54        74.91348
506.98        74.88409
507.42        75.25011
507.86        75.40189
508.30        75.05752
508.74        75.31476
509.18         75.1625
509.62        75.00806
510.06        74.87549
510.50        74.79974
510.94        74.75085
511.38        74.72366
511.82        74.74005
512.26        74.78984
512.70        74.87013
513.14        74.95638
513.58        74.97763
514.02        74.91858
514.46        74.84969
514.90        74.80715
515.34        74.58702
515.78        74.63561
516.22        74.59534
516.66        74.59692
517.10        74.63204
517.54        74.69357
517.98        74.77209
518.42         74.8389
518.86        74.84932
519.30        74.79443
519.74        74.71764
520.18          74.634
520.62        74.51027
521.06        74.38953
521.50          74.396
521.93        74.52224
522.37         74.6246
522.81        74.68868
523.25        74.78075
523.69        74.88072
524.13        74.92242
524.57        74.89784
525.01        74.82826
525.45         74.7194
525.89        74.58299
526.32        74.42839
526.76         74.2728
527.20        74.14832
527.64        74.11272
528.08         74.1718
528.52        74.30332
528.96        74.45873
529.40        74.55975
529.83        74.57633
530.27        74.54203
530.71         74.4693
531.15        74.39253
531.59        74.32625
532.03        74.25974
532.46        74.19368
532.90        74.15466
533.34         74.1385
533.78        74.14333
534.22        74.15414
534.66        74.14364
535.09        74.09782
535.53        74.04904
535.97        73.99501
536.41        73.94963
536.85        73.92132
537.28        73.91013
537.72        73.92508
538.16        73.97091
538.60        74.04448
539.04        74.14857
539.47        74.24506
539.91        74.32048
540.35        74.34631
540.79        74.34261
541.22        74.29436
541.66        74.18768
542.10        74.03161
542.54        73.84667
542.97        73.66905
543.41        73.59335
543.85        73.61932
544.29        73.72432
544.72        73.86275
545.16        73.97794
545.60        74.02716
546.04         74.0781
546.47        74.12239
546.91        74.01105
547.35         73.8134
547.79        73.87332
548.22        74.09287
548.66        74.05596
549.10        73.76498
549.53        73.58227
549.97          73.562
550.41        73.55976
550.84         73.5863
551.28        73.73114
551.72        73.92676
552.15        74.01441
552.59         73.9839
553.03        73.85762
553.46        73.69523
553.90        73.64641
554.34         73.7178
554.77        73.88459
555.21        74.05302
555.65           74.08
556.08        73.86784
556.52        73.65534
556.96        73.48692
557.39        73.49105
557.83         73.6249
558.27         73.6964
558.70        73.45069
559.14        73.46378
559.57        73.64557
560.01        73.81422
560.45         73.8904
560.88         73.9277
561.32        73.95654
561.75        73.72577
562.19        73.38787
562.63        73.48314
563.06        73.89243
563.50        73.84969
563.93        73.39043
564.37        73.24843
564.80        73.41489
565.24        73.52579
565.68        73.54996
566.11        73.59821
566.55        73.68797
566.98        73.78571
567.42        73.86568
567.85        73.86462
568.29        73.88905
568.72        73.81469
569.16        73.64008
569.60        74.23179
570.03        74.15905
570.47        73.97142
570.90        74.17509
571.34        74.43329
571.77         74.4919
572.21         74.2095
572.64        74.40843
573.08        74.17756
573.51        74.00459
573.95        74.24458
574.38        74.24251
574.82        74.42388
575.25        74.34395
575.69        74.05022
576.12        74.18853
576.56        74.20234
576.99        73.96548
577.42        74.42285
577.86        74.45393
578.29        74.42731
578.73        74.29715
579.16        74.17686
579.60        74.24096
580.03        74.23215
580.47        74.18568
580.90        74.25936
581.33        74.30241
581.77        74.95537
582.20         75.0045
582.64        74.78562
583.07        74.60376
583.51        74.21653
583.94         74.0988
584.37        74.07854
584.81        74.22283
585.24        74.28866
585.68        74.29863
586.11        74.34246
586.54        74.41436
586.98        74.18517
587.41        74.33435
587.85        74.18319
588.28        74.38773
588.71        74.20686
589.15        74.47698
589.58        74.04026
590.01        73.92924
590.45        74.37028
590.88        73.63103
591.31        73.65316
591.75        73.80195
592.18        73.68276
592.61        73.56183
593.05        73.68378
593.48        74.85411
593.91        74.22308
594.35        74.11176
594.78        74.22794
595.21        73.88686
595.65        73.90664
596.08        73.87133
596.51        73.83999
596.94        73.55965
597.38         73.5656
597.81        73.91673
598.24        73.64154
598.68        74.00203
599.11        74.05464
599.54        74.29553
599.97        74.04487
600.41        74.41885
600.84        74.39285
601.27        74.27529
601.70        73.96573
602.14         73.4985
602.57        73.80214
603.00        73.98798
603.43        74.12226
603.87        74.27302
604.30        73.85342
604.73        73.60343
605.16        73.82155
605.60        73.62761
606.03        73.84607
606.46        74.07772
606.89        74.16809
607.32        74.13357
607.76        74.16531
608.19        74.15092
608.62        74.06223
609.05         73.9516
609.48        73.85558
609.92        73.73459
610.35        73.99131
610.78        74.18539
611.21         73.5088
611.64        74.20072
612.07        74.01196
612.50        73.70792
612.94        73.55634
613.37        73.63436
613.80        73.68913
614.23          73.713
614.66        73.77388
615.09        73.82237
615.52        73.84558
615.96        73.88584
616.39        73.41657
616.82         73.7909
617.25        73.55742
617.68        73.54794
618.11        73.68058
618.54        73.64014
618.97        73.86866
619.40        74.04926
619.84        74.43871
620.27        74.19322
620.70        73.88242
621.13        73.31998
621.56        73.68642
621.99        73.47956
622.42        73.33794
622.85        73.53506
623.28         73.5034
623.71        73.58865
624.14        73.25369
624.57         73.3812
625.00        73.55431
625.43        73.29237
625.86         73.3724
626.29        73.54144
626.72        73.60224
627.15        73.45984
627.58        73.38913
628.01        73.46221
628.44        73.08687
628.87        73.18992
629.30        73.45943
629.73        72.96609
630.16        73.06484
630.59        72.90093
631.02        73.02238
631.45         73.2016
631.88        73.31057
632.31        73.34274
632.74        73.21236
633.17        73.29189
633.60        73.29939
634.03        73.34103
634.46         73.4054
634.89        73.46906
635.32        73.47527
635.75        73.41046
636.18        73.33613
636.61        73.26488
637.04        73.13091
637.47        72.98631
637.89        73.02709
638.32        73.20158
638.75        73.29537
639.18          73.286
639.61        73.29531
640.04        73.31753
640.47        73.30627
640.90        73.26737
641.33        73.18272
641.76        73.06596
642.18        73.12506
642.61        73.07616
643.04        73.13047
643.47        73.18867
643.90        73.22923
644.33         73.2393
644.76        73.23434
645.18         73.2056
645.61        73.12165
646.04        72.98746
646.47        72.80917
646.90        72.64368
647.33        72.57717
647.75        72.63019
648.18        72.80163
648.61        73.00714
649.04        73.07845
649.47        72.99564
649.89        72.84528
650.32        72.71502
650.75        72.69753
651.18        72.80289
651.61        73.01646
652.03         73.1766
652.46        73.07867
652.89        72.92529
653.32        72.64126
653.74        72.54494
654.17        73.81348
654.60        73.12221
655.03        72.87211
655.46        73.05601
655.88         74.1452
656.31        75.72317
656.74        77.95606
657.16        75.64683
657.59         74.0406
658.02        73.06516
658.45        73.64754
658.87        73.99236
659.30        73.73203
659.73        73.50953
660.15        73.68409
660.58        73.38535
661.01        73.60331
661.44        73.85346
661.86        73.70422
662.29        73.21317
662.72        73.05704
663.14        73.27296
663.57        73.36326
664.00        73.30012
664.42        73.28756
664.85        73.32024
665.27         73.2945
665.70        73.21671
666.13        73.14944
666.55        73.10532
666.98        73.05932
667.41         73.0261
667.83        73.02895
668.26        73.06338
668.69        73.14112
669.11        73.23962
669.54        73.32365
669.96        73.38873
670.39        73.38295
670.82        73.35493
671.24        73.47162
671.67        73.68748
672.09        73.77254
672.52        73.71858
672.94        73.58418
673.37        73.42471
673.80        73.32815
674.22        73.32124
674.65         73.2843
675.07        73.24213
675.50        73.27073
675.92        73.36506
676.35        73.44537
676.77        73.50437
677.20        73.56284
677.62        73.61826
678.05        73.64858
678.47        73.65072
678.90        73.63097
679.32        73.60963
679.75        73.63679
680.17        73.72034
680.60         73.8604
681.02        73.98772
681.45        74.00276
681.87        73.90804
682.30        73.62092
682.72           73.29
683.15        73.39719
683.57        73.87659
684.00        74.03441
684.42        73.86274
684.85        73.90144
685.27        74.13422
685.70        74.22916
686.12        74.17408
686.54         74.1458
686.97        74.12968
687.39        74.08276
687.82          74.019
688.24        73.82436
688.66        73.86694
689.09        73.84038
689.51        73.85645
689.94        73.89239
690.36        73.95515
690.78        73.97745
691.21        73.96502
691.63        74.07262
692.06        74.22961
692.48        74.10168
692.90        73.76242
693.33        73.58915
693.75        73.61881
694.17         73.6848
694.60        73.73738
695.02        73.70687
695.44        73.78989
695.87        73.72507
696.29        73.64313
696.71        73.83474
697.14        74.20463
697.56        74.29036
697.98        74.09732
698.41        74.08358
698.83          74.238
699.25        74.32084
699.68        74.31014
700.10         74.3545
700.52        74.44315
700.94        74.53703
701.37        74.59208
701.79        74.57822
702.21         74.4703
702.64        74.30762
703.06        74.12584
703.48        73.99786
703.90        73.95155
704.33        73.96391
704.75        74.02396
705.17        74.08799
705.59        74.14122
706.01        74.16608
706.44        74.18005
706.86        74.34782
707.28        74.46163
707.70        74.65755
708.12         74.8321
708.55        74.91669
708.97        74.88866
709.39        74.76967
709.81        74.61737
710.23        74.54148
710.66        74.57014
711.08        74.69002
711.50         74.8215
711.92        74.86311
712.34        74.79488
712.76        74.65197
713.19        74.49158
713.61        74.46038
714.03        74.56602
714.45        74.75898
714.87        74.98012
715.29        75.14099
715.71        75.21394
716.13        75.22974
716.56        75.18016
716.98        75.13354
717.40        75.08634
717.82        75.03098
718.24        74.99809
718.66        75.04028
719.08        75.15965
719.50        75.33354
719.92        75.51749
720.34        75.63529
720.76        75.66342
721.19        75.61631
721.61        75.51662
722.03        75.37139
722.45        75.19871
722.87        74.99954
723.29        74.82597
723.71        74.75938
724.13        74.81833
724.55        74.98994
724.97        75.20542
725.39        75.34595
725.81         75.3773
726.23        75.32062
726.65         75.2457
727.07        75.26896
727.49        75.41441
727.91        75.64613
728.33        75.87356
728.75        75.94843
729.17        75.83993
729.59        75.59986
730.01        75.33918
730.43        75.23566
730.85        75.32682
731.27        75.54623
731.69        75.80695
732.10        75.97446
732.52        75.99638
732.94        75.97665
733.36        75.94865
733.78        75.84792
734.20        75.67765
734.62        75.96321
735.04        75.53694
735.46        75.88589
735.88        76.46496
736.30         76.3952
736.72        75.77018
737.13        75.52786
737.55        75.73419
737.97        76.03779
738.39        76.30161
738.81        76.25273
739.23        75.94212
739.65        75.93586
740.06         76.1916
740.48        76.26359
740.90        76.11176
741.32        76.09218
741.74        76.10687
742.16        76.14685
742.57        76.18303
742.99        76.23181
743.41        76.28641
743.83        76.31541
744.25        76.31159
744.67        76.26883
745.08         76.2264
745.50        76.20952
745.92        76.24408
746.34        76.32317
746.75        76.39788
747.17        76.40352
747.59        76.33326
748.01        76.14861
748.42        75.94414
748.84        75.99764
749.26         76.2677
749.68        76.41379
750.09        76.38628
750.51        76.35844
750.93        76.34068
751.35        76.30415
751.76        76.26959
752.18        76.22891
752.60        76.18858
753.01        76.21918
753.43        76.32033
753.85        76.38905
754.27         76.3933
754.68        76.79937
755.10        76.78097
755.52         76.9173
755.93        76.97079
756.35        76.98226
756.77        76.97878
757.18        77.06306
757.60         77.2625
758.02        77.39872
758.43        77.47491
758.85        77.73244
759.26        77.99888
759.68        77.82399
760.10        77.40181
760.51        76.22598
760.93        76.85771
761.34        76.51562
761.76        77.32627
762.18        77.42314
762.59        77.27916
763.01         77.2084
763.42        77.32701
763.84        77.35289
764.26        77.31664
764.67        77.50688
765.09        77.82976
765.50        77.71661
765.92        77.27699
766.33        77.08361
766.75        77.12965
767.16        77.11128
767.58          76.975
768.00        77.04209
768.41        77.29563
768.83        77.35762
769.24         77.2674
769.66        77.40282
770.07        77.68424
770.49        77.80313
770.90        77.74174
771.32        77.63235
771.73        77.54759
772.15        77.48697
772.56         77.4771
772.97        77.58849
773.39        77.73473
773.80        77.66756
774.22         77.4237
774.63        77.48735
775.05        77.79814
775.46        77.95503
775.88        77.89584
776.29        77.89716
776.70        77.97876
777.12        78.06112
777.53        78.17253
777.95        78.32303
778.36        78.47852
778.77        78.55931
779.19        78.54208
779.60        78.44326
780.02        78.33974
780.43        78.32719
780.84        78.38951
781.26        78.67005
781.67        79.09449
782.09        78.90221
782.50         78.1358
782.91        78.66202
783.33        78.42252
783.74        78.56714
784.15         78.4586
784.57        78.40453
784.98        78.44096
785.39         78.6742
785.81        79.02054
786.22        79.05947
786.63        78.82697
787.04        78.77866
787.46        78.95122
787.87        79.07101
788.28        79.10613
788.70        79.15683
789.11        79.20373
789.52        79.12159
789.93        78.99286
790.35        79.19147
790.76        79.64489
791.17        79.71347
791.58        79.41056
792.00        79.31909
792.41        79.49201
792.82        79.48621
793.23        79.35324
793.65        79.56125
794.06        80.05646
794.47        80.28738
794.88        80.19219
795.29        80.28628
795.71        80.21527
796.12        80.00241
796.53        79.61525
796.94        79.56319
797.35        79.79527
797.76        79.69832
798.18        79.34017
798.59        79.27964
799.00        79.54262
799.41        79.80952
799.82        79.99223
800.23        80.10629
800.64        80.12034
801.06        80.00072
801.47        79.84904
801.88        79.75221
802.29        79.74728
802.70        79.82161
803.11        79.93275
803.52          80.002
803.93        80.00674
804.34        79.96426
804.75        79.93766
805.17         80.0088
805.58        80.22131
805.99        80.53521
806.40        80.83436
806.81        80.89172
807.22        80.68121
807.63        80.33706
808.04        79.99396
808.45        79.82661
808.86        79.89616
809.27         80.1707
809.68        80.51044
810.09        80.64816
810.50        80.51658
810.91        80.20632
811.32        79.84271
811.73        79.64595
812.14        79.68587
812.55        79.84386
812.96        80.06464
813.37        80.37374
813.78        80.66799
814.19        80.70715
814.60        80.54568
815.01        80.50196
815.42        80.60874
815.83         80.6849
816.24        80.72598
816.65        80.81406
817.05        80.95061
817.46         81.0791
817.87         81.1966
818.28        81.24025
818.69        81.19943
819.10        81.09019
819.51         80.9635
819.92        80.90956
820.33        80.95718
820.74        81.08427
821.14         81.2252
821.55        81.31295
821.96        81.30751
822.37        81.22646
822.78        81.12639
823.19        81.10635
823.60        81.19449
824.00        81.38899
824.41        81.55662
824.82        81.58007
825.23         81.4338
825.64        81.16287
826.04        80.91565
826.45        80.89019
826.86        81.14267
827.27        81.60183
827.68        82.11167
828.08        82.44504
828.49        82.45905
828.90        82.26369
829.31        81.97352
829.72        81.78778
830.12        81.79459
830.53        81.87695
830.94        81.99917
831.35        82.06455
831.75        82.06407
832.16        81.99265
832.57        81.88071
832.97        81.73157
833.38        81.55699
833.79        81.36786
834.20        81.21794
834.60        81.18478
835.01        81.29092
835.42        81.50339
835.82        81.78371
836.23        81.97062
836.64        82.04519
837.04        82.05826
837.45        81.99531
837.86        81.94456
838.26        81.94602
838.67        81.96408
839.08        82.00317
839.48        82.05296
839.89        82.10706
840.29        82.16997
840.70        82.26178
841.11        82.41232
841.51        82.63914
841.92        82.89054
842.33        83.11475
842.73        83.22588
843.14        83.14986
843.54        82.93632
843.95        82.67513
844.35        82.53821
844.76        82.55751
845.17        82.70634
845.57        82.87972
845.98        82.85266
846.38        82.61095
846.79        82.19538
847.19         81.7869
847.60        81.62284
848.00         81.7784
848.41        82.12109
848.81        82.52118
849.22         82.6843
849.62        82.57256
850.03        82.26612
850.43        81.86627
850.84        81.43796
851.24        81.09051
851.65        80.73305
852.05        80.55247
852.46        80.74255
852.86        81.29742
853.27         82.1299
853.67        82.89191
854.07        83.32873
854.48        83.34803
854.88        83.06503
855.29        82.52745
855.69        82.09066
856.10        81.78504
856.50        81.63113
856.90        81.53857
857.31        81.39054
857.71        81.20638
858.12        80.98441
858.52         80.8315
858.92        80.76925
859.33        80.78188
859.73        80.88508
860.13        80.97831
860.54        80.92707
860.94         80.7405
861.34         80.4222
861.75        80.04517
862.15        79.78492
862.55        79.66071
862.96        79.65543
863.36         79.6921
863.76         79.6201
864.17        79.40533
864.57        79.11007
864.97         78.8672
865.38        78.86787
865.78        79.18844
866.18         79.7247
866.58        80.27692
866.99        80.50879
867.39        80.35637
867.79        79.89771
868.19        79.30634
868.60        78.79409
869.00        78.42829
869.40        78.19452
869.80        78.08662
870.21        78.09634
870.61        78.28857
871.01        78.60241
871.41        79.00336
871.81        79.44688
872.22        79.87616
872.62        80.29711
873.02        80.66588
873.42        80.90056
873.82        80.96813
874.22          80.907
874.63         80.7526
875.03        80.51514
875.43        80.24026
875.83        79.93409
876.23        79.69865
876.63        79.69617
877.03         79.9476
877.44        80.38929
877.84        80.86942
878.24        81.08867
878.64        80.96799
879.04        80.59796
879.44        80.12829
879.84        79.77126
880.24        79.58661
880.64        79.52842
881.04        79.53902
881.44        79.52008
881.84         79.4446
882.24        79.34169
882.65        79.26557
883.05        79.40294
883.45        79.72477
883.85         80.1638
884.25        80.56426
884.65        80.71194
885.05        80.56444
885.45        80.17474
885.85        79.69601
886.25        79.39935
886.65         79.3679
887.05        79.54177
887.45        79.75745
887.85        79.75325
888.25        79.47944
888.65        79.02602
889.04        78.57437
889.44        78.45965
889.84        78.73021
890.24        79.25218
890.64        79.82326
891.04         80.1332
891.44        80.09959
891.84        79.84011
892.24        79.45244
892.64        79.08453
893.04        78.81644
893.44        78.61994
893.83        78.57379
894.23        78.73901
894.63        79.12724
895.03        79.68686
895.43        80.30721
895.83        80.79442
896.23        81.07419
896.63        81.18973
897.02        81.12933
897.42        80.93522
897.82        80.63873
898.22        80.26394
898.62        79.92519
899.01        79.83055
899.41        79.99957
899.81        80.37172
900.21        80.85723
900.61        81.29302
901.00        81.58923
901.40        81.79357
901.80        81.82877
902.20        81.59602
902.59        81.12474
902.99        80.44679
903.39        79.76723
903.79        79.41312
904.18        79.46352
904.58        79.84366
904.98        80.37718
905.38        80.80482
905.77        81.03262
906.17         81.1076
906.57        81.09905
906.96        81.15263
907.36         81.2739
907.76        81.44791
908.15        81.54206
908.55        81.27164
908.95        80.64985
909.34        79.76651
909.74        78.98424
910.14         78.7924
910.53         79.2848
910.93        80.28441
911.33        81.41412
911.72        82.02056
912.12          81.916
912.52        81.33625
912.91        80.57088
913.31        80.07684
913.70        79.96027
914.10        80.06224
914.49        80.32368
914.89         80.5674
915.29        80.73848
915.68        80.90096
916.08        81.02124
916.47        81.02843
916.87        80.93401
917.26        80.71288
917.66        80.46352
918.05        80.31898
918.45        80.30317
918.84        80.42126
919.24        80.55051
919.64        80.56705
920.03        80.46555
920.42        80.28967
920.82         80.1552
921.21        80.22966
921.61        80.52647
922.00        80.98898
922.40         81.5156
922.79        82.01975
923.19        82.39225
923.58        82.68582
923.98        82.80247
924.37        82.65742
924.77        82.24896
925.16        81.59259
925.55         80.8864
925.95        80.47683
926.34        80.46253
926.74        80.75172
927.13        81.16188
927.52        81.27447
927.92        81.03024
928.31        80.56186
928.70        80.08828
929.10        79.93198
929.49        80.16939
929.89        80.63297
930.28        81.26208
930.67        81.81966
931.07         82.1804
931.46         82.4333
931.85        82.49689
932.24        82.28806
932.64         81.8372
933.03        81.18431
933.42        80.53278
933.82        80.21303
934.21        80.30996
934.60         80.7442
934.99        81.34176
935.39        81.76594
935.78        81.93903
936.17        81.92043
936.56        81.78596
936.96        81.67149
937.35        81.67178
937.74        81.69663
938.13        81.70282
938.53        81.63637
938.92        81.49226
939.31        81.30871
939.70         81.1322
940.09        81.02777
940.49         80.9993
940.88         81.0611
941.27        81.18223
941.66        81.32481
942.05         81.4754
942.44         81.6485
942.84        81.84538
943.23        82.01928
943.62        82.17835
944.01        82.30602
944.40        82.41725
944.79        82.54553
945.18        82.68356
945.57        82.80983
945.97        82.83694
946.36        82.70412
946.75        82.37505
947.14        81.87829
947.53         81.3165
947.92         80.8693
948.31          80.612
948.70        80.53983
949.09         80.5571
949.48        80.49321
949.87        80.32476
950.26        80.11005
950.65        80.00233
951.04        80.24777
951.43        80.87259
951.82        81.75475
952.21        82.67319
952.60        83.25513
952.99        83.36801
953.38        83.11594
953.77        82.61938
954.16        82.06823
954.55        81.55686
954.94        81.06026
955.33        80.62421
955.72        80.32776
956.11        80.18012
956.50        80.16076
956.89        80.24846
957.28         80.3688
957.66         80.5056
958.05        80.66639
958.44        80.73035
958.83        80.50742
959.22        79.99291
959.61        79.22179
960.00        78.52256
960.39        78.42089
960.78        79.00301
961.16        80.15795
961.55        81.36183
961.94        81.80834
962.33        81.29372
962.72        80.10822
963.11        78.76794
963.49        78.03842
963.88        78.11195
964.27        78.75649
964.66        79.68962
965.04        80.42277
965.43        80.67284
965.82        80.64282
966.21        80.47197
966.60        80.37209
966.98        80.42383
967.37         80.4885
967.76         80.5373
968.15        80.51199
968.53        80.42742
968.92        80.36298
969.31        80.33375
969.69        80.31963
970.08        80.32033
970.47        80.31417
970.86        80.47846
971.24        81.13107
971.63        82.17719
972.02        83.44883
972.40        84.56458
972.79        84.89218
973.17          84.424
973.56        83.28333
973.95         81.8409
974.33        80.74117
974.72        80.21972
975.11        80.13583
975.49        80.30131
975.88        80.38677
976.26        80.30473
976.65         80.1765
977.04        80.07525
977.42        80.08424
977.81        80.17425
978.19         80.2408
978.58        80.43579
978.96        81.01184
979.35        81.92947
979.74        83.14495
980.12        84.28223
980.51        84.51066
980.89        83.79919
981.28        82.25871
981.66        80.54247
982.05        79.85519
982.43        80.52589
982.82        82.15113
983.20        84.05067
983.59        84.98671
983.97        84.75577
984.35        83.67956
984.74        82.22165
985.12        81.22844
985.51         80.9819
985.89        81.19684
986.28         81.6729
986.66        82.20068
987.04         82.6498
987.43        83.09943
987.81         83.4435
988.20        83.36035
988.58        82.86129
988.96        82.00027
989.35        80.97833
989.73        80.22759
990.12        79.81914
990.50        79.67893
990.88        79.76447
991.27        79.94081
991.65        80.12045
992.03        80.34937
992.42          80.451
992.80        80.40851
993.18        80.12609
993.56        79.59006
993.95         78.9621
994.33        78.58971
994.71        78.70761
995.10        79.14262
995.48        79.70964
995.86         80.1537
996.24        80.44398
996.63         80.5777
997.01        80.72842
997.39        81.04622
997.77        81.53012
998.15        82.11005
998.54        82.46567
998.92        82.17463
999.30        81.21435
999.68        79.74477
1000.06        78.27989
1000.45         77.7389
1000.83        78.43552
1001.21        79.95129
1001.59        81.75747
1001.97        83.08376
1002.35        83.74148
1002.73        84.04856
1003.12        83.88958
1003.50        83.03447
1003.88        81.66005
1004.26        79.81403
1004.64        78.39059
1005.02        78.54047
1005.40        80.30455
1005.78        83.44072
1006.16        86.68132
1006.54        87.67227
1006.92        85.79086
1007.30        81.69393
1007.69        77.10006
1008.07         74.8626
1008.45        75.81453
1008.83        79.04839
1009.21        82.94962
1009.59        85.20109
1009.97        85.17483
1010.35        83.37147
1010.73        80.68143
1011.11        79.33261
1011.49        80.33707
1011.86        82.95616
1012.24        85.73503
1012.62        87.00745
1013.00        86.50116
1013.38        84.95794
1013.76        83.13007
1014.14        82.19415
1014.52        82.56017
1014.90        83.74408
1015.28        85.65997
1015.66        88.06477
1016.04        90.56239
1016.41        93.26468
1016.79        95.10138
1017.17        94.91982
1017.55        92.67258
1017.93        88.69293
1018.31        84.42345
1018.69        82.17646
1019.06        82.59827
1019.44        85.29933
1019.82        88.89182
1020.20        90.30348
1020.58        88.58543
1020.95        84.82745
1021.33        80.90787
1021.71        79.14668
1022.09        79.81075
1022.46        81.90665
1022.84         84.4493
1023.22        85.57701
1023.60        84.58283
1023.97        81.99721
1024.35        78.11575
1024.73        73.56154
