SpectraSmart Spectrum 2.9.0.0
--------- Device Information -----------
Spectrum Name :  反射率_0
Saving Time :  2024/04/27 23:47:50
Spectro-Module Model Name : SE2030-DUVN
Spectro-Module Serial Number : OS361AC55029948
Wavelength Start : 200
Wavelength End : 1025
Wavelength Unit : Wavelength(nm)
Spectrum Unit : Reflectance(%)
-----------Spectrum Setting ------------
Integration Time : 20ms
Average : 10
Boxcar : 0
Background removal :  enabled
linearity correction :  enabled
SC :  disabled
Intensity correction :  disabled
DWT denoise :  enabled
savitzky-golay :  disabled
FFT :  disabled
Running average :  disabled
Kalman :  disabled
High pass :  disabled
---------------BEGIN--------------------
Wavelength(nm)             Reflectance(%)
200.29               0
200.75        71.21017
201.21          78.313
201.67        79.67175
202.13        76.14284
202.58        69.40823
203.04        61.10526
203.50        53.88953
203.96        51.95966
204.42        55.11031
204.88         60.6142
205.34        66.03503
205.80        69.64498
206.26        71.34631
206.72        71.42214
207.18        69.37729
207.64        65.44096
208.10        62.14515
208.55        61.29827
209.01        59.87552
209.47        55.68097
209.93        46.33849
210.39        22.70378
210.85       -45.31769
211.31        -112.382
211.77       -2.261565
212.23         61.2787
212.69        81.78005
213.14        86.69016
213.60        83.55794
214.06        72.83945
214.52        52.43138
214.98        35.94546
215.44        39.98529
215.90        52.64735
216.36        63.13446
216.81        67.54038
217.27         67.3241
217.73        64.89775
218.19        61.15682
218.65        57.17446
219.11        53.44307
219.57        49.19255
220.02        44.37072
220.48        41.05257
220.94        39.71458
221.40        40.06824
221.86        41.48835
222.32         42.9834
222.77        44.34667
223.23        45.73024
223.69        46.51855
224.15        45.90232
224.61        43.99099
225.06        40.70611
225.52        37.96045
225.98        38.74755
226.44        42.60052
226.90        47.29204
227.36        50.69897
227.81        51.20579
228.27        49.06516
228.73        44.91982
229.19         39.6179
229.65        35.19357
230.10        32.64949
230.56        31.78897
231.02        31.94606
231.48        32.20361
231.93        32.22859
232.39        32.39997
232.85        32.91607
233.31        34.01833
233.77        35.65709
234.22         37.6784
234.68        39.53875
235.14        40.76623
235.60        41.32386
236.05        41.23804
236.51        41.25102
236.97         42.6676
237.43        45.78891
237.88        50.27924
238.34        54.53399
238.80        57.30194
239.26        58.46373
239.71        57.99004
240.17        56.48837
240.63         57.5548
241.08        62.88967
241.54         69.0363
242.00        73.22184
242.46        74.93234
242.91        74.85873
243.37        72.46843
243.83         67.0933
244.28        63.00108
244.74        69.26893
245.20         81.5969
245.66        88.80833
246.11        88.02523
246.57        80.28233
247.03        63.91849
247.48        38.02411
247.94        18.15378
248.40        22.65778
248.85         43.0209
249.31         66.4027
249.77        82.11973
250.22        89.60212
250.68        92.90695
251.14         93.8369
251.59        93.82721
252.05        93.44827
252.51        91.65862
252.96         88.1747
253.42        85.17368
253.88        84.04732
254.33        84.54818
254.79        85.10476
255.25        83.50346
255.70         80.0165
256.16        76.23608
256.62        73.40333
257.07        72.93287
257.53        74.52649
257.99        76.50001
258.44        77.46568
258.90        76.75266
259.35        74.31434
259.81        71.37934
260.27        68.38763
260.72        65.92686
261.18        64.43414
261.63        63.26694
262.09        62.49584
262.55         61.7724
263.00        60.92509
263.46        60.20386
263.91        59.40253
264.37        58.62614
264.83        57.81171
265.28          56.907
265.74        56.06738
266.19        55.26062
266.65        54.54924
267.11        53.86263
267.56        53.09418
268.02        52.19427
268.47        51.11369
268.93        49.91057
269.38        48.68113
269.84        47.60551
270.30        46.71662
270.75        45.96881
271.21        45.24151
271.66        44.29469
272.12        43.11176
272.57        41.72964
273.03        40.36531
273.48        39.26114
273.94        38.52313
274.39        38.02982
274.85        37.62815
275.31        37.00986
275.76        36.11608
276.22         35.0928
276.67        34.09895
277.13        33.46288
277.58        33.16533
278.04        33.12373
278.49        33.08355
278.95        32.80239
279.40        32.18415
279.86         31.3996
280.31        30.56648
280.77        29.97903
281.22        29.64738
281.68        29.51473
282.13        29.44534
282.59         29.3102
283.04        29.05617
283.50        28.75622
283.95        28.45018
284.41        28.23507
284.86        28.11747
285.32        28.08503
285.77         28.0836
286.22         28.0809
286.68         28.0814
287.13        28.06149
287.59        28.07367
288.04        28.11746
288.50        28.21852
288.95        28.33286
289.41        28.44849
289.86         28.4974
290.32        28.50104
290.77         28.4888
291.22        28.50854
291.68        28.62081
292.13        28.84423
292.59         29.1879
293.04        29.67609
293.50        30.36736
293.95        31.25176
294.40        32.32569
294.86        33.51856
295.31        34.70792
295.77        35.87706
296.22        37.03727
296.68         38.2688
297.13        39.67339
297.58        41.25864
298.04        42.96737
298.49        44.70461
298.95        46.37909
299.40        47.97492
299.85        49.55217
300.31        51.18312
300.76        52.91492
301.21        54.75985
301.67        56.69358
302.12        58.65154
302.58         60.6321
303.03        62.58949
303.48        64.55068
303.94        66.53921
304.39        68.50362
304.84        70.46297
305.30          72.423
305.75        74.34909
306.20        76.28735
306.66         78.2531
307.11        80.18197
307.57        82.05905
308.02        83.73472
308.47        85.21241
308.93        86.54948
309.38        87.77873
309.83          89.052
310.29        90.43074
310.74        91.85509
311.19        93.30244
311.65         94.7026
312.10        95.98521
312.55        97.16422
313.00        98.25079
313.46        99.27576
313.91        100.2332
314.36         101.129
314.82        101.9259
315.27        102.5645
315.72         103.044
316.18        103.4044
316.63        103.7235
317.08        104.1586
317.53        104.7446
317.99        105.4374
318.44        106.1441
318.89        106.6809
319.35        107.0057
319.80        107.1871
320.25        107.3219
320.70        107.5765
321.16        107.9803
321.61        108.4866
322.06        109.0256
322.51        109.4988
322.97        109.8485
323.42         110.143
323.87         110.359
324.32        110.4794
324.78        110.5025
325.23        110.4786
325.68        110.4568
326.13        110.5496
326.59        110.7653
327.04        111.1364
327.49        111.5955
327.94        112.0595
328.39        112.4957
328.85        112.8795
329.30        113.2951
329.75        113.7222
330.20        114.1564
330.66        114.5505
331.11        114.9398
331.56        115.2675
332.01        115.5412
332.46        115.7789
332.92        115.9823
333.37        116.3135
333.82        116.7425
334.27        117.2412
334.72        117.7697
335.17        118.2611
335.63        118.6633
336.08        119.0546
336.53        119.4023
336.98         119.702
337.43        119.9662
337.88        120.1989
338.34        120.4356
338.79         120.795
339.24        121.2777
339.69          121.86
340.14        122.4793
340.59        123.0269
341.05        123.4756
341.50        123.8686
341.95         124.231
342.40        124.6245
342.85        125.0666
343.30        125.5163
343.75          125.99
344.20        126.5151
344.66        127.0868
345.11        127.7019
345.56        128.2507
346.01        128.5542
346.46        128.5928
346.91        128.4197
347.36        128.2357
347.81        128.3512
348.26        128.8193
348.72        129.5463
349.17        130.2908
349.62        130.6887
350.07        130.6472
350.52        130.2747
350.97        129.7798
351.42        129.4974
351.87        129.5129
352.32        129.7189
352.77        129.9354
353.22        129.8915
353.67        129.5183
354.13        128.9123
354.58        128.2013
355.03        127.6486
355.48        127.3129
355.93        127.1142
356.38        126.8821
356.83        126.3536
357.28        125.4885
357.73        124.3993
358.18        123.2784
358.63        122.4123
359.08        121.8674
359.53        121.5449
359.98        121.3003
360.43        120.9101
360.88        120.3006
361.33        119.5304
361.78        118.6741
362.23        117.8447
362.68        117.0796
363.13        116.3572
363.58        115.6269
364.03        114.7456
364.48        113.8193
364.93        112.8062
365.38         111.814
365.83        110.9469
366.28        110.2257
366.73        109.6076
367.18        109.0263
367.63        108.3805
368.08        107.6393
368.53        106.8345
368.98        105.9963
369.43        105.1722
369.88        104.3854
370.33        103.6276
370.78        102.9013
371.23        102.2129
371.68        101.5592
372.13        100.9338
372.58        100.3434
373.03        99.79587
373.48        99.28385
373.93        98.80163
374.38        98.29366
374.83        97.67426
375.28        96.93178
375.72        96.07374
376.17        95.22102
376.62        94.49495
377.07        93.92045
377.52        93.44696
377.97        92.99956
378.42        92.45872
378.87        91.80299
379.32        91.09647
379.77        90.37096
380.22        89.66289
380.67        88.99486
381.11        88.35513
381.56        87.79746
382.01        87.42628
382.46        87.25195
382.91        87.23715
383.36        87.26167
383.81        87.13433
384.26        86.80804
384.71         86.3328
385.15        85.78531
385.60        85.35541
386.05        85.06797
386.50        84.86757
386.95        84.69822
387.40        84.48027
387.85        84.19257
388.29        83.81894
388.74        83.47263
389.19        83.11456
389.64        82.73859
390.09         82.3174
390.54        81.87069
390.98        81.43786
391.43        81.09574
391.88        80.79601
392.33        80.46699
392.78        80.21225
393.23        80.00579
393.67        79.34801
394.12        78.49601
394.57        78.78752
395.02        78.92552
395.47        78.94814
395.91         78.4905
396.36        78.26935
396.81        78.29195
397.26        78.16007
397.71        77.90322
398.15        77.68233
398.60        77.58241
399.05        77.48837
399.50        77.38338
399.95        77.25031
400.39         77.0718
400.84        76.82846
401.29        76.56734
401.74         76.2109
402.18        75.88605
402.63        75.97849
403.08         76.3641
403.53        76.42374
403.97        76.09093
404.42        75.70353
404.87        75.37526
405.32        75.17155
405.76        75.11376
406.21        75.19434
406.66        75.30852
407.11        75.25272
407.55        75.01558
408.00        74.75594
408.45        74.53981
408.90         74.1515
409.34        73.71796
409.79        73.75949
410.24        74.14493
410.68        74.26541
411.13        74.06134
411.58        73.84605
412.03        73.70995
412.47        73.69352
412.92         73.7953
413.37        73.99726
413.81        74.18706
414.26         74.2646
414.71        74.18694
415.15        74.01392
415.60        73.77926
416.05        73.60997
416.49        73.55674
416.94        73.57282
417.39        73.64511
417.83        73.74995
418.28        73.85976
418.73        73.96196
419.17        74.04122
419.62        74.07512
420.07         74.0699
420.51        74.03485
420.96        73.95916
421.41        73.84302
421.85        73.68076
422.30        73.34249
422.74        72.95448
423.19        73.23619
423.64        74.00139
424.08         74.1993
424.53        73.74456
424.98        73.61536
425.42        73.86725
425.87        73.78246
426.31        73.43745
426.76        73.54005
427.21         74.0098
427.65        74.04507
428.10        73.64698
428.54        73.81415
428.99        73.84924
429.44        74.13506
429.88        74.31671
430.33        74.17096
430.77        73.76215
431.22        73.65986
431.66        73.89127
432.11        74.18887
432.56        74.54251
433.00        74.88367
433.45        74.94186
433.89        74.98975
434.34        75.09056
434.78          73.978
435.23        73.55562
435.67         73.9492
436.12        74.73194
436.57        75.01983
437.01        74.65248
437.46        74.64301
437.90        74.76129
438.35        75.65958
438.79        75.16244
439.24        75.24934
439.68        75.33926
440.13        75.53127
440.57        75.75638
441.02        75.90662
441.46        75.93733
441.91        75.77918
442.35        75.48365
442.80        75.64497
443.24        76.16183
443.69        76.32727
444.13        76.06829
444.58        76.32281
445.02         76.2755
445.47        76.25527
445.91        76.07293
446.36        76.01105
446.80        76.06778
447.24        76.15602
447.69        76.29052
448.13        76.31616
448.58        76.66325
449.02        76.48192
449.47        76.06025
449.91        75.92963
450.36        76.15453
450.80        76.40531
451.25        76.61786
451.69        76.80817
452.13        76.93108
452.58        76.92747
453.02        76.81842
453.47        76.67731
453.91        76.51295
454.36        76.40988
454.80        76.31939
455.24        75.97606
455.69        75.53075
456.13        75.37366
456.58        75.54762
457.02        75.66849
457.46        75.95837
457.91        75.73021
458.35        75.42936
458.79        75.20705
459.24        75.17413
459.68        75.08272
460.13        74.99239
460.57        74.75024
461.01        74.69385
461.46        74.76711
461.90        74.75428
462.34        74.51762
462.79        74.32971
463.23         74.2029
463.68        74.22845
464.12        74.13358
464.56        73.99046
465.01        74.11497
465.45        74.31639
465.89        74.48058
466.34        74.56197
466.78        74.09051
467.22        73.21252
467.67        73.59878
468.11        73.53777
468.55        73.64223
468.99        73.39122
469.44        73.35924
469.88        73.53497
470.32        73.61859
470.77        73.60287
471.21        73.59061
471.65        73.57877
472.10        73.55425
472.54        73.47767
472.98        73.37114
473.42        73.25186
473.87        73.02531
474.31        72.73788
474.75        72.84522
475.20        73.20982
475.64        73.10863
476.08          72.613
476.52        72.47071
476.97        72.69321
477.41         72.7962
477.85        72.84974
478.29        72.80014
478.74        73.02203
479.18        72.50898
479.62         72.3541
480.06        72.19918
480.50        72.36969
480.95        72.48631
481.39        72.36896
481.83        73.00787
482.27          72.686
482.72        72.38058
483.16        72.49689
483.60        72.32567
484.04        72.35876
484.48        72.43755
484.93        72.74889
485.37        72.73999
485.81        72.50773
486.25        72.89039
486.69        73.47211
487.14        72.34765
487.58         71.9666
488.02         72.5976
488.46        72.74677
488.90        72.80781
489.34        72.38029
489.79        71.45341
490.23        72.18029
490.67        72.12746
491.11        71.92254
491.55        71.83894
491.99         71.8823
492.43        71.89114
492.88        71.83214
493.32        71.77081
493.76        71.71145
494.20        71.75269
494.64         71.9222
495.08        72.03477
495.52        72.07986
495.96        72.41982
496.41        72.87797
496.85        72.55832
497.29        71.66561
497.73        71.48124
498.17        71.89093
498.61        72.10238
499.05        71.96655
499.49        71.90832
499.93        71.97127
500.37        71.86543
500.82         71.6181
501.26         71.8057
501.70        72.46229
502.14        71.70333
502.58        72.10712
503.02        72.01673
503.46        71.90038
503.90        71.76725
504.34        71.58451
504.78        71.52869
505.22        71.55196
505.66        71.57478
506.10         71.6328
506.54        71.65518
506.98        71.58427
507.42        72.12412
507.86        72.17474
508.30        71.90902
508.74        72.13309
509.18         71.9701
509.62        71.79332
510.06        71.65511
510.50        71.59774
510.94        71.58076
511.38        71.58437
511.82        71.60196
512.26        71.61883
512.70        71.64342
513.14        71.66823
513.58         71.6507
514.02        71.58455
514.46        71.52926
514.90        71.51326
515.34        71.33216
515.78         71.4062
516.22        71.39311
516.66        71.41555
517.10        71.46143
517.54        71.52531
517.98        71.60171
518.42         71.6593
518.86         71.6583
519.30        71.59399
519.74        71.48344
520.18        71.36462
520.62         71.2978
521.06        71.29931
521.50        71.35106
521.93        71.43674
522.37        71.51334
522.81        71.56918
523.25        71.61014
523.69        71.63046
524.13        71.62204
524.57        71.58616
525.01        71.52472
525.45        71.44968
525.89        71.38268
526.32        71.32835
526.76        71.29872
527.20        71.28825
527.64        71.30693
528.08        71.35273
528.52        71.38046
528.96        71.39132
529.40        71.47659
529.83        71.58202
530.27        71.52065
530.71        71.31824
531.15        71.20164
531.59        71.18918
532.03        71.15811
532.46        71.10184
532.90        71.08514
533.34        71.10081
533.78        71.13488
534.22        71.16577
534.66        71.15934
535.09        71.10027
535.53        71.01884
535.97        70.92876
536.41        70.86827
536.85         70.8484
537.28        70.86403
537.72        70.89496
538.16        70.89756
538.60        70.86651
539.04        70.82996
539.47        70.79425
539.91        70.80891
540.35         70.8615
540.79        70.94934
541.22        71.03317
541.66        71.06015
542.10        71.01703
542.54        70.92393
542.97        70.81105
543.41        70.76563
543.85        70.78809
544.29        70.85754
544.72        70.92859
545.16        70.95253
545.60        70.90092
546.04        70.83416
546.47        70.77335
546.91        70.66531
547.35        70.57096
547.79        70.68468
548.22        70.90521
548.66        70.99211
549.10        70.88412
549.53        70.64612
549.97        70.38611
550.41        70.29288
550.84        70.38937
551.28        70.62472
551.72        70.91817
552.15         71.0145
552.59        70.86386
553.03        71.07226
553.46        70.69283
553.90        70.62643
554.34        70.58847
554.77        70.59631
555.21        70.60554
555.65         70.5928
556.08        70.47808
556.52        70.51082
556.96        70.62216
557.39        70.59663
557.83        70.46299
558.27        70.40061
558.70        70.42747
559.14        70.33452
559.57        70.38776
560.01        70.38268
560.45        70.39896
560.88        70.52567
561.32         70.7512
561.75        70.76386
562.19          70.617
562.63        70.62804
563.06        70.75777
563.50        70.66367
563.93        70.39257
564.37        70.32965
564.80        70.46059
565.24        70.64651
565.68        70.81241
566.11        70.84595
566.55        70.82072
566.98        70.76175
567.42        70.86209
567.85         70.7756
568.29        70.63968
568.72        70.49638
569.16        70.38835
569.60        70.50011
570.03        70.77245
570.47        70.52431
570.90        70.56057
571.34        71.15044
571.77        70.99853
572.21        70.75214
572.64         70.7751
573.08        70.80419
573.51         70.2652
573.95        70.75002
574.38        70.59052
574.82        70.90902
575.25        70.56245
575.69        70.50963
576.12        70.47006
576.56        70.93011
576.99        70.74567
577.42        71.05014
577.86        70.92394
578.29        71.10543
578.73        70.84985
579.16        70.83058
579.60        70.85091
580.03        70.75421
580.47        70.37548
580.90        71.23959
581.33        70.99644
581.77        70.82401
582.20        70.99475
582.64        70.58437
583.07        70.77522
583.51        70.61765
583.94        70.62965
584.37        70.64977
584.81        70.74247
585.24        70.80966
585.68        70.84789
586.11        70.97688
586.54        70.67526
586.98        70.50684
587.41        71.10493
587.85        70.69909
588.28        70.86504
588.71        70.53216
589.15        70.87962
589.58        70.69392
590.01        70.78342
590.45        70.86932
590.88        70.32604
591.31        70.24513
591.75        70.36896
592.18        70.28012
592.61        70.17144
593.05         70.4942
593.48        71.07613
593.91        70.73436
594.35        70.57703
594.78         70.8365
595.21        70.63634
595.65        70.59528
596.08        70.27847
596.51        70.89681
596.94        70.27325
597.38        70.39102
597.81        70.68673
598.24        70.49253
598.68         71.1616
599.11        70.62611
599.54        70.90806
599.97        70.60326
600.41        70.89053
600.84        70.86423
601.27        70.71203
601.70        70.70441
602.14        70.42902
602.57        70.67786
603.00         70.5608
603.43        70.60368
603.87        70.96336
604.30         70.6032
604.73        70.56613
605.16        70.66282
605.60        70.64892
606.03        70.82048
606.46        70.91574
606.89        71.13572
607.32        70.61702
607.76        71.16203
608.19        70.76203
608.62        70.77685
609.05        70.74616
609.48        70.68336
609.92        70.54726
610.35        70.89238
610.78        71.06737
611.21        70.53429
611.64        70.88314
612.07        70.70359
612.50        70.57164
612.94        70.49884
613.37        70.54208
613.80        70.69946
614.23        70.79665
614.66        70.90733
615.09        70.92316
615.52         70.8985
615.96        70.89764
616.39        70.36263
616.82        70.55376
617.25        70.46932
617.68        70.73064
618.11        70.69711
618.54        70.52199
618.97        70.60616
619.40        70.86995
619.84        70.95247
620.27        70.94278
620.70        70.74027
621.13        70.34579
621.56        70.81985
621.99        70.47327
622.42         70.3597
622.85        70.61526
623.28        70.75551
623.71        70.57101
624.14        70.23976
624.57        70.43713
625.00        70.64213
625.43        70.31332
625.86         70.3327
626.29        70.43595
626.72        70.55724
627.15        70.32351
627.58         70.3408
628.01        70.54325
628.44        70.40496
628.87        69.94501
629.30        70.54923
629.73        70.31139
630.16        69.97058
630.59        70.05811
631.02         69.9897
631.45        70.05648
631.88        70.12712
632.31        70.23721
632.74        70.07006
633.17        70.30213
633.60        70.33091
634.03        70.35159
634.46        70.35686
634.89        70.35535
635.32        70.33833
635.75        70.30058
636.18        70.28453
636.61        70.28379
637.04        70.20773
637.47        70.09693
637.89        70.15186
638.32        70.31959
638.75        70.38805
639.18        70.33894
639.61        70.28848
640.04         70.2558
640.47        70.23728
640.90        70.24261
641.33        70.24445
641.76        70.22485
642.18         70.2988
642.61        70.17371
643.04         70.1371
643.47        70.14475
643.90        69.94289
644.33        70.04034
644.76         70.0312
645.18        70.04343
645.61        70.01306
646.04        69.93769
646.47        69.82375
646.90        69.71325
647.33        69.68632
647.75        69.76066
648.18        69.92039
648.61        70.09509
649.04        70.17964
649.47        70.14787
649.89        69.99335
650.32        69.81182
650.75        69.81564
651.18        70.00195
651.61        70.20447
652.03        70.28441
652.46         70.1915
652.89        70.09022
653.32        69.76442
653.74        69.55355
654.17        70.44472
654.60        70.13727
655.03        69.54916
655.46        69.79121
655.88        70.31502
656.31        71.74862
656.74        72.32547
657.16        71.19627
657.59        70.25745
658.02        70.20264
658.45        70.81479
658.87        70.71236
659.30        70.70661
659.73        69.89595
660.15        69.92549
660.58        70.25927
661.01        70.39474
661.44        70.19917
661.86        70.11409
662.29        70.14915
662.72        70.07252
663.14        69.94361
663.57        69.97917
664.00         70.1552
664.42        70.22651
664.85        70.18296
665.27        70.15394
665.70        70.13563
666.13        70.07711
666.55        69.98716
666.98        69.86826
667.41        69.76887
667.83        69.76865
668.26        69.87086
668.69        70.06417
669.11        70.27437
669.54        70.37695
669.96        70.35015
670.39        70.20299
670.82        70.03524
671.24        70.02631
671.67        70.18806
672.09        70.41869
672.52        70.63715
672.94        70.66116
673.37        70.51181
673.80        70.38461
674.22        70.32912
674.65        70.22957
675.07        70.12632
675.50        70.09216
675.92        70.12464
676.35        70.15477
676.77        70.17643
677.20        70.20905
677.62        70.25438
678.05        70.29197
678.47        70.31781
678.90          70.342
679.32        70.35845
679.75         70.3761
680.17        70.39412
680.60        70.41707
681.02        70.43375
681.45        70.41819
681.87        70.38287
682.30        70.29025
682.72        70.18898
683.15        70.24171
683.57        70.42421
684.00          70.456
684.42        70.36124
684.85        70.39476
685.27        70.54651
685.70        70.68963
686.12        70.77837
686.54        70.78605
686.97        70.70933
687.39        70.67194
687.82        70.68185
688.24        70.50911
688.66        70.50003
689.09        70.42284
689.51        70.40981
689.94        70.43147
690.36        70.49517
690.78        70.59753
691.21        70.69662
691.63        70.72196
692.06         70.6624
692.48        70.53369
692.90         70.3852
693.33         70.2851
693.75        70.26247
694.17        70.30874
694.60        70.37355
695.02         70.4401
695.44        70.48969
695.87        70.42114
696.29         70.3068
696.71        70.52201
697.14         70.9407
697.56          70.939
697.98        70.56001
698.41         70.4478
698.83        70.60291
699.25        70.68606
699.68        70.66841
700.10        70.72526
700.52        70.84177
700.94        70.97623
701.37         71.0671
701.79        71.05281
702.21        70.90595
702.64        70.67365
703.06        70.43249
703.48        70.31673
703.90        70.36498
704.33        70.53815
704.75        70.76833
705.17        70.91718
705.59        70.93845
706.01         70.8367
706.44        70.69203
706.86        70.73208
707.28        70.77902
707.70        71.04579
708.12        71.35277
708.55        71.26914
708.97        70.86877
709.39        70.75984
709.81        70.97102
710.23        71.04784
710.66        70.98069
711.08        71.07765
711.50        71.28108
711.92        71.37183
712.34        71.33007
712.76        71.22077
713.19        71.08305
713.61         71.0317
714.03        71.07507
714.45        71.17509
714.87        71.30064
715.29        71.40968
715.71        71.48307
716.13         71.5322
716.56        71.53699
716.98        71.54019
717.40        71.52661
717.82        71.49805
718.24        71.46511
718.66        71.45069
719.08        71.46475
719.50        71.48408
719.92        71.51231
720.34        71.59902
720.76        71.74685
721.19        71.75132
721.61        71.91007
722.03        71.88188
722.45        71.75263
722.87        71.53863
723.29        71.30852
723.71        71.16657
724.13        71.14515
724.55        71.23029
724.97        71.37208
725.39        71.48438
725.81        71.53967
726.23        71.55235
726.65        71.57133
727.07        71.67655
727.49        71.87585
727.91        72.13388
728.33        72.36143
728.75        72.41597
729.17        72.27033
729.59        71.97938
730.01        71.64807
730.43        71.44415
730.85        71.41422
731.27        71.50697
731.69        71.66979
732.10        71.81615
732.52        71.89702
732.94        71.99431
733.36        72.10676
733.78        72.08926
734.20        71.91483
734.62        72.17815
735.04        71.77438
735.46        71.93584
735.88        72.24742
736.30        72.31515
736.72        72.12948
737.13        72.04807
737.55        72.09216
737.97        72.13098
738.39        72.14956
738.81        72.14289
739.23        72.10611
739.65        72.09778
740.06        72.08613
740.48        72.06287
740.90        71.99277
741.32        71.96552
741.74        71.89616
742.16        71.92076
742.57        72.02179
742.99        72.17191
743.41        72.32842
743.83        72.40931
744.25        72.39623
744.67        72.30031
745.08        72.20234
745.50        72.19456
745.92         72.3161
746.34        72.53921
746.75           72.76
747.17        72.82424
747.59        72.70109
748.01        72.38342
748.42        72.02131
748.84        71.94903
749.26        72.14832
749.68        72.35385
750.09        72.46363
750.51        72.36497
750.93        72.14145
751.35        72.20916
751.76        72.52897
752.18        72.61769
752.60         72.4386
753.01         72.3643
753.43        72.44937
753.85        72.42596
754.27        72.24127
754.68        72.95142
755.10        72.70351
755.52        72.89817
755.93        72.98963
756.35         73.0601
756.77        73.06148
757.18        73.01475
757.60         72.9585
758.02        72.68784
758.43        72.37334
758.85        72.59677
759.26        73.16277
759.68        73.32898
760.10        73.15676
760.51        72.06123
760.93        72.59184
761.34         72.2375
761.76        73.24793
762.18        73.31227
762.59        72.99076
763.01        72.82122
763.42        72.94492
763.84        73.20977
764.26        73.53134
764.67        73.54166
765.09         73.2652
765.50        73.34296
765.92        73.44831
766.33        73.23793
766.75        72.62267
767.16        72.94253
767.58         72.8475
768.00        73.36095
768.41         73.8904
768.83        73.85603
769.24        73.33949
769.66        73.07175
770.07        73.11866
770.49        73.19129
770.90        73.25965
771.32        73.30852
771.73        73.33934
772.15        73.40207
772.56        73.49285
772.97        73.57569
773.39           73.61
773.80        73.51536
774.22         73.3519
774.63        73.51955
775.05        73.92332
775.46        74.12794
775.88        74.05794
776.29        74.00244
776.70        74.00214
777.12        74.01568
777.53        74.07519
777.95         74.1666
778.36        74.26738
778.77        74.30177
779.19        74.25562
779.60        74.21734
780.02        74.18961
780.43        74.08671
780.84        73.96685
781.26        74.05032
781.67        74.35217
782.09        74.58527
782.50        74.60313
782.91        74.88541
783.33        74.36292
783.74        74.25635
784.15        74.26698
784.57         74.1497
784.98        73.96651
785.39        74.10785
785.81        74.50383
786.22        74.67974
786.63        74.61628
787.04        74.66354
787.46        74.83486
787.87        74.90574
788.28        74.86996
788.70        74.85853
789.11        74.86743
789.52        74.75217
789.93         74.5983
790.35        74.80031
790.76        75.27338
791.17        75.34971
791.58        75.02853
792.00        74.88402
792.41        74.96356
792.82        74.85578
793.23        74.64748
793.65        74.74451
794.06        75.12564
794.47        75.49204
794.88        75.75024
795.29        75.71243
795.71        75.82034
796.12        75.60896
796.53        75.29383
796.94         75.1731
797.35        75.26928
797.76        75.31577
798.18         75.3111
798.59        75.41209
799.00        75.60933
799.41        75.80531
799.82        75.92994
800.23        75.92583
800.64         75.7766
801.06        75.47729
801.47        75.16322
801.88        74.97774
802.29        74.97706
802.70        75.14272
803.11        75.39381
803.52        75.58241
803.93         75.6517
804.34        75.61816
804.75        75.58253
805.17        75.65003
805.58        75.86008
805.99        76.30241
806.40         76.7707
806.81        76.54164
807.22        75.75089
807.63        75.35396
808.04        75.43137
808.45        75.36555
808.86        75.17197
809.27        75.30174
809.68         75.6722
810.09        75.88255
810.50        75.87161
810.91        75.74856
811.32        75.61703
811.73        75.66443
812.14        75.93577
812.55         76.3073
812.96        76.66245
813.37        76.93301
813.78        77.01044
814.19        76.69989
814.60         76.1686
815.01        75.88761
815.42        75.92812
815.83         76.0862
816.24        76.28133
816.65        76.43898
817.05        76.51008
817.46        76.48684
817.87        76.43603
818.28        76.40155
818.69        76.39868
819.10        76.40635
819.51        76.41805
819.92        76.42789
820.33        76.43481
820.74         76.4482
821.14        76.46095
821.55         76.4933
821.96        76.52676
822.37        76.55199
822.78        76.57361
823.19        76.60049
823.60        76.63189
824.00        76.69138
824.41        76.70022
824.82        76.62261
825.23        76.45855
825.64        76.23373
826.04        76.05117
826.45        76.03773
826.86        76.23121
827.27        76.58419
827.68        76.99289
828.08        77.31458
828.49        77.42387
828.90        77.39232
829.31        77.27483
829.72        77.17359
830.12        77.14803
830.53        77.12129
830.94        77.08733
831.35        77.00011
831.75        76.87861
832.16        76.71065
832.57        76.55749
832.97        76.47719
833.38        76.47533
833.79        76.52582
834.20        76.61409
834.60        76.71661
835.01        76.82983
835.42        76.95532
835.82        77.06294
836.23        77.01851
836.64        76.83765
837.04        76.57986
837.45         76.3093
837.86        76.23346
838.26        76.40631
838.67        76.74886
839.08         77.1725
839.48        77.50691
839.89         77.6879
840.29        77.75613
840.70        77.73936
841.11        77.69142
841.51         77.6548
841.92        77.57134
842.33        77.46731
842.73        77.38652
843.14        77.29494
843.54        77.23386
843.95        77.19068
844.35        77.15448
844.76        77.11229
845.17        77.06581
845.57        77.04083
845.98         77.0415
846.38        77.08582
846.79        77.13339
847.19        77.16017
847.60        77.07278
848.00        76.88419
848.41        76.60153
848.81        76.30384
849.22        76.04353
849.62        75.88567
850.03        75.78867
850.43        75.78098
850.84        75.81631
851.24        75.93063
851.65        76.08382
852.05        76.29985
852.46        76.48668
852.86        76.61034
853.27         76.6956
853.67        76.70966
854.07        76.79568
854.48        76.93127
854.88        77.13886
855.29        77.27447
855.69        77.28173
856.10        77.04552
856.50        76.68159
856.90        76.29599
857.31        76.09342
857.71        76.16943
858.12        76.40704
858.52        76.71826
858.92        76.82769
859.33        76.64603
859.73        76.28864
860.13        75.84106
860.54         75.4872
860.94        75.33855
861.34        75.30817
861.75        75.31958
862.15        75.31474
862.55         75.2394
862.96        75.14264
863.36        75.02688
863.76        74.87286
864.17        74.68359
864.57        74.47174
864.97        74.30148
865.38        74.26199
865.78        74.41307
866.18        74.70565
866.58        75.02443
866.99        75.17375
867.39        75.12664
867.79        74.90227
868.19         74.6171
868.60        74.41075
869.00        74.31193
869.40        74.31446
869.80        74.35184
870.21        74.31406
870.61        74.24704
871.01        74.12593
871.41         74.0238
871.81        74.03879
872.22        74.15184
872.62        74.35612
873.02        74.56316
873.42        74.60161
873.82        74.44225
874.22        74.17884
874.63        73.92728
875.03        73.82041
875.43        73.89863
875.83        74.08476
876.23        74.38834
876.63        74.82587
877.03        75.34921
877.44        75.93291
877.84        76.38281
878.24        76.34619
878.64        75.79483
879.04        74.88532
879.44        73.93796
879.84        73.40141
880.24        73.36853
880.64        73.71053
881.04        74.25762
881.44        74.70506
881.84        74.92297
882.24        74.97305
882.65        74.87308
883.05        74.76186
883.45        74.64993
883.85        74.52657
884.25        74.35793
884.65        74.10411
885.05        73.77776
885.45        73.39876
885.85        73.13523
886.25        73.25697
886.65        73.79218
887.05        74.63675
887.45        75.47555
887.85        75.83541
888.25        75.61388
888.65        74.93243
889.04        74.08245
889.44         73.6063
889.84        73.63396
890.24        74.01559
890.64        74.49051
891.04        74.63822
891.44        74.36916
891.84        73.85838
892.24        73.32208
892.64        73.08092
893.04        73.22377
893.44        73.62703
893.83        74.19787
894.23        74.73443
894.63        75.17194
895.03        75.53589
895.43        75.80294
895.83        75.93487
896.23        75.93223
896.63        75.80588
897.02        75.57446
897.42        75.31628
897.82        75.05572
898.22         74.8104
898.62        74.63205
899.01        74.60776
899.41        74.72665
899.81        74.96211
900.21        75.26154
900.61        75.52914
901.00        75.71484
901.40        75.86134
901.80        75.91343
902.20         75.8108
902.59        75.56919
902.99        75.17684
903.39        74.80237
903.79        74.71114
904.18         74.9408
904.58        75.42693
904.98         75.9238
905.38        76.06689
905.77        75.78212
906.17        75.17897
906.57        74.50664
906.96         74.2174
907.36        74.40941
907.76        74.97805
908.15        75.65764
908.55        75.92397
908.95        75.68227
909.34        75.07083
909.74        74.42812
910.14        74.22333
910.53        74.56494
910.93        75.26384
911.33        76.04596
911.72        76.45235
912.12        76.34531
912.52        75.92645
912.91        75.37047
913.31        74.94499
913.70         74.7237
914.10        74.60078
914.49        74.62099
914.89        74.80308
915.29        75.13915
915.68        75.62254
916.08        76.09457
916.47        76.29173
916.87        76.18005
917.26        75.80029
917.66         75.3418
918.05         75.0853
918.45        75.08794
918.84        75.28756
919.24        75.52396
919.64        75.60793
920.03        75.51452
920.42        75.34349
920.82        75.16359
921.21        75.06114
921.61        75.05466
922.00        75.08541
922.40        75.24444
922.79        75.77264
923.19        76.60765
923.58        77.68468
923.98        78.57411
924.37        78.68907
924.77        77.92798
925.16        76.45644
925.55        74.77953
925.95        73.78883
926.34        73.75992
926.74        74.44908
927.13        75.45064
927.52        75.99265
927.92        75.88992
928.31        75.36053
928.70        74.73341
929.10        74.49766
929.49        74.76545
929.89        75.31443
930.28        75.93279
930.67        76.15459
931.07         75.8454
931.46        75.22679
931.85        74.49374
932.24        73.96137
932.64        73.73753
933.03        73.71992
933.42        73.89571
933.82        74.24424
934.21        74.72195
934.60        75.33738
934.99        75.95502
935.39         76.3166
935.78        76.38924
936.17        76.19833
936.56        75.88906
936.96        75.72938
937.35        75.84601
937.74        76.13267
938.13         76.4602
938.53        76.63847
938.92        76.62283
939.31        76.46227
939.70         76.2499
940.09        76.13783
940.49        76.14436
940.88        76.25713
941.27        76.35151
941.66        76.24712
942.05        75.92431
942.44        75.46603
942.84        75.03774
943.23        74.84876
943.62        74.97808
944.01        75.33919
944.40        75.81663
944.79        76.20009
945.18        76.39227
945.57        76.43941
945.97        76.31701
946.36        76.06678
946.75        75.68956
947.14        75.17922
947.53        74.63682
947.92        74.25139
948.31        74.08992
948.70        74.13899
949.09        74.29945
949.48        74.38881
949.87         74.3697
950.26            74.3
950.65        74.27943
951.04        74.47203
951.43        74.90217
951.82        75.48225
952.21        76.09807
952.60         76.5621
952.99        76.79121
953.38        76.82858
953.77        76.69463
954.16        76.42773
954.55        76.06375
954.94        75.59928
955.33        75.10427
955.72        74.69987
956.11        74.41801
956.50        74.24481
956.89        74.12939
957.28        73.95203
957.66        73.72092
958.05        73.49135
958.44        73.28852
958.83        73.14455
959.22        73.06383
959.61        72.96477
960.00        72.97233
960.39        73.29523
960.78        73.92855
961.16        74.85971
961.55        75.61369
961.94        75.49191
962.33        74.38497
962.72         72.5642
963.11        70.71257
963.49        69.83075
963.88        70.12575
964.27        71.32508
964.66        72.88086
965.04        73.80015
965.43        73.67476
965.82        72.85746
966.21        71.80317
966.60        71.20516
966.98        71.26583
967.37        71.73002
967.76        72.36784
968.15        72.74782
968.53        72.72855
968.92        72.47723
969.31        72.17638
969.69        72.06173
970.08        72.19679
970.47        72.49542
970.86        72.92262
971.24        73.45104
971.63        73.96344
972.02        74.46744
972.40        74.94241
972.79        75.22127
973.17        75.36875
973.56        75.34983
973.95        75.22498
974.33        75.07226
974.72        74.91362
975.11        74.71922
975.49        74.49029
975.88        74.25704
976.26        74.04249
976.65        73.85772
977.04        73.64809
977.42        73.29142
977.81        72.73071
978.19         71.9871
978.58        71.37978
978.96        71.39317
979.35        72.09531
979.74        73.37339
980.12        74.79493
980.51        75.43978
980.89        75.21355
981.28        74.25105
981.66        73.09999
982.05          72.799
982.43        73.60851
982.82        75.12996
983.20         76.8184
983.59        77.67751
983.97        77.55829
984.35         76.7281
984.74        75.51588
985.12        74.50948
985.51        73.94958
985.89         73.6776
986.28         73.6502
986.66        73.88669
987.04        74.28455
987.43        74.81835
987.81        75.32568
988.20        75.39209
988.58        74.98585
988.96        74.25101
989.35        73.26126
989.73         72.2353
990.12        71.21788
990.50         70.0703
990.88        69.18899
991.27        69.39417
991.65        70.79469
992.03        73.08657
992.42        75.13423
992.80          75.823
993.18        74.89771
993.56        72.51122
993.95        69.50333
994.33        68.03932
994.71        69.05447
995.10        71.50491
995.48        74.09505
995.86        75.41679
996.24        75.34354
996.63        74.29706
997.01        72.71632
997.39        71.48621
997.77        71.11872
998.15        71.33704
998.54        71.87604
998.92        72.42283
999.30        72.85403
999.68        73.32628
1000.06        73.89192
1000.45        74.49546
1000.83        75.13331
1001.21        75.64262
1001.59        75.95609
1001.97         76.0331
1002.35        75.87466
1002.73        75.54757
1003.12        74.99241
1003.50        74.02407
1003.88        72.82995
1004.26          71.597
1004.64        70.74577
1005.02        70.74758
1005.40        71.60944
1005.78        73.18922
1006.16        75.01327
1006.54         76.2004
1006.92        76.42638
1007.30         75.8601
1007.69        74.95502
1008.07        74.39097
1008.45        74.46033
1008.83        74.96836
1009.21        75.50787
1009.59        75.47842
1009.97        74.70643
1010.35        73.27277
1010.73        71.65681
1011.11        71.03058
1011.49        71.88541
1011.86        73.93095
1012.24         76.0237
1012.62        76.85584
1013.00        76.23912
1013.38        74.65116
1013.76        72.80989
1014.14        71.93237
1014.52        72.39198
1014.90        73.74768
1015.28        75.68812
1015.66        77.54163
1016.04        78.86166
1016.41        79.93455
1016.79        80.22754
1017.17        79.32084
1017.55        77.34633
1017.93        74.56236
1018.31        71.87033
1018.69        70.70808
1019.06        71.51287
1019.44        74.01769
1019.82        77.61694
1020.20        80.76727
1020.58        82.53103
1020.95        82.99553
1021.33         82.5223
1021.71        81.61835
1022.09        80.46497
1022.46        78.92912
1022.84         76.8288
1023.22        73.74606
1023.60        69.63643
1023.97        64.42819
1024.35        59.39516
1024.73        56.92967
