SpectraSmart Spectrum 2.9.0.0
--------- Device Information -----------
Spectrum Name :  反射率_0
Saving Time :  2024/04/28 00:04:44
Spectro-Module Model Name : SE2030-DUVN
Spectro-Module Serial Number : OS361AC55029948
Wavelength Start : 200
Wavelength End : 1025
Wavelength Unit : Wavelength(nm)
Spectrum Unit : Reflectance(%)
-----------Spectrum Setting ------------
Integration Time : 20ms
Average : 10
Boxcar : 0
Background removal :  enabled
linearity correction :  enabled
SC :  disabled
Intensity correction :  disabled
DWT denoise :  enabled
savitzky-golay :  disabled
FFT :  disabled
Running average :  disabled
Kalman :  disabled
High pass :  disabled
---------------BEGIN--------------------
Wavelength(nm)             Reflectance(%)
200.29               0
200.75        64.80225
201.21        42.24751
201.67        30.05002
202.13        31.79991
202.58        42.50802
203.04        58.53631
203.50        75.07207
203.96        84.27682
204.42        85.35348
204.88         82.3164
205.34        79.26298
205.80        80.34446
206.26        86.58263
206.72        98.42448
207.18        115.8579
207.64         125.559
208.10        118.0694
208.55        104.6231
209.01        93.42453
209.47        85.35688
209.93         77.2203
210.39        61.42436
210.85        20.44211
211.31         -12.037
211.77        58.53292
212.23        95.86021
212.69        106.7681
213.14        107.7984
213.60        102.5706
214.06        89.89532
214.52        66.18719
214.98          44.172
215.44        43.67628
215.90        54.13868
216.36        64.42828
216.81        69.99066
217.27        71.87137
217.73         72.6826
218.19         72.3256
218.65        70.00221
219.11        65.80174
219.57        59.33547
220.02        52.56991
220.48        51.80112
220.94        58.01677
221.40        68.05809
221.86        77.70699
222.32        83.07418
222.77        84.18633
223.23        82.73869
223.69         80.1497
224.15        77.68384
224.61        75.61206
225.06        73.50606
225.52        71.45602
225.98        69.59185
226.44        68.25951
226.90        67.40165
227.36        67.16048
227.81        67.58405
228.27        68.53506
228.73        69.83437
229.19        70.64549
229.65        69.38258
230.10         65.7761
230.56        60.95955
231.02        56.23344
231.48        53.38586
231.93        52.64671
232.39        53.41281
232.85        55.24931
233.31        57.60812
233.77        60.09903
234.22        62.84817
234.68        65.16761
235.14        66.19141
235.60        65.87194
236.05        64.27201
236.51         62.3505
236.97        62.35958
237.43        65.04138
237.88        69.78738
238.34        74.72474
238.80        78.19342
239.26        79.95029
239.71        80.45618
240.17        79.53239
240.63        78.47512
241.08        78.79418
241.54        79.61395
242.00        80.41498
242.46        80.94378
242.91        81.42734
243.37        82.05744
243.83        84.14936
244.28        90.98902
244.74        100.8228
245.20        106.7762
245.66        107.5022
246.11        105.9907
246.57        103.0684
247.03        97.03213
247.48        87.24573
247.94        78.68353
248.40        78.35552
248.85         84.5697
249.31        93.00069
249.77        99.19978
250.22         102.594
250.68        104.6148
251.14         105.838
251.59        106.9625
252.05         108.435
252.51        109.9436
252.96        110.9653
253.42        110.6338
253.88        108.4638
254.33        105.4875
254.79        103.0108
255.25         100.393
255.70          97.376
256.16        94.86098
256.62        93.14209
257.07        92.67789
257.53        93.57375
257.99        94.68941
258.44        95.08242
258.90        94.62438
259.35        92.97411
259.81        91.05679
260.27        88.98618
260.72        86.99683
261.18        85.61218
261.63        84.30315
262.09        83.25644
262.55        82.08102
263.00        80.63315
263.46        79.22381
263.91          77.799
264.37        76.79885
264.83        76.12261
265.28        75.56476
265.74        75.03472
266.19        74.07903
266.65        72.75716
267.11        71.12134
267.56        69.32344
268.02        67.73653
268.47        66.40585
268.93        65.28091
269.38        64.22678
269.84        63.07829
270.30        61.78864
270.75        60.42546
271.21        59.10232
271.66         57.9106
272.12        56.89676
272.57        55.96348
273.03        55.07273
273.48        54.07092
273.94         53.0041
274.39        51.87521
274.85        50.80587
275.31        49.84024
275.76        48.96215
276.22        48.19267
276.67        47.45633
277.13        46.79571
277.58        46.13141
278.04        45.52657
278.49        44.87929
278.95        44.19728
279.40        43.41521
279.86        42.61638
280.31        41.81051
280.77        41.17298
281.22        40.66755
281.68        40.31469
282.13        39.98224
282.59        39.57196
283.04        39.03305
283.50        38.43785
283.95         37.8654
284.41          37.499
284.86        37.34735
285.32        37.38611
285.77        37.47247
286.22        37.46303
286.68        37.34207
287.13         37.1025
287.59        36.88675
288.04        36.81787
288.50        36.94588
288.95        37.17747
289.41        37.39667
289.86        37.36522
290.32        37.09307
290.77        36.67369
291.22        36.29375
291.68        36.21285
292.13        36.48814
292.59        37.07118
293.04         37.8688
293.50        38.76442
293.95        39.69542
294.40        40.70148
294.86        41.80315
295.31        43.01963
295.77        44.35922
296.22        45.77568
296.68        47.23484
297.13        48.66126
297.58        50.03461
298.04        51.37578
298.49        52.71392
298.95        54.14939
299.40        55.70235
299.85        57.36876
300.31        59.13906
300.76         60.9263
301.21        62.70553
301.67        64.50852
302.12        66.29077
302.58        68.09208
303.03        69.87865
303.48        71.66003
303.94        73.49857
304.39        75.39478
304.84        77.37593
305.30        79.44656
305.75        81.49305
306.20        83.44566
306.66        85.31046
307.11        87.05836
307.57        88.78879
308.02        90.52248
308.47          92.284
308.93        94.05621
309.38        95.73899
309.83        97.29862
310.29        98.75182
310.74        100.0944
311.19        101.3794
311.65        102.6583
312.10        103.9014
312.55        105.0889
313.00        106.2073
313.46        107.2505
313.91        108.2017
314.36        109.0924
314.82        109.9007
315.27         110.582
315.72        111.1397
316.18        111.6046
316.63        112.0402
317.08        112.5892
317.53         113.278
317.99        114.0573
318.44        114.8413
318.89         115.459
319.35         115.866
319.80        116.1251
320.25        116.3085
320.70        116.5445
321.16        116.8618
321.61        117.2381
322.06        117.6452
322.51        118.0491
322.97        118.4141
323.42        118.7997
323.87         119.163
324.32        119.4532
324.78        119.6469
325.23        119.7942
325.68        119.9384
326.13        120.1896
326.59        120.5434
327.04        121.0223
327.49         121.533
327.94        121.9594
328.39        122.2709
328.85         122.466
329.30        122.6737
329.75        122.9324
330.20        123.2679
330.66        123.6182
331.11        124.0418
331.56         124.503
332.01        124.9986
332.46        125.5379
332.92        126.0334
333.37        126.5075
333.82        126.8904
334.27        127.1935
334.72        127.4804
335.17        127.8635
335.63        128.3456
336.08        128.9645
336.53        129.6236
336.98        130.2098
337.43        130.6882
337.88        131.0803
338.34        131.4358
338.79        131.9043
339.24        132.4881
339.69        133.1464
340.14        133.7772
340.59        134.2186
341.05        134.4481
341.50        134.5469
341.95        134.6271
342.40        134.8775
342.85        135.3501
343.30        135.9763
343.75        136.6974
344.20        137.4174
344.66        138.0867
345.11        138.7159
345.56        139.2532
346.01        139.6144
346.46        139.7966
346.91        139.8267
347.36        139.8028
347.81        139.8836
348.26        140.1077
348.72        140.4354
349.17         140.794
349.62        141.0866
350.07        141.2688
350.52        141.3611
350.97         141.369
351.42        141.3025
351.87        141.1701
352.32        140.9693
352.77        140.7002
353.22        140.3683
353.67         139.982
354.13        139.5618
354.58        139.1109
355.03        138.6983
355.48        138.3275
355.93        137.9722
356.38        137.5786
356.83        137.0598
357.28        136.3979
357.73        135.6324
358.18        134.7954
358.63         133.932
359.08        133.0746
359.53        132.2252
359.98        131.4135
360.43        130.6882
360.88        130.0426
361.33        129.4366
361.78         128.843
362.23        128.2031
362.68        127.4882
363.13        126.7446
363.58        125.9094
364.03        124.7711
364.48        123.5328
364.93        122.1008
365.38        120.7083
365.83        119.6294
366.28        118.9157
366.73        118.4757
367.18        118.1371
367.63        117.6158
368.08        116.8347
368.53        115.8887
368.98        114.8633
369.43        113.9002
369.88        113.0527
370.33          112.26
370.78        111.5416
371.23        110.9395
371.68        110.4344
372.13        110.0108
372.58        109.5599
373.03        108.8972
373.48        107.9915
373.93        106.9098
374.38        105.7664
374.83         104.743
375.28        103.8993
375.72        103.1731
376.17        102.5725
376.62        102.0279
377.07         101.509
377.52        101.0231
377.97        100.5501
378.42        100.0573
378.87        99.53294
379.32        98.97626
379.77        98.38201
380.22        97.74588
380.67        97.07188
381.11        96.37244
381.56        95.67678
382.01        95.04649
382.46        94.51342
382.91        94.08028
383.36        93.72209
383.81        93.38922
384.26         93.0612
384.71        92.73817
385.15        92.42706
385.60        92.20463
386.05        92.04668
386.50        91.92103
386.95        91.75451
387.40        91.44738
387.85        90.99279
388.29        90.38406
388.74         89.8027
389.19        89.28977
389.64        88.85378
390.09        88.45245
390.54        88.06532
390.98        87.64135
391.43        87.23586
391.88        86.87082
392.33        86.50417
392.78        86.15464
393.23        85.85075
393.67        85.37839
394.12        84.88473
394.57        85.21072
395.02        84.99505
395.47        85.08752
395.91        84.72714
396.36        84.57836
396.81        84.53276
397.26        84.41898
397.71        84.22661
398.15        83.96918
398.60        83.73633
399.05        83.44511
399.50        83.16241
399.95        82.96815
400.39        82.86236
400.84        82.84794
401.29         82.8364
401.74        82.42265
402.18        81.73006
402.63        81.42049
403.08        81.50163
403.53        81.38211
403.97        81.05157
404.42        80.90385
404.87         80.8994
405.32        80.84377
405.76         80.7076
406.21        80.46225
406.66        80.18015
407.11        80.15105
407.55        80.31879
408.00        80.25816
408.45        79.94099
408.90        79.43982
409.34        78.89944
409.79        78.73248
410.24         78.8909
410.68        78.92467
411.13        78.80361
411.58        78.82547
412.03        78.97392
412.47        79.06689
412.92        79.05081
413.37        78.99541
413.81        78.89036
414.26        78.78226
414.71        78.66467
415.15        78.54787
415.60        78.42362
416.05        78.35199
416.49        78.35373
416.94         78.4077
417.39        78.49222
417.83        78.56643
418.28        78.60552
418.73        78.59286
419.17        78.55405
419.62        78.53972
420.07        78.56963
420.51        78.63287
420.96        78.66479
421.41         78.5788
421.85        78.35284
422.30        77.88262
422.74        77.34615
423.19        77.56128
423.64        78.34295
424.08        78.56704
424.53         78.1209
424.98        77.98074
425.42         78.1842
425.87        78.03375
426.31        77.62643
426.76        77.57275
427.21        77.82222
427.65        77.88837
428.10         77.7498
428.54        77.67992
428.99        77.74447
429.44        77.96056
429.88        78.22714
430.33        78.18015
430.77        77.84893
431.22        77.91166
431.66        78.30463
432.11        78.38287
432.56         78.2244
433.00        78.29362
433.45        78.32825
433.89        78.25124
434.34        78.62704
434.78        76.96576
435.23        76.89603
435.67        78.12208
436.12        78.65746
436.57        79.01299
437.01         78.4904
437.46        78.48006
437.90        78.47027
438.35        79.55348
438.79        78.86253
439.24        78.88405
439.68        78.88157
440.13         78.8512
440.57        78.80927
441.02        79.12411
441.46        79.62069
441.91          79.389
442.35        78.62737
442.80        78.81177
443.24        79.73667
443.69        79.91951
444.13        79.35947
444.58        79.22285
445.02        79.49974
445.47        79.61532
445.91        79.53452
446.36        79.51395
446.80        79.54096
447.24        79.54783
447.69         79.4858
448.13        79.65176
448.58        79.94231
449.02        79.93046
449.47        79.68121
449.91        79.63826
450.36        79.84674
450.80        79.96862
451.25        79.96448
451.69        80.16674
452.13        80.07297
452.58        79.99201
453.02        79.80872
453.47        79.63342
453.91        79.47678
454.36        79.39307
454.80        79.32139
455.24         79.0495
455.69        78.67655
456.13        78.37314
456.58        78.29156
457.02        78.30604
457.46        78.95634
457.91        78.76099
458.35        78.28748
458.79        78.00394
459.24         78.0273
459.68        77.95052
460.13        77.81267
460.57        77.52724
461.01        77.44639
461.46        77.53624
461.90        77.20954
462.34        77.41038
462.79        77.36237
463.23        77.43707
463.68        77.40421
464.12        77.18816
464.56        76.90337
465.01        76.82523
465.45        76.85713
465.89        77.05183
466.34        77.30993
466.78        76.98317
467.22         76.1515
467.67        76.42291
468.11        76.07887
468.55        76.14754
468.99        76.06222
469.44        76.02291
469.88        76.01012
470.32        75.96946
470.77        75.92152
471.21        75.88367
471.65        75.85521
472.10        75.84722
472.54        75.80983
472.98        75.74522
473.42        75.66431
473.87        75.47308
474.31        75.20441
474.75        75.29867
475.20        75.57401
475.64        75.36625
476.08        74.83682
476.52        74.54292
476.97        74.43513
477.41        75.35128
477.85        75.21481
478.29        75.00175
478.74        75.04552
479.18        74.47084
479.62        74.74207
480.06        74.66732
480.50        74.65891
480.95         74.7513
481.39        74.80837
481.83        75.00618
482.27        75.25607
482.72        74.37971
483.16          74.797
483.60        74.58675
484.04        74.42345
484.48        74.53462
484.93        75.10814
485.37        74.48903
485.81        75.00737
486.25        75.31591
486.69         75.1963
487.14        74.44249
487.58        74.63454
488.02        75.04121
488.46        74.84142
488.90        75.09016
489.34        74.65523
489.79         73.2797
490.23        74.08601
490.67        73.95368
491.11        73.85056
491.55        73.82204
491.99        73.88757
492.43        73.98735
492.88        74.06657
493.32        74.12595
493.76        74.14487
494.20        74.21001
494.64        74.33917
495.08        74.40167
495.52        74.41225
495.96        74.61656
496.41        74.90884
496.85         74.7775
497.29        74.29938
497.73        74.16927
498.17        74.29293
498.61        74.41119
499.05        74.40817
499.49        74.36219
499.93        74.30204
500.37        74.14575
500.82        73.88885
501.26        73.87287
501.70        74.21207
502.14         73.3605
502.58        73.94805
503.02        73.95446
503.46        73.83998
503.90        73.79747
504.34        73.76789
504.78        73.80399
505.22        73.86022
505.66        73.83015
506.10        73.71484
506.54        73.66685
506.98        73.70313
507.42        73.57312
507.86        73.61824
508.30        73.63654
508.74        73.74641
509.18        73.89582
509.62        74.04531
510.06        74.11524
510.50        74.08263
510.94        73.97343
511.38        73.82525
511.82        73.69974
512.26        73.61853
512.70        73.57218
513.14         73.5529
513.58        73.51808
514.02        73.45857
514.46        73.44112
514.90        73.49001
515.34        73.37914
515.78        73.53139
516.22        73.59252
516.66        73.67384
517.10        73.74419
517.54        73.79674
517.98        73.83038
518.42        73.83605
518.86        73.81374
519.30        73.76512
519.74        73.69137
520.18        73.61205
520.62        73.55565
521.06        73.53228
521.50         73.5442
521.93        73.57257
522.37        73.56937
522.81         73.5317
523.25        73.46513
523.69        73.41103
524.13        73.43518
524.57        73.54249
525.01        73.70673
525.45        73.85603
525.89        73.87823
526.32        73.74834
526.76        73.52155
527.20        73.27142
527.64        73.12422
528.08        73.11251
528.52        73.19363
528.96         73.3199
529.40        73.41544
529.83        73.44627
530.27        73.45061
530.71        73.42353
531.15        73.36633
531.59          73.287
532.03        73.18269
532.46        73.07188
532.90        73.01217
533.34        73.00809
533.78        73.04807
534.22        73.10553
534.66        73.13596
535.09        73.11929
535.53        73.09011
535.97        73.04999
536.41        73.02005
536.85        73.00608
537.28        72.99933
537.72        73.00105
538.16        73.00416
538.60        73.00915
539.04        73.03773
539.47        73.05473
539.91        73.04662
540.35        72.99463
540.79        72.91914
541.22        72.84473
541.66        72.82125
542.10        72.85325
542.54        72.92253
542.97         72.9904
543.41        73.03769
543.85        73.04199
544.29        73.02127
544.72        72.96947
545.16        72.91474
545.60        72.84847
546.04        72.75874
546.47        72.67236
546.91        72.63012
547.35        72.62924
547.79        72.70689
548.22        72.78146
548.66        72.67444
549.10        72.42081
549.53        72.32577
549.97        72.41338
550.41        72.46846
550.84        72.49084
551.28        72.62685
551.72        72.82528
552.15        72.92006
552.59        72.90281
553.03        72.80383
553.46        72.68436
553.90        72.63435
554.34        72.64857
554.77        72.82531
555.21        73.10468
555.65        72.82899
556.08        72.81579
556.52        72.55816
556.96        72.37245
557.39        72.40776
557.83        72.63383
558.27        72.69095
558.70        72.56939
559.14        72.57261
559.57        72.68107
560.01        72.74463
560.45        72.72941
560.88        72.67351
561.32        72.63837
561.75        72.55128
562.19        72.47742
562.63        72.54258
563.06        72.67526
563.50        72.61673
563.93        72.39845
564.37        72.23219
564.80        72.36286
565.24        72.45729
565.68        72.54372
566.11        72.62408
566.55        72.71416
566.98        72.72857
567.42        72.69666
567.85         72.7646
568.29        72.92389
568.72        72.73152
569.16        72.28761
569.60        72.24742
570.03        72.67416
570.47        72.42229
570.90        72.31031
571.34        73.15256
571.77        72.92912
572.21        72.52779
572.64        72.81443
573.08        72.64803
573.51        72.20885
573.95        72.45482
574.38        72.86544
574.82        72.73324
575.25        72.78394
575.69        72.75146
576.12        72.52831
576.56        72.66573
576.99        72.74825
577.42         72.6642
577.86        72.38213
578.29        73.04156
578.73        72.83187
579.16        72.93284
579.60        72.79282
580.03         72.6516
580.47         72.4159
580.90        72.88583
581.33        73.21321
581.77        72.80518
582.20        72.67921
582.64        72.68308
583.07        72.75864
583.51        72.65832
583.94        72.84718
584.37        72.86239
584.81        72.85435
585.24        72.86508
585.68        72.95666
586.11        72.84583
586.54        72.74165
586.98        72.50207
587.41        72.87576
587.85        72.59832
588.28        72.31017
588.71        72.62538
589.15         72.6031
589.58        72.33517
590.01        72.86114
590.45        72.65133
590.88        72.26661
591.31        72.18517
591.75        72.41141
592.18        72.48112
592.61        72.55452
593.05        72.29814
593.48        72.96726
593.91         72.2288
594.35        72.48397
594.78        72.68102
595.21        72.18338
595.65         72.2051
596.08        72.31776
596.51        72.58778
596.94        72.42393
597.38        72.43822
597.81        72.53703
598.24        72.35769
598.68        72.56318
599.11         72.0658
599.54        72.71867
599.97          72.177
600.41         72.6795
600.84        72.59981
601.27        72.43587
601.70        72.30099
602.14        71.87906
602.57         72.0211
603.00        72.36112
603.43        72.45901
603.87        72.41406
604.30        72.53869
604.73        72.05038
605.16        72.31605
605.60        72.26406
606.03        72.56257
606.46        72.78152
606.89        72.89267
607.32        72.39781
607.76        72.68124
608.19        72.45241
608.62        72.69176
609.05        72.60233
609.48        72.55084
609.92        72.38086
610.35        72.46031
610.78        72.57504
611.21        72.12475
611.64        72.46432
612.07        72.39146
612.50        72.29964
612.94        72.30347
613.37        72.48151
613.80        72.04455
614.23        72.27071
614.66        72.22918
615.09        72.25417
615.52        72.28713
615.96        72.38203
616.39        71.98525
616.82        72.39505
617.25        72.27522
617.68        72.46638
618.11        72.34008
618.54        72.15551
618.97        72.18072
619.40        72.30337
619.84        72.64074
620.27        72.38051
620.70        72.22488
621.13        71.88862
621.56         72.3267
621.99        71.81168
622.42         71.7772
622.85        71.94591
623.28        72.19724
623.71        72.12988
624.14        71.77831
624.57         72.0475
625.00        72.41755
625.43        71.91873
625.86        71.98669
626.29        72.29789
626.72        71.91428
627.15        72.07118
627.58        72.01232
628.01        72.23067
628.44        71.84469
628.87        71.88166
629.30        72.43699
629.73        71.96791
630.16        71.55267
630.59         71.9553
631.02         72.0187
631.45        72.05715
631.88         72.1135
632.31        72.21726
632.74        71.94994
633.17        72.03636
633.60        71.95413
634.03        71.92551
634.46        71.92665
634.89        71.94337
635.32        71.93903
635.75        71.90378
636.18        71.84873
636.61        71.79741
637.04        71.82102
637.47        71.90883
637.89        71.97423
638.32         71.9978
638.75        72.06493
639.18        72.17097
639.61        72.26637
640.04         72.3121
640.47         72.2859
640.90        72.18739
641.33        71.99874
641.76         71.7662
642.18          71.745
642.61         71.6736
643.04         71.7521
643.47        71.86076
643.90        71.93967
644.33        71.96351
644.76        71.95256
645.18        71.92034
645.61        71.87437
646.04        71.82445
646.47        71.75717
646.90        71.68653
647.33        71.65304
647.75        71.67623
648.18        71.72161
648.61        71.75608
649.04        71.86544
649.47        71.99669
649.89        71.78924
650.32        71.38946
650.75        71.54049
651.18        72.14789
651.61        72.32384
652.03        71.97067
652.46        71.78944
652.89        71.94946
653.32        71.61801
653.74        71.13589
654.17        72.25355
654.60         71.8214
655.03        71.53317
655.46        71.69554
655.88        72.41988
656.31        73.72179
656.74        74.33846
657.16        72.72762
657.59        71.66016
658.02        71.67995
658.45        72.43449
658.87        72.08969
659.30        72.69076
659.73        71.82544
660.15         72.2416
660.58        71.73447
661.01        71.81063
661.44        71.92598
661.86        71.95507
662.29         71.8796
662.72        71.77176
663.14        71.70439
663.57        71.74106
664.00        71.86916
664.42        71.91468
664.85        71.87419
665.27           71.86
665.70        71.86954
666.13        71.85209
666.55        71.81197
666.98        71.75177
667.41        71.70671
667.83        71.73227
668.26          71.828
668.69        71.98961
669.11         72.1517
669.54        72.22022
669.96        72.18365
670.39         71.9996
670.82        71.77565
671.24        71.81106
671.67        72.06688
672.09        72.19878
672.52        72.17958
672.94        72.11508
673.37        72.04453
673.80        72.01028
674.22        72.03075
674.65        71.99928
675.07        71.94022
675.50        71.92549
675.92        71.95596
676.35        71.96612
676.77        71.95753
677.20        71.95346
677.62        71.97014
678.05        72.00981
678.47        72.07296
678.90        72.16113
679.32        72.25938
679.75        72.36137
680.17        72.45572
680.60        72.54707
681.02        72.60728
681.45         72.5853
681.87        72.49204
682.30        72.29686
682.72        72.07717
683.15        72.04522
683.57        72.19036
684.00        72.21733
684.42        72.13741
684.85        72.18877
685.27        72.35476
685.70        72.50591
686.12        72.60314
686.54        72.65051
686.97        72.63573
687.39        72.63187
687.82        72.64973
688.24         72.4991
688.66        72.53438
689.09        72.49162
689.51        72.48735
689.94        72.47153
690.36        72.45313
690.78        72.44366
691.21        72.43356
691.63        72.40479
692.06        72.35821
692.48        72.28701
692.90        72.22678
693.33        72.22042
693.75        72.27264
694.17        72.39716
694.60        72.53307
695.02        72.53743
695.44        72.41351
695.87        72.36536
696.29        72.40787
696.71        72.38518
697.14         72.2999
697.56        72.33496
697.98        72.45258
698.41        72.53497
698.83        72.54974
699.25         72.5617
699.68        72.57803
700.10        72.64902
700.52         72.7672
700.94        72.91979
701.37         73.0316
701.79        73.02386
702.21        72.86604
702.64        72.60661
703.06        72.33559
703.48        72.21382
703.90        72.28194
704.33        72.48598
704.75        72.74603
705.17        72.90451
705.59         72.9133
706.01        72.79001
706.44        72.61034
706.86        72.61489
707.28        72.62879
707.70        72.81721
708.12        73.04303
708.55        73.05175
708.97         72.8702
709.39        72.84055
709.81        72.97076
710.23        73.00244
710.66        72.92983
711.08        72.92912
711.50        72.98196
711.92        73.00325
712.34         72.9903
712.76        72.97054
713.19        72.94358
713.61        72.95718
714.03        72.99813
714.45        73.05269
714.87        73.11739
715.29        73.18886
715.71        73.26241
716.13        73.34067
716.56        73.39063
716.98        73.43658
717.40         73.4549
717.82        73.44951
718.24        73.44845
718.66        73.49918
719.08        73.60649
719.50        73.74738
719.92        73.88721
720.34        73.97076
720.76        73.97974
721.19         73.9221
721.61        73.82203
722.03        73.68652
722.45        73.53109
722.87        73.36143
723.29        73.20698
723.71        73.11201
724.13        73.09168
724.55        73.14326
724.97        73.24641
725.39        73.36089
725.81        73.46896
726.23        73.57033
726.65        73.67225
727.07        73.79256
727.49        73.92857
727.91        74.06364
728.33         74.1699
728.75        74.20569
729.17        74.16547
729.59         74.0715
730.01        73.95092
730.43        73.84895
730.85         73.7804
731.27        73.72691
731.69        73.70837
732.10        73.75282
732.52        73.84303
732.94        74.03132
733.36        74.25089
733.78        74.26447
734.20        74.02668
734.62        74.11938
735.04        73.48891
735.46        73.68564
735.88        74.22761
736.30        74.28531
736.72         73.8773
737.13        73.75405
737.55        73.94723
737.97        74.14667
738.39        74.27081
738.81        74.20633
739.23        73.98516
739.65         73.9294
740.06        74.01964
740.48         74.0403
740.90        73.95811
741.32        73.99686
741.74        74.06306
742.16        74.20617
742.57        74.38966
742.99        74.60656
743.41        74.79896
743.83        74.86288
744.25        74.78057
744.67        74.56696
745.08        74.33411
745.50        74.22787
745.92        74.30743
746.34        74.54115
746.75        74.79896
747.17         74.8799
747.59        74.73913
748.01        74.37685
748.42        73.98073
748.84        73.93372
749.26          74.219
749.68        74.58575
750.09        74.86388
750.51         74.7384
750.93        74.33171
751.35        74.32696
751.76        74.69258
752.18        74.76938
752.60        74.54824
753.01        74.44513
753.43        74.49083
753.85        74.57267
754.27        74.68956
754.68        74.86843
755.10        75.05754
755.52        75.17045
755.93        75.19786
756.35        75.16362
756.77        75.07387
757.18        75.05654
757.60        75.15448
758.02        75.07021
758.43        74.84043
758.85        75.35747
759.26        75.57347
759.68        75.54217
760.10        75.19715
760.51        74.21887
760.93        74.71295
761.34        74.95168
761.76        74.99861
762.18        75.18333
762.59        75.36177
763.01        75.43917
763.42          75.465
763.84        75.48087
764.26        75.54879
764.67        75.62078
765.09         75.7004
765.50        75.78243
765.92        75.82671
766.33        75.57132
766.75        75.07732
767.16        74.92135
767.58        75.12228
768.00        75.41379
768.41        75.71979
768.83        75.95508
769.24         76.0457
769.66        76.01794
770.07        75.87254
770.49         75.6264
770.90        75.36898
771.32        75.29558
771.73        75.42097
772.15        75.49226
772.56        75.50526
772.97        75.68763
773.39        75.95954
773.80        75.99821
774.22        75.82997
774.63        75.94034
775.05         76.2635
775.46        76.40084
775.88        76.29647
776.29        76.22744
776.70        76.22514
777.12         76.2367
777.53        76.29414
777.95        76.39095
778.36        76.50766
778.77        76.58754
779.19        76.61555
779.60        76.61398
780.02        76.58912
780.43        76.57968
780.84        76.57235
781.26        76.55866
781.67        76.61037
782.09        76.65057
782.50        76.54793
782.91        77.14153
783.33        76.45947
783.74        76.51211
784.15        76.71494
784.57        76.83508
784.98        76.85982
785.39        77.07254
785.81        77.38675
786.22        77.33546
786.63        77.00518
787.04        76.92348
787.46        77.13792
787.87        77.36827
788.28        77.51372
788.70        77.55859
789.11        77.46754
789.52        77.14938
789.93        76.76862
790.35        76.84859
790.76        77.33767
791.17        77.51051
791.58        77.32743
792.00        77.31754
792.41        77.50235
792.82        77.48183
793.23        77.34184
793.65        77.46375
794.06        77.84145
794.47        78.23591
794.88        78.52891
795.29         78.4432
795.71        78.43572
796.12        78.06299
796.53         77.6001
796.94        77.43526
797.35        77.61066
797.76        77.81342
798.18        77.96647
798.59        78.13745
799.00         78.2935
799.41        78.35005
799.82        78.31611
800.23        78.27951
800.64        78.25697
801.06        78.18963
801.47        78.13913
801.88        78.13009
802.29        78.17085
802.70        78.26513
803.11        78.37066
803.52        78.40585
803.93        78.35336
804.34        78.23196
804.75        78.10699
805.17        78.07732
805.58        78.19747
805.99        78.40912
806.40        78.63338
806.81        78.74256
807.22        78.69133
807.63        78.50677
808.04        78.27766
808.45        78.16941
808.86        78.22519
809.27        78.38812
809.68        78.58635
810.09        78.70069
810.50        78.69671
810.91        78.61583
811.32        78.51566
811.73        78.50417
812.14        78.61289
812.55        78.75623
812.96        78.90108
813.37        79.11331
813.78        79.31125
814.19        79.24249
814.60        78.97781
815.01        78.85364
815.42        78.90556
815.83        78.96566
816.24        78.99522
816.65        79.00776
817.05        78.99412
817.46        78.91577
817.87          78.846
818.28        78.83759
818.69        78.89865
819.10        79.01599
819.51        79.13676
819.92        79.16441
820.33        79.07889
820.74        78.91491
821.14        78.73663
821.55        78.67809
821.96        78.74937
822.37        78.91452
822.78        79.12528
823.19        79.28943
823.60        79.37337
824.00         79.4326
824.41        79.42757
824.82        79.39284
825.23        79.34281
825.64        79.26251
826.04        79.23006
826.45        79.33496
826.86        79.59623
827.27        79.98301
827.68        80.36365
828.08        80.54863
828.49        80.41673
828.90        80.06119
829.31        79.62246
829.72         79.3446
830.12        79.32417
830.53        79.44979
830.94        79.63319
831.35        79.68044
831.75        79.56487
832.16        79.31168
832.57        79.03375
832.97        78.88109
833.38        78.89172
833.79        79.00742
834.20        79.19228
834.60        79.39606
835.01        79.60722
835.42        79.84034
835.82        80.06666
836.23        80.14554
836.64        80.08318
837.04        79.92177
837.45        79.72322
837.86        79.69907
838.26        79.90733
838.67        80.28362
839.08        80.70719
839.48        80.95607
839.89         80.9669
840.29        80.79239
840.70        80.57456
841.11         80.5443
841.51        80.77197
841.92         81.1549
842.33        81.52975
842.73        81.62419
843.14        81.32643
843.54        80.75711
843.95        80.13992
844.35        79.85394
844.76        79.97758
845.17        80.40612
845.57        80.91236
845.98         81.0757
846.38        80.81668
846.79        80.23615
847.19        79.57848
847.60        79.18544
848.00         79.1858
848.41        79.43656
848.81        79.80318
849.22        79.98881
849.62        79.94691
850.03        79.74477
850.43        79.51598
850.84        79.37672
851.24        79.42453
851.65        79.55059
852.05        79.77306
852.46        79.99007
852.86        80.15713
853.27        80.32435
853.67        80.41246
854.07        80.50227
854.48        80.55683
854.88        80.59251
855.29        80.52474
855.69        80.43389
856.10         80.2333
856.50        80.01244
856.90        79.73992
857.31        79.39578
857.71        79.04478
858.12        78.65739
858.52        78.33943
858.92        78.12344
859.33        78.00352
859.73        78.00564
860.13         78.0703
860.54        78.11623
860.94        78.14454
861.34        78.12385
861.75        78.03156
862.15        77.90122
862.55         77.7203
862.96        77.51364
863.36        77.27222
863.76        76.96939
864.17        76.61889
864.57        76.25254
864.97        76.00014
865.38         76.0409
865.78        76.44197
866.18        77.12271
866.58        77.84636
866.99        78.19671
867.39        78.09091
867.79        77.61787
868.19        77.02192
868.60        76.64018
869.00        76.55413
869.40        76.69353
869.80        76.95662
870.21        77.15607
870.61         77.2909
871.01        77.36485
871.41        77.39961
871.81        77.41733
872.22        77.39851
872.62        77.34458
873.02        77.27974
873.42        77.25495
873.82        77.28793
874.22        77.39162
874.63        77.52456
875.03        77.58338
875.43        77.56337
875.83        77.46806
876.23        77.39951
876.63        77.53046
877.03        77.87585
877.44        78.36295
877.84         78.7923
878.24        78.80287
878.64        78.33852
879.04        77.54866
879.44        76.70869
879.84        76.19362
880.24        76.08894
880.64        76.30133
881.04         76.6721
881.44        76.92411
881.84        76.96002
882.24        76.83652
882.65        76.66512
883.05        76.73669
883.45        77.05717
883.85        77.53554
884.25        77.95708
884.65        78.01838
885.05        77.68046
885.45        77.05093
885.85        76.39874
886.25        76.18067
886.65         76.5083
887.05        77.22462
887.45        78.03879
887.85        78.51303
888.25         78.5211
888.65        78.17274
889.04        77.64368
889.44         77.2665
889.84        77.13321
890.24        77.17085
890.64        77.22523
891.04        77.05938
891.44         76.6441
891.84        76.08684
892.24        75.62587
892.64        75.60969
893.04        76.10174
893.44        76.98126
893.83        77.98101
894.23        78.61619
894.63        78.77287
895.03        78.53902
895.43        78.16058
895.83        78.04953
896.23        78.30159
896.63        78.79421
897.02        79.23326
897.42        79.22865
897.82        78.71165
898.22        77.84589
898.62        76.97586
899.01         76.6742
899.41         77.0559
899.81        77.94019
900.21        78.98466
900.61        79.62521
901.00        79.67971
901.40        79.33278
901.80        78.78423
902.20        78.36457
902.59        78.20285
902.99        78.18503
903.39        78.26582
903.79        78.36998
904.18        78.45488
904.58        78.56413
904.98        78.70668
905.38        78.88898
905.77        79.09074
906.17        79.29536
906.57        79.43236
906.96        79.42021
907.36         79.2206
907.76        78.89605
908.15        78.54029
908.55        78.23217
908.95        78.04905
909.34        77.94723
909.74        77.97886
910.14        78.15504
910.53        78.45969
910.93        78.86582
911.33         79.2516
911.72        79.40638
912.12        79.27569
912.52        78.94263
912.91         78.5414
913.31        78.31227
913.70         78.2962
914.10        78.40914
914.49        78.61292
914.89        78.75684
915.29        78.80872
915.68        78.81865
916.08        78.77414
916.47        78.64687
916.87        78.46837
917.26        78.22266
917.66        78.01321
918.05         77.9735
918.45        78.11137
918.84        78.40438
919.24        78.71613
919.64        78.89938
920.03        78.93123
920.42        78.86839
920.82        78.76607
921.21        78.70013
921.61        78.69179
922.00        78.71984
922.40        78.85137
922.79        79.28696
923.19        79.97601
923.58        80.86611
923.98        81.65359
924.37        81.94359
924.77        81.64922
925.16        80.86755
925.55        79.88843
925.95        79.22749
926.34        79.05768
926.74        79.24348
927.13        79.58805
927.52        79.65637
927.92        79.37365
928.31        78.87897
928.70        78.39799
929.10        78.25063
929.49        78.50147
929.89        78.98193
930.28        79.56158
930.67        79.89546
931.07        79.86031
931.46        79.60107
931.85        79.18243
932.24        78.74232
932.64        78.35017
933.03        77.96646
933.42        77.68364
933.82        77.64452
934.21        77.87424
934.60        78.36391
934.99        78.94012
935.39        79.27338
935.78        79.31017
936.17        79.08684
936.56        78.81595
936.96         78.8672
937.35        79.35738
937.74        80.11652
938.13        80.84385
938.53        81.11305
938.92        80.84702
939.31        80.16856
939.70        79.36151
940.09        78.92538
940.49        78.97783
940.88        79.39643
941.27        79.89206
941.66        80.02156
942.05        79.69972
942.44        79.11677
942.84        78.49608
943.23        78.13879
943.62        78.17176
944.01        78.45978
944.40        78.96214
944.79         79.6061
945.18        80.28431
945.57        80.98042
945.97        81.47504
946.36        81.51383
946.75        81.04935
947.14        80.17016
947.53        79.13045
947.92         78.4023
948.31        78.15271
948.70        78.27397
949.09        78.62299
949.48        78.94805
949.87         79.1516
950.26        79.30359
950.65         79.4084
951.04         79.4639
951.43        79.48123
951.82        79.44341
952.21         79.3569
952.60        79.26654
952.99        79.18923
953.38        79.10698
953.77        79.06597
954.16        79.12894
954.55        79.28202
954.94        79.49702
955.33        79.63087
955.72        79.45011
956.11        78.90076
956.50          78.044
956.89        77.06738
957.28        76.30132
957.66        75.91317
958.05        75.86156
958.44        76.00491
958.83        76.08192
959.22        76.01142
959.61        75.80896
960.00        75.70614
960.39        76.07214
960.78        76.93387
961.16         78.1968
961.55        79.28346
961.94        79.33829
962.33        78.20695
962.72        76.23576
963.11        74.17564
963.49        73.11657
963.88           73.31
964.27        74.46397
964.66        76.07254
965.04        77.21247
965.43        77.45889
965.82         77.1149
966.21        76.53487
966.60        76.27258
966.98        76.48714
967.37        76.93482
967.76        77.38708
968.15        77.44018
968.53        76.99646
968.92        76.24711
969.31        75.44675
969.69        74.91385
970.08        74.74413
970.47        74.86637
970.86        75.25324
971.24        75.86417
971.63        76.56113
972.02        77.32857
972.40        78.11094
972.79        78.71895
973.17        79.19903
973.56        79.49825
973.95        79.65246
974.33        79.70035
974.72        79.64633
975.11        79.48286
975.49        79.21542
975.88        78.88338
976.26        78.52887
976.65        78.14632
977.04        77.76974
977.42        77.41805
977.81        77.05503
978.19        76.69331
978.58        76.45959
978.96        76.50355
979.35        76.81765
979.74        77.39089
980.12          78.075
980.51         78.4085
980.89        78.40324
981.28        78.04995
981.66        77.64045
982.05        77.72655
982.43        78.40671
982.82        79.43482
983.20        80.43321
983.59        80.65784
983.97        80.04398
984.35        78.76787
984.74        77.19708
985.12        75.99288
985.51        75.42372
985.89        75.38839
986.28        75.68616
986.66        76.08046
987.04        76.43637
987.43        76.74406
987.81        77.13567
988.20        77.71427
988.58        78.49721
988.96        79.40778
989.35        79.99043
989.73        79.66808
990.12        78.28475
990.50          75.899
990.88        73.27487
991.27        72.21426
991.65        73.30013
992.03        75.90427
992.42        78.61033
992.80        79.94263
993.18        79.54114
993.56        77.76219
993.95        75.15608
994.33        73.23699
994.71         72.9241
995.10        73.59976
995.48         74.6923
995.86        75.52067
996.24        75.96423
996.63        76.24386
997.01        76.52064
997.39        76.84754
997.77        77.23859
998.15        77.61716
998.54         77.8389
998.92        77.79859
999.30        77.50755
999.68         77.0071
1000.06         76.6214
1000.45        76.87675
1000.83        77.88738
1001.21        79.31897
1001.59        80.67581
1001.97        81.22469
1002.35        80.81927
1002.73        79.76699
1003.12        78.13024
1003.50        76.12713
1003.88         74.1915
1004.26        72.30001
1004.64         71.1943
1005.02         71.7756
1005.40        73.98891
1005.78        77.65554
1006.16        81.37765
1006.54        82.56161
1006.92        80.53523
1007.30        75.98906
1007.69        70.88631
1008.07        68.53204
1008.45        69.85732
1008.83        73.78845
1009.21        78.47485
1009.59        81.26643
1009.97        81.43945
1010.35        79.58514
1010.73        76.59289
1011.11        74.73552
1011.49         75.1382
1011.86        77.10073
1012.24        79.29483
1012.62        80.21591
1013.00        79.55624
1013.38        77.94688
1013.76        76.10635
1014.14        75.10685
1014.52        75.34118
1014.90        76.51043
1015.28        78.20901
1015.66        79.64279
1016.04        80.43835
1016.41        80.86049
1016.79        81.04307
1017.17        81.59147
1017.55        82.58386
1017.93        83.76601
1018.31        84.80246
1018.69        85.18198
1019.06        84.83662
1019.44        83.96234
1019.82         82.7793
1020.20        81.81096
1020.58        81.30007
1020.95        80.92252
1021.33        80.82739
1021.71        81.13504
1022.09        81.71032
1022.46        82.54613
1022.84        82.91187
1023.22        81.27174
1023.60        77.20699
1023.97        70.74101
1024.35        63.42398
1024.73        58.87835
