SpectraSmart Spectrum 2.9.0.0
--------- Device Information -----------
Spectrum Name :  反射率_0
Saving Time :  2024/04/27 23:51:44
Spectro-Module Model Name : SE2030-DUVN
Spectro-Module Serial Number : OS361AC55029948
Wavelength Start : 200
Wavelength End : 1025
Wavelength Unit : Wavelength(nm)
Spectrum Unit : Reflectance(%)
-----------Spectrum Setting ------------
Integration Time : 20ms
Average : 10
Boxcar : 0
Background removal :  enabled
linearity correction :  enabled
SC :  disabled
Intensity correction :  disabled
DWT denoise :  enabled
savitzky-golay :  disabled
FFT :  disabled
Running average :  disabled
Kalman :  disabled
High pass :  disabled
---------------BEGIN--------------------
Wavelength(nm)             Reflectance(%)
200.29               0
200.75       -16.36596
201.21        20.27657
201.67        50.17003
202.13        58.16975
202.58          51.431
203.04        37.62661
203.50         25.8413
203.96        28.31019
204.42        43.53713
204.88        63.39066
205.34        80.66257
205.80        90.10019
206.26        91.77303
206.72         86.4865
207.18        73.46913
207.64        60.89766
208.10        58.72384
208.55        63.47685
209.01        66.56061
209.47        63.56371
209.93        51.94753
210.39         20.7458
210.85       -74.80053
211.31       -196.1878
211.77       -62.20197
212.23        28.65167
212.69         60.7309
213.14        69.75684
213.60        67.50754
214.06        56.73717
214.52        35.08226
214.98         16.0131
215.44        18.21043
215.90        29.62827
216.36        40.63459
216.81        48.41384
217.27        53.74503
217.73        58.65886
218.19        62.42154
218.65        62.90319
219.11        59.55482
219.57        52.56134
220.02        42.96349
220.48        35.92654
220.94        33.83089
221.40        35.37539
221.86        39.45717
222.32        44.69677
222.77        50.10162
223.23        55.28722
223.69        59.10486
224.15        60.22189
224.61        58.74591
225.06        55.00065
225.52        50.21815
225.98        46.84103
226.44        45.75497
226.90        45.91296
227.36        46.33081
227.81        46.08861
228.27        45.02444
228.73        43.38806
229.19        41.19808
229.65        38.66011
230.10        36.08231
230.56        33.85701
231.02        32.11283
231.48        31.07338
231.93        30.69841
232.39        30.94661
232.85        31.88248
233.31        33.60138
233.77        35.92676
234.22        38.75667
234.68        41.38177
235.14        43.07146
235.60        43.75606
236.05        43.48614
236.51        43.09704
236.97        44.20378
237.43        47.23408
237.88         51.7622
238.34        56.07475
238.80        58.71551
239.26        59.49096
239.71        58.43525
240.17        56.02113
240.63        56.08056
241.08        60.92984
241.54        66.95499
242.00        71.49605
242.46        74.27364
242.91        76.27636
243.37        78.23451
243.83        80.88674
244.28        83.60345
244.74         82.7214
245.20        78.97176
245.66        75.19918
246.11        71.46045
246.57        66.51151
247.03        59.16955
247.48        49.67247
247.94        45.59505
248.40        53.35058
248.85        67.70068
249.31        81.12454
249.77        87.99091
250.22        89.34338
250.68        87.92728
251.14        86.20193
251.59        86.43645
252.05        89.16687
252.51        94.12476
252.96        100.5465
253.42         104.381
253.88        102.5704
254.33        97.73275
254.79        93.29319
255.25        90.05377
255.70        87.59081
256.16        86.00562
256.62        85.24406
257.07        85.46203
257.53        86.62866
257.99        87.76088
258.44        88.07196
258.90        87.46177
259.35        85.66644
259.81        83.62334
260.27        81.33396
260.72        78.91473
261.18        76.93576
261.63        74.99238
262.09        73.50902
262.55        72.42445
263.00        71.54169
263.46        70.96766
263.91        70.32052
264.37        69.54655
264.83        68.53651
265.28        67.31753
265.74        66.10594
266.19        64.87343
266.65        63.72468
267.11        62.58447
267.56        61.39153
268.02        60.18684
268.47        58.93688
268.93        57.67612
269.38        56.47106
269.84        55.45724
270.30        54.63206
270.75        53.94428
271.21        53.23847
271.66        52.21408
272.12        50.85949
272.57        49.24173
273.03        47.61739
273.48        46.28978
273.94        45.39146
274.39        44.75762
274.85        44.28242
275.31        43.70663
275.76        42.94265
276.22        42.11937
276.67        41.24372
277.13        40.44635
277.58        39.69925
278.04        39.02612
278.49        38.35307
278.95        37.72009
279.40        37.06675
279.86        36.45601
280.31         35.8731
280.77        35.43096
281.22        35.08296
281.68        34.85517
282.13        34.62153
282.59        34.27765
283.04         33.7896
283.50        33.22742
283.95        32.70044
284.41        32.42914
284.86        32.42578
285.32        32.63763
285.77        32.90009
286.22        33.02837
286.68        32.99581
287.13        32.81684
287.59        32.62639
288.04        32.54246
288.50        32.62503
288.95         32.7958
289.41        32.97934
289.86        33.00583
290.32        32.88844
290.77        32.69466
291.22        32.56464
291.68        32.68996
292.13        33.10648
292.59        33.77867
293.04         34.6244
293.50         35.5422
293.95        36.48448
294.40        37.49649
294.86        38.60675
295.31          39.848
295.77        41.23853
296.22        42.73496
296.68        44.32622
297.13        45.96755
297.58        47.63087
298.04        49.31263
298.49        50.98777
298.95        52.67911
299.40        54.39029
299.85        56.13451
300.31        57.94097
300.76        59.78702
301.21        61.66724
301.67        63.60012
302.12        65.51582
302.58        67.41353
303.03        69.25716
303.48        71.07492
303.94        72.96442
304.39        74.97736
304.84        77.14184
305.30        79.43264
305.75        81.69424
306.20        83.79574
306.66        85.72964
307.11         87.4919
307.57        89.19669
308.02        90.88816
308.47        92.60577
308.93        94.32542
309.38        95.97372
309.83        97.55784
310.29        99.09567
310.74        100.5721
311.19        101.9903
311.65        103.3175
312.10        104.5087
312.55        105.5725
313.00        106.5478
313.46         107.512
313.91        108.4673
314.36        109.4139
314.82        110.2986
315.27         111.027
315.72        111.5837
316.18        112.0183
316.63        112.3925
317.08        112.8447
317.53        113.4078
317.99        114.0337
318.44        114.6652
318.89        115.1808
319.35        115.5452
319.80        115.8068
320.25        116.0065
320.70        116.2182
321.16        116.4566
321.61        116.7187
322.06        116.9901
322.51        117.2615
322.97        117.5072
323.42        117.7728
323.87        118.0317
324.32        118.2594
324.78        118.4359
325.23        118.6139
325.68        118.7903
326.13        118.9945
326.59        119.2108
327.04         119.485
327.49        119.8049
327.94        120.1899
328.39        120.6384
328.85        121.1051
329.30        121.6274
329.75         122.084
330.20        122.4465
330.66        122.6977
331.11        122.9521
331.56         123.271
332.01        123.6882
332.46        124.1825
332.92        124.6621
333.37        125.1423
333.82        125.5426
334.27        125.8786
334.72        126.1918
335.17        126.5505
335.63        126.9454
336.08        127.4222
336.53        127.8973
336.98         128.285
337.43        128.5685
337.88        128.7738
338.34        128.9695
338.79        129.3289
339.24        129.8648
339.69         130.539
340.14          131.24
340.59        131.7827
341.05        132.1326
341.50        132.3655
341.95        132.5889
342.40        132.9923
342.85        133.6154
343.30         134.367
343.75        135.1723
344.20        135.9164
344.66         136.544
345.11          137.08
345.56        137.4637
346.01        137.5969
346.46        137.4941
346.91        137.2041
347.36        136.8928
347.81        136.8157
348.26        137.0279
348.72        137.4619
349.17        137.9729
349.62        138.3456
350.07        138.5012
350.52        138.4876
350.97         138.363
351.42        138.2238
351.87        138.1044
352.32        137.9796
352.77        137.8007
353.22        137.5026
353.67        137.0769
354.13        136.5576
354.58        136.0172
355.03        135.6306
355.48        135.4158
355.93        135.3151
356.38        135.1554
356.83        134.6664
357.28        133.8055
357.73        132.6774
358.18        131.4733
358.63        130.4854
359.08        129.7944
359.53          129.32
359.98        128.9393
360.43        128.4585
360.88        127.8103
361.33        127.0353
361.78        126.2149
362.23        125.4685
362.68        124.8154
363.13        124.2299
363.58        123.5922
364.03        122.6152
364.48        121.4567
364.93        120.0781
365.38        118.7051
365.83        117.5988
366.28        116.8235
366.73        116.2882
367.18        115.8786
367.63        115.4121
368.08        114.8191
368.53        114.1499
368.98        113.4087
369.43        112.6037
369.88        111.7522
370.33        110.8432
370.78        109.9299
371.23        109.1092
371.68        108.4057
372.13        107.8049
372.58        107.2585
373.03        106.6774
373.48        106.0368
373.93        105.3619
374.38        104.6849
374.83         104.054
375.28        103.4793
375.72        102.9212
376.17        102.3855
376.62        101.8133
377.07        101.1921
377.52        100.5267
377.97        99.85931
378.42        99.25496
378.87        98.72846
379.32        98.27502
379.77        97.82034
380.22        97.24368
380.67        96.53006
381.11        95.72169
381.56        94.94104
382.01        94.40473
382.46        94.15865
382.91        94.12817
383.36        94.15598
383.81        93.99464
384.26         93.5828
384.71         92.9998
385.15        92.33871
385.60        91.81196
386.05        91.45239
386.50        91.19088
386.95        90.97775
387.40        90.74731
387.85        90.47193
388.29        90.12331
388.74        89.79344
389.19        89.39441
389.64        88.91815
390.09        88.36263
390.54        87.77375
390.98         87.2281
391.43        86.81797
391.88        86.49138
392.33        86.19218
392.78        85.97717
393.23        85.81675
393.67         85.3684
394.12        84.81687
394.57        85.03754
395.02        84.98836
395.47        85.06831
395.91         84.9332
396.36        84.83255
396.81        84.74682
397.26        84.53027
397.71        84.24527
398.15        83.95369
398.60        83.75443
399.05        83.66398
399.50        83.60609
399.95        83.26675
400.39        82.73328
400.84        82.46139
401.29        82.47857
401.74        82.34334
402.18        82.06889
402.63        81.96932
403.08        81.99346
403.53         81.8486
403.97        81.50773
404.42        81.09049
404.87        80.70271
405.32        80.50267
405.76        80.50362
406.21        80.67966
406.66        80.88181
407.11        80.83472
407.55        80.53616
408.00        80.15513
408.45        79.79982
408.90        79.44174
409.34        79.13685
409.79        79.02872
410.24        79.07383
410.68        79.12547
411.13        79.14767
411.58        79.20747
412.03        79.26775
412.47        79.25382
412.92         79.1268
413.37        78.92317
413.81        78.68349
414.26        78.53681
414.71        78.48554
415.15        78.51965
415.60        78.57381
416.05        78.60056
416.49        78.58681
416.94        78.54113
417.39        78.48213
417.83        78.43387
418.28        78.39341
418.73        78.32596
419.17        78.24686
419.62        78.19083
420.07        78.17364
420.51         78.1964
420.96        78.19986
421.41         78.1001
421.85         77.8746
422.30        77.41666
422.74        76.89871
423.19        77.12447
423.64        77.91218
424.08        78.15749
424.53         77.7425
424.98        77.62136
425.42        77.82304
425.87        77.65513
426.31        77.23637
426.76        77.16603
427.21        77.39725
427.65        77.56025
428.10         77.5485
428.54        77.29869
428.99        76.94801
429.44        76.96843
429.88         77.2851
430.33        77.18921
430.77        76.73221
431.22        76.89152
431.66        77.54438
432.11        77.65573
432.56         77.3182
433.00        77.52499
433.45        78.05753
433.89        78.22255
434.34        77.97692
434.78         76.9377
435.23        76.44543
435.67        76.45464
436.12        77.38262
436.57        77.74366
437.01        77.57561
437.46        77.47488
437.90         77.9818
438.35        77.99783
438.79         77.8513
439.24        77.73598
439.68        77.77637
440.13        77.87613
440.57        78.01561
441.02        78.41898
441.46        78.85478
441.91        78.60603
442.35         77.8779
442.80        77.77555
443.24         78.5479
443.69         78.7013
444.13        78.30962
444.58        78.21519
445.02        78.38393
445.47        78.36024
445.91        78.19135
446.36         78.1737
446.80        78.29378
447.24        78.53587
447.69        78.88902
448.13        78.78902
448.58        79.17303
449.02        79.03488
449.47        78.76742
449.91        78.64878
450.36         78.7388
450.80        78.83881
451.25        78.91502
451.69         78.9837
452.13         79.0131
452.58        78.95325
453.02        78.82442
453.47         78.6524
453.91        78.40272
454.36        78.31416
454.80        78.37823
455.24        77.84248
455.69        77.14851
456.13        77.75563
456.58        77.34135
457.02         77.7097
457.46        77.86436
457.91        77.57803
458.35        77.07179
458.79         76.7364
459.24        76.68769
459.68         76.6329
460.13        76.58894
460.57        76.35255
461.01        76.26609
461.46          76.223
461.90        75.98464
462.34        75.97202
462.79        76.23811
463.23        76.14947
463.68        75.81628
464.12        75.55932
464.56        75.45789
465.01        75.65791
465.45        75.92562
465.89        75.78453
466.34        75.35872
466.78        75.16522
467.22        75.16894
467.67        75.50481
468.11        74.77525
468.55        74.75122
468.99        74.97572
469.44        75.03038
469.88        74.88835
470.32        74.75539
470.77        74.67132
471.21        74.62084
471.65        74.61592
472.10        74.56725
472.54          74.596
472.98        74.53085
473.42        74.42621
473.87        74.20499
474.31        73.91756
474.75        73.96266
475.20        74.21643
475.64         74.1479
476.08        73.79675
476.52        73.59096
476.97        73.51001
477.41        73.84494
477.85        73.41375
478.29        73.47829
478.74        73.93726
479.18          73.285
479.62        73.43662
480.06        73.30749
480.50        73.49234
480.95        73.55693
481.39        73.36802
481.83        73.80454
482.27         73.8165
482.72        73.05231
483.16         73.5415
483.60         73.2191
484.04        72.81899
484.48        73.03427
484.93        73.37022
485.37        73.45125
485.81        73.32079
486.25        73.49559
486.69        73.93686
487.14        72.97308
487.58        72.78226
488.02        73.64319
488.46        73.52427
488.90        73.47952
489.34        73.20487
489.79        72.36445
490.23        73.14919
490.67        72.76859
491.11        72.58307
491.55        72.46195
491.99        72.61069
492.43         72.6812
492.88         72.6328
493.32        72.63848
493.76        72.66452
494.20        72.70921
494.64        72.78661
495.08        72.74905
495.52        72.64698
495.96        72.89502
496.41         73.3548
496.85         73.2248
497.29        72.60262
497.73        72.49126
498.17        72.79552
498.61        72.94331
499.05        72.84404
499.49        72.92831
499.93        73.14065
500.37        72.98939
500.82        72.50008
501.26        72.28886
501.70        72.56011
502.14        71.88853
502.58        72.76575
503.02        72.89541
503.46        72.70057
503.90        72.57726
504.34        72.50303
504.78        72.49334
505.22        72.48558
505.66         72.4349
506.10        72.43088
506.54        72.46585
506.98        72.38099
507.42        73.29382
507.86        72.70605
508.30        72.51674
508.74        72.81638
509.18        72.78699
509.62        72.66386
510.06        72.56265
510.50        72.52451
510.94        72.48589
511.38        72.44056
511.82        72.39393
512.26        72.34184
512.70          72.297
513.14        72.26698
513.58        72.23085
514.02        72.18617
514.46        72.18611
514.90        72.24716
515.34        72.13921
515.78        72.27675
516.22        72.31754
516.66        72.37187
517.10        72.41985
517.54        72.45805
517.98        72.46121
518.42         72.4203
518.86        72.44393
519.30        72.34877
519.74         72.3087
520.18        72.27379
520.62        72.20451
521.06        72.12989
521.50        72.16827
521.93        72.29942
522.37         72.3681
522.81        72.36407
523.25         72.3554
523.69        72.36396
524.13        72.39596
524.57        72.45358
525.01        72.52964
525.45        72.58775
525.89        72.57256
526.32          72.471
526.76        72.31799
527.20        72.15366
527.64        72.05322
528.08        72.03516
528.52        72.06776
528.96        72.12334
529.40        72.17374
529.83         72.1897
530.27        72.16394
530.71        72.09988
531.15        72.04715
531.59        72.01331
532.03        71.96436
532.46        71.91187
532.90        71.91233
533.34        71.95933
533.78          72.036
534.22        72.09767
534.66        72.07371
535.09        71.95098
535.53        71.78564
535.97        71.61057
536.41        71.50627
536.85        71.49766
537.28        71.52448
537.72        71.59308
538.16         71.7834
538.60        72.03718
539.04        72.18169
539.47        72.18407
539.91        72.18283
540.35         72.1691
540.79         72.0928
541.22        71.97318
541.66        71.87511
542.10        71.81226
542.54        71.78323
542.97         71.7677
543.41        71.76278
543.85        71.74828
544.29        71.73529
544.72        71.71185
545.16        71.68469
545.60         71.6404
546.04        71.59963
546.47        71.56384
546.91        71.49622
547.35        71.42059
547.79        71.45151
548.22        71.54039
548.66        71.55804
549.10        71.49123
549.53        71.47382
549.97        71.51582
550.41        71.53059
550.84        71.50576
551.28        71.52585
551.72        71.58583
552.15        71.53142
552.59        71.34485
553.03        71.53015
553.46        71.20488
553.90        71.22613
554.34        71.32095
554.77        71.49067
555.21        71.65244
555.65        71.70747
556.08        71.57118
556.52        71.42542
556.96        71.30364
557.39        71.35558
557.83          71.548
558.27        71.55528
558.70        71.36649
559.14        71.27908
559.57        71.28728
560.01        71.17068
560.45        70.97581
560.88        71.01396
561.32        71.25604
561.75        71.27567
562.19        71.12271
562.63         71.0658
563.06        71.12806
563.50        71.23245
563.93        71.31816
564.37         71.3558
564.80         71.3131
565.24        71.27542
565.68        71.26202
566.11         71.2515
566.55        71.27561
566.98        71.34749
567.42        71.44398
567.85        71.41631
568.29        71.35652
568.72        71.24689
569.16        71.37386
569.60        71.45217
570.03        71.56496
570.47        71.37212
570.90        71.39341
571.34        71.61407
571.77        71.67062
572.21         71.2941
572.64        71.79205
573.08        71.21523
573.51        70.97533
573.95         71.4858
574.38        71.57446
574.82        71.38736
575.25        71.40336
575.69         71.2623
576.12        71.19559
576.56        71.71857
576.99        71.52168
577.42        71.37742
577.86        71.50885
578.29        71.63345
578.73        71.50212
579.16        71.53498
579.60        71.55436
580.03         71.4894
580.47        71.18148
580.90        71.80964
581.33        71.63359
581.77        71.83191
582.20        71.58975
582.64        71.91537
583.07        71.35842
583.51        71.20653
583.94        71.31808
584.37        71.56757
584.81        71.88612
585.24        71.76821
585.68        71.37526
586.11         71.4549
586.54        71.57217
586.98        71.31165
587.41        71.66682
587.85        71.46358
588.28        71.40899
588.71        71.12579
589.15        71.81937
589.58        71.02406
590.01        71.57474
590.45        71.58417
590.88        70.97848
591.31        70.91036
591.75        71.11586
592.18        71.06409
592.61        70.88995
593.05        71.29576
593.48        71.69498
593.91        71.26802
594.35        71.24069
594.78        71.37249
595.21        70.91276
595.65        70.99092
596.08        71.07847
596.51        71.69559
596.94        71.00117
597.38        70.81975
597.81         71.4062
598.24        71.10793
598.68        71.15549
599.11        71.29615
599.54        71.67945
599.97        71.25556
600.41        71.33567
600.84        71.13289
601.27        71.00616
601.70        71.04133
602.14        70.59624
602.57        70.90797
603.00        70.92644
603.43        71.27628
603.87        71.28815
604.30         70.9726
604.73        71.18888
605.16        71.17398
605.60        71.33986
606.03        71.53598
606.46        71.77133
606.89        71.46091
607.32        71.33089
607.76        71.67115
608.19        71.27947
608.62        71.27946
609.05        71.31557
609.48        71.21837
609.92        70.88365
610.35        71.44325
610.78         71.1947
611.21        70.76861
611.64        71.18807
612.07        71.16501
612.50        71.13362
612.94        71.13853
613.37        71.24657
613.80        70.90852
614.23        71.43604
614.66        70.80026
615.09        71.24715
615.52        71.20165
615.96        71.25237
616.39        70.98895
616.82        71.16847
617.25        71.08105
617.68        71.16527
618.11        71.01621
618.54        70.81332
618.97        71.01812
619.40        71.51891
619.84         71.5846
620.27        71.58206
620.70        71.29504
621.13        70.88096
621.56        71.18478
621.99         70.9189
622.42        70.82265
622.85        71.03831
623.28        71.00595
623.71        70.91373
624.14        70.77816
624.57        70.75239
625.00        71.29636
625.43        70.76721
625.86        70.95638
626.29        71.37221
626.72        70.94955
627.15        71.16338
627.58        70.80385
628.01        71.00463
628.44         70.4882
628.87        70.49921
629.30         71.0918
629.73        70.94721
630.16        70.78212
630.59        70.95262
631.02         70.9901
631.45        71.07943
631.88        71.10582
632.31        71.10186
632.74        70.75475
633.17        70.80309
633.60        70.72279
634.03         70.7346
634.46        70.81424
634.89        70.92635
635.32        70.98246
635.75        70.95334
636.18        70.90451
636.61        70.85597
637.04        70.75849
637.47        70.66618
637.89        70.76603
638.32        70.98752
638.75        71.09255
639.18        71.05345
639.61        70.99167
640.04        70.94503
640.47        70.93819
640.90        70.98589
641.33         71.0507
641.76        71.07175
642.18         71.1293
642.61        70.92652
643.04         70.7142
643.47        70.48905
643.90        70.38021
644.33        70.41525
644.76        70.56289
645.18        70.74791
645.61        70.83167
646.04        70.78129
646.47        70.63047
646.90        70.45713
647.33        70.38618
647.75        70.45036
648.18        70.62242
648.61        70.81419
649.04        70.87644
649.47        70.79758
649.89        70.62689
650.32        70.44644
650.75        70.47353
651.18        70.68349
651.61        70.72648
652.03        70.54816
652.46        70.54327
652.89        70.80581
653.32        70.53277
653.74        70.11034
654.17        70.94271
654.60        71.05647
655.03        70.49123
655.46        70.95199
655.88        71.39661
656.31        72.34461
656.74        72.87342
657.16        71.35844
657.59        70.54557
658.02        70.39446
658.45        71.37894
658.87        70.92727
659.30        70.80915
659.73        70.98132
660.15        70.88975
660.58        70.70059
661.01        70.69069
661.44        70.84544
661.86         70.9457
662.29        70.94405
662.72        70.86797
663.14        70.76708
663.57        70.77439
664.00        70.88628
664.42        70.90894
664.85        70.84477
665.27        70.82152
665.70         70.8315
666.13        70.80856
666.55        70.75393
666.98        70.67294
667.41        70.61143
667.83        70.63892
668.26        70.75443
668.69        70.96423
669.11        71.18466
669.54        71.25395
669.96         71.1458
670.39          70.994
670.82         70.6134
671.24         70.6812
671.67        71.04539
672.09        71.23293
672.52        71.19479
672.94        71.11362
673.37        71.02703
673.80        70.92009
674.22        70.83667
674.65        70.74728
675.07        70.69043
675.50          70.715
675.92        70.79927
676.35        70.84368
676.77        70.83684
677.20        70.80928
677.62        70.79067
678.05        70.80498
678.47         70.8578
678.90        70.94476
679.32        71.03339
679.75        71.09014
680.17        71.10645
680.60        71.10416
681.02         71.0862
681.45         71.0619
681.87        71.05492
682.30        70.97498
682.72        70.87851
683.15         71.0367
683.57        71.37778
684.00        71.40115
684.42        71.15493
684.85         71.1198
685.27        71.29901
685.70        71.45527
686.12        71.53545
686.54        71.52072
686.97        71.42406
687.39        71.44331
687.82        71.56617
688.24        71.44571
688.66        71.41911
689.09        71.31216
689.51        71.26779
689.94        71.24614
690.36        71.26139
690.78         71.3159
691.21        71.37777
691.63        71.38763
692.06        71.34149
692.48        71.26244
692.90        71.18025
693.33        71.13013
693.75        71.12256
694.17        71.14175
694.60        71.18163
695.02        71.24596
695.44        71.31139
695.87        71.43452
696.29        71.56786
696.71        71.50816
697.14        71.28732
697.56        71.24373
697.98        71.36382
698.41        71.41823
698.83        71.38335
699.25        71.41783
699.68        71.50724
700.10        71.60525
700.52        71.68907
700.94        71.77556
701.37        71.80944
701.79        71.74088
702.21        71.55169
702.64        71.28228
703.06        71.00648
703.48        70.86311
703.90        70.88722
704.33        71.02863
704.75         71.2359
705.17        71.39829
705.59        71.47825
706.01         71.4809
706.44        71.42851
706.86        71.49355
707.28        71.49229
707.70        71.54994
708.12        71.60549
708.55        71.66024
708.97        71.69505
709.39        71.69682
709.81         71.6736
710.23        71.66473
710.66        71.67317
711.08        71.69481
711.50        71.70002
711.92        71.67429
712.34        71.61814
712.76        71.54031
713.19         71.4601
713.61        71.45829
714.03        71.52798
714.45        71.64749
714.87        71.78913
715.29        71.91029
715.71        71.99394
716.13        72.04856
716.56        72.05499
716.98        72.06098
717.40          72.052
717.82        72.02926
718.24        72.00318
718.66        71.99252
719.08         72.0019
719.50        72.02323
719.92        72.06226
720.34        72.12491
720.76        72.20454
721.19        72.28915
721.61          72.356
722.03        72.33576
722.45        72.22115
722.87         72.0365
723.29        71.84437
723.71        71.74589
724.13        71.77193
724.55         71.8995
724.97        72.08341
725.39        72.24564
725.81        72.35641
726.23        72.42771
726.65        72.48457
727.07        72.57021
727.49         72.6903
727.91        72.82378
728.33        72.92575
728.75        72.92754
729.17        72.81978
729.59        72.63396
730.01        72.43031
730.43        72.30498
730.85        72.28101
731.27        72.32256
731.69        72.40141
732.10          72.481
732.52        72.54757
732.94        72.62128
733.36        72.66378
733.78        72.68213
734.20        72.69348
734.62        72.47771
735.04        72.25941
735.46        72.50623
735.88        73.09565
736.30        73.12764
736.72        72.65285
737.13        72.48508
737.55        72.65542
737.97        72.86217
738.39        73.00906
738.81        72.89994
739.23        72.59946
739.65        72.61279
740.06        72.88672
740.48        72.99998
740.90        72.90317
741.32        72.91977
741.74        72.96752
742.16        73.04005
742.57        73.10318
742.99        73.24301
743.41        73.39796
743.83         73.2831
744.25        72.96882
744.67        72.86273
745.08        73.00864
745.50        73.08953
745.92        73.11111
746.34         73.2741
746.75         73.5128
747.17        73.58787
747.59        73.46264
748.01        73.25983
748.42        73.06514
748.84        72.82928
749.26        72.64678
749.68        72.92056
750.09        73.47334
750.51        73.46981
750.93        72.99529
751.35        72.96997
751.76        73.35706
752.18        73.41034
752.60        73.11749
753.01         72.8978
753.43        72.79893
753.85         72.7631
754.27         72.8093
754.68        72.94625
755.10        73.13733
755.52        73.32658
755.93        73.49957
756.35        73.65141
756.77        73.73026
757.18        73.86481
757.60        74.10774
758.02        73.99307
758.43        73.51405
758.85         74.4742
759.26        74.52051
759.68        74.37398
760.10        73.83815
760.51        73.38199
760.93        74.23105
761.34        74.16702
761.76         73.8651
762.18        73.82455
762.59        74.15398
763.01        74.26779
763.42        74.18581
763.84        74.11028
764.26        74.09827
764.67        74.12041
765.09        74.16071
765.50        74.13976
765.92        74.10769
766.33        73.95322
766.75        73.63389
767.16        74.19906
767.58        73.93497
768.00        74.32302
768.41        74.76395
768.83        74.71091
769.24        74.26878
769.66        74.28902
770.07        74.69519
770.49        74.69982
770.90        74.33297
771.32        74.20287
771.73         74.3503
772.15         74.3897
772.56        74.32269
772.97        74.39541
773.39        74.54059
773.80        74.47352
774.22        74.23476
774.63        74.29451
775.05        74.59189
775.46        74.74429
775.88        74.69308
776.29        74.69975
776.70        74.79047
777.12        74.90359
777.53        75.06355
777.95        75.26878
778.36        75.47042
778.77        75.56757
779.19        75.53686
779.60        75.40842
780.02        75.25953
780.43         75.2095
780.84        75.25343
781.26        75.45736
781.67        75.78635
782.09        75.71814
782.50        75.22238
782.91        75.76167
783.33        75.35712
783.74        75.40764
784.15        75.31774
784.57        75.19453
784.98        75.11506
785.39        75.34223
785.81        75.80984
786.22        76.06937
786.63        76.06508
787.04        76.09756
787.46         76.1691
787.87         76.0565
788.28        75.83159
788.70        75.71325
789.11        75.71205
789.52        75.77763
789.93        75.87653
790.35        75.93918
790.76        75.97379
791.17        75.98885
791.58        75.99661
792.00        76.03677
792.41        76.13776
792.82        76.19502
793.23        76.25989
793.65        76.52448
794.06        76.94032
794.47        77.25219
794.88        77.37859
795.29        77.19604
795.71        77.17553
796.12        76.72749
796.53        76.16943
796.94        76.16819
797.35        76.70544
797.76        77.05743
798.18        77.09349
798.59        77.15268
799.00        77.20332
799.41        76.97174
799.82        76.56013
800.23        76.32211
800.64        76.32327
801.06        76.43721
801.47        76.63238
801.88        76.77035
802.29        76.81121
802.70        76.81446
803.11        76.79984
803.52        76.78601
803.93        76.78223
804.34         76.7626
804.75         76.7671
805.17        76.82874
805.58        76.97428
805.99        77.25962
806.40         77.5732
806.81        77.51101
807.22        77.13644
807.63        76.96471
808.04         77.0463
808.45         77.0503
808.86         76.9791
809.27        77.07431
809.68        77.28114
810.09        77.36183
810.50        77.28672
810.91        77.13592
811.32        76.97466
811.73        76.92447
812.14        77.02019
812.55        77.16093
812.96         77.3241
813.37        77.59302
813.78        77.88061
814.19        77.93085
814.60        77.75445
815.01        77.59666
815.42        77.47919
815.83        77.25446
816.24        76.97522
816.65        76.82747
817.05        76.85899
817.46        76.99418
817.87        77.19101
818.28        77.32241
818.69        77.35367
819.10        77.31545
819.51        77.26012
819.92        77.27975
820.33        77.39795
820.74        77.57596
821.14        77.74623
821.55        77.84721
821.96        77.84367
822.37        77.76177
822.78        77.65151
823.19        77.59921
823.60        77.63338
824.00        77.74973
824.41        77.85582
824.82        77.89594
825.23        77.84875
825.64         77.7394
826.04        77.63285
826.45        77.59063
826.86        77.64368
827.27         77.7714
827.68        77.91797
828.08        78.02406
828.49        77.99915
828.90        77.89997
829.31        77.78918
829.72        77.77412
830.12        77.90057
830.53        78.08344
830.94        78.26336
831.35        78.30489
831.75        78.20047
832.16        77.95198
832.57        77.65972
832.97        77.45888
833.38        77.39178
833.79         77.4257
834.20        77.53777
834.60        77.68858
835.01        77.86729
835.42        78.07409
835.82        78.29427
836.23        78.41273
836.64        78.43266
837.04        78.39363
837.45        78.28838
837.86        78.21642
838.26        78.21993
838.67         78.2655
839.08        78.35694
839.48        78.47799
839.89        78.61098
840.29        78.74824
840.70        78.88483
841.11        79.01592
841.51        79.15029
841.92        79.24857
842.33         79.2784
842.73        79.18638
843.14        78.92686
843.54        78.56297
843.95        78.19584
844.35         78.0068
844.76        78.02966
845.17        78.22282
845.57        78.50077
845.98         78.6711
846.38        78.70335
846.79        78.62042
847.19        78.49678
847.60        78.40246
848.00        78.38932
848.41        78.38915
848.81        78.41339
849.22        78.40964
849.62        78.39922
850.03        78.37575
850.43        78.35445
850.84        78.26352
851.24        78.15129
851.65        77.97832
852.05        77.85986
852.46        77.87705
852.86        78.04317
853.27        78.33017
853.67        78.58698
854.07         78.8009
854.48        78.91207
854.88        78.97728
855.29        78.90184
855.69        78.73687
856.10        78.40942
856.50        78.01328
856.90        77.60011
857.31        77.28896
857.71        77.16126
858.12        77.13507
858.52        77.21254
858.92        77.25348
859.33        77.19922
859.73         77.1291
860.13        77.01389
860.54        76.83443
860.94         76.6412
861.34        76.39484
861.75        76.14493
862.15        76.03862
862.55        76.06699
862.96        76.21121
863.36        76.35356
863.76        76.27741
864.17         75.9373
864.57        75.42072
864.97        74.89919
865.38        74.62466
865.78        74.70972
866.18        75.06242
866.58        75.51973
866.99        75.79622
867.39        75.83217
867.79        75.67953
868.19        75.47557
868.60         75.3929
869.00        75.46644
869.40        75.65935
869.80        75.89379
870.21        76.04007
870.61        76.12377
871.01        76.12681
871.41        76.09002
871.81         76.0656
872.22        76.03904
872.62        76.01815
873.02        75.99861
873.42        75.96958
873.82        75.93514
874.22        75.92584
874.63        75.94883
875.03        75.97243
875.43        76.00567
875.83        76.03786
876.23        76.11835
876.63        76.33115
877.03        76.67134
877.44        77.09026
877.84        77.46297
878.24        77.55086
878.64        77.31304
879.04        76.84151
879.44        76.31052
879.84        75.96233
880.24        75.85244
880.64        75.91776
881.04        76.07144
881.44        76.15979
881.84        76.12682
882.24        76.01056
882.65        75.84376
883.05          75.782
883.45        75.82086
883.85        75.93578
884.25        76.04733
884.65        76.04533
885.05        75.91383
885.45         75.6759
885.85         75.4698
886.25        75.52834
886.65        75.88725
887.05        76.46611
887.45        77.02954
887.85        77.22071
888.25        76.97232
888.65        76.39393
889.04        75.72546
889.44         75.4115
889.84        75.54778
890.24        75.99314
890.64        76.53162
891.04        76.82301
891.44         76.7712
891.84        76.49577
892.24        76.11876
892.64        75.81854
893.04        75.67273
893.44        75.64651
893.83        75.73083
894.23        75.85205
894.63        76.00802
895.03        76.18935
895.43        76.44827
895.83        76.85506
896.23        77.38171
896.63        77.97701
897.02        78.43388
897.42        78.50353
897.82        78.14861
898.22        77.46889
898.62        76.72351
899.01        76.36313
899.41        76.48555
899.81        76.97245
900.21        77.60264
900.61        77.99864
901.00        78.02769
901.40        77.81781
901.80        77.47363
902.20        77.16839
902.59         76.9849
902.99        76.86415
903.39        76.79399
903.79        76.75483
904.18        76.73492
904.58        76.75415
904.98        76.85085
905.38        77.08075
905.77        77.42173
906.17         77.8434
906.57        78.21062
906.96         78.3265
907.36        78.11643
907.76        77.66242
908.15        77.11476
908.55         76.6571
908.95        76.40071
909.34        76.28281
909.74        76.31169
910.14        76.42088
910.53        76.59019
910.93        76.84108
911.33        77.11536
911.72        77.30379
912.12        77.36025
912.52        77.29372
912.91        77.19984
913.31        77.27771
913.70        77.54482
914.10        77.93604
914.49        78.31973
914.89        78.38182
915.29        78.07571
915.68        77.51154
916.08         76.8856
916.47        76.49748
916.87        76.44553
917.26        76.61661
917.66        76.92306
918.05        77.18423
918.45         77.3251
918.84        77.42538
919.24        77.44908
919.64         77.4214
920.03        77.37462
920.42        77.28398
920.82        77.19966
921.21         77.1991
921.61        77.28664
922.00        77.46808
922.40        77.70786
922.79        78.01578
923.19         78.3272
923.58        78.65875
923.98        78.91613
924.37        79.02637
924.77         78.9597
925.16        78.70991
925.55        78.37156
925.95        78.10873
926.34        77.98017
926.74        77.96272
927.13        77.97195
927.52        77.75868
927.92        77.31985
928.31        76.72906
928.70        76.23254
929.10        76.18914
929.49        76.65761
929.89        77.48462
930.28        78.43503
930.67        78.96552
931.07        78.89735
931.46        78.40711
931.85        77.71493
932.24        77.21107
932.64        77.02094
933.03        77.04423
933.42        77.18774
933.82        77.29794
934.21        77.33038
934.60        77.34676
934.99        77.41325
935.39        77.59691
935.78        77.93632
936.17        78.36651
936.56        78.77568
936.96        78.97964
937.35        78.98595
937.74        78.83409
938.13        78.62521
938.53        78.51131
938.92        78.53227
939.31        78.61964
939.70         78.7614
940.09        78.93079
940.49        79.06432
940.88        79.20528
941.27        79.24458
941.66        79.01501
942.05        78.51958
942.44        77.84575
942.84         77.1806
943.23        76.77728
943.62        76.74553
944.01        77.00945
944.40        77.50191
944.79        78.08109
945.18        78.63231
945.57        79.13246
945.97        79.46033
946.36        79.52847
946.75        79.29198
947.14         78.7705
947.53        78.04119
947.92        77.26851
948.31         76.5677
948.70        75.98387
949.09        75.55735
949.48        75.30856
949.87        75.24713
950.26        75.37434
950.65         75.7188
951.04        76.31512
951.43        77.12418
951.82        78.07894
952.21        78.98808
952.60        79.54594
952.99        79.64345
953.38        79.32959
953.77        78.76717
954.16        78.22685
954.55        77.79897
954.94        77.44772
955.33        77.09264
955.72         76.5863
956.11        75.91145
956.50        75.14681
956.89        74.46214
957.28        74.11995
957.66        74.21801
958.05        74.66077
958.44        75.23653
958.83        75.60492
959.22        75.65354
959.61        75.41689
960.00        75.10179
960.39        75.04871
960.78        75.32587
961.16        75.88422
961.55        76.33836
961.94        76.15322
962.33        75.25013
962.72        73.86911
963.11        72.54616
963.49        72.05237
963.88        72.53851
964.27        73.77324
964.66        75.29989
965.04        76.29691
965.43         76.3992
965.82        75.90022
966.21         75.1479
966.60        74.68823
966.98        74.69217
967.37        74.93506
967.76         75.3055
968.15         75.5848
968.53        75.68816
968.92        75.71761
969.31        75.67305
969.69        75.50933
970.08        75.23418
970.47        74.85069
970.86        74.53397
971.24        74.62416
971.63        75.11225
972.02        75.89344
972.40        76.74567
972.79        77.22301
973.17        77.33208
973.56        77.12518
973.95        76.80005
974.33        76.66952
974.72        76.81965
975.11        77.13353
975.49        77.46972
975.88        77.63281
976.26        77.56739
976.65        77.32244
977.04        76.94977
977.42         76.5099
977.81        76.00529
978.19        75.43276
978.58        74.97824
978.96        74.90852
979.35        75.24484
979.74        75.94344
980.12        76.81786
980.51        77.32472
980.89        77.44624
981.28        77.21916
981.66        76.85724
982.05         76.7864
982.43        77.10178
982.82        77.58389
983.20        78.10133
983.59        78.28421
983.97        78.13283
984.35        77.74314
984.74         77.1308
985.12        76.32978
985.51        75.43964
985.89        74.52937
986.28        73.85227
986.66        73.82615
987.04        74.45376
987.43        75.57826
987.81        76.87275
988.20        77.65999
988.58        77.75193
988.96        77.26138
989.35        76.39227
989.73        75.57747
990.12        74.92235
990.50        74.35381
990.88         73.8093
991.27        73.22112
991.65        72.66006
992.03        72.28082
992.42        72.15067
992.80        72.55907
993.18        73.41642
993.56        74.68744
993.95        76.17487
994.33        77.04559
994.71        76.98402
995.10        76.25762
995.48        75.31068
995.86        74.47298
996.24        73.78608
996.63        73.06931
997.01        72.55918
997.39        72.67106
997.77         73.4868
998.15        74.85349
998.54        76.19126
998.92        76.71645
999.30        76.28967
999.68        75.11911
1000.06        73.63412
1000.45        72.65749
1000.83        72.56135
1001.21        73.02872
1001.59        73.80642
1001.97        74.50364
1002.35        75.01804
1002.73        75.59542
1003.12        76.07024
1003.50        75.95676
1003.88        75.24969
1004.26        74.00667
1004.64        72.96854
1005.02        73.12611
1005.40        74.54706
1005.78        77.01785
1006.16        79.52865
1006.54        80.21784
1006.92        78.61706
1007.30        75.27917
1007.69        71.63144
1008.07         70.0015
1008.45        71.03568
1008.83        73.90598
1009.21        77.26732
1009.59        79.20108
1009.97          79.163
1010.35        77.60109
1010.73        75.00807
1011.11        72.78252
1011.49        71.81406
1011.86        71.83111
1012.24        72.34512
1012.62        72.90619
1013.00        73.32896
1013.38        73.84229
1013.76        74.45518
1014.14         75.0957
1014.52        75.71524
1014.90        76.19071
1015.28        76.45238
1015.66        76.45805
1016.04        76.21056
1016.41        75.89801
1016.79        75.33549
1017.17        74.58951
1017.55        73.73561
1017.93        72.83856
1018.31        72.23708
1018.69          72.425
1019.06        73.55413
1019.44        75.56723
1019.82        77.94753
1020.20        79.53934
1020.58        79.81068
1020.95        78.88033
1021.33        77.52116
1021.71        76.73244
1022.09        76.67686
1022.46        77.11223
1022.84        77.37211
1023.22        76.09189
1023.60        72.86047
1023.97        67.70223
1024.35        62.07949
1024.73         59.0739
