SpectraSmart Spectrum 2.9.0.0
--------- Device Information -----------
Spectrum Name :  反射率_0
Saving Time :  2024/04/27 23:38:53
Spectro-Module Model Name : SE2030-DUVN
Spectro-Module Serial Number : OS361AC55029948
Wavelength Start : 200
Wavelength End : 1025
Wavelength Unit : Wavelength(nm)
Spectrum Unit : Reflectance(%)
-----------Spectrum Setting ------------
Integration Time : 20ms
Average : 10
Boxcar : 0
Background removal :  enabled
linearity correction :  enabled
SC :  disabled
Intensity correction :  disabled
DWT denoise :  enabled
savitzky-golay :  disabled
FFT :  disabled
Running average :  disabled
Kalman :  disabled
High pass :  disabled
---------------BEGIN--------------------
Wavelength(nm)             Reflectance(%)
200.29               0
200.75         56.9926
201.21        61.96054
201.67        65.45943
202.13        66.46531
202.58        65.74114
203.04        65.00266
203.50        64.13171
203.96        62.98246
204.42        62.02107
204.88        61.21762
205.34        61.59971
205.80        64.79829
206.26        71.45789
206.72        82.97501
207.18        99.51065
207.64        108.6909
208.10        101.6658
208.55        88.50412
209.01        77.34576
209.47        69.51085
209.93        61.94381
210.39        48.09003
210.85        11.87774
211.31       -23.04415
211.77        34.17865
212.23        67.45619
212.69        78.35348
213.14        81.16257
213.60        79.49921
214.06        74.38605
214.52        63.59341
214.98        51.18092
215.44        47.17793
215.90        48.22257
216.36        51.96301
216.81         57.7231
217.27         64.8454
217.73        74.02306
218.19        81.99825
218.65        82.51773
219.11        73.73309
219.57        56.20374
220.02        34.88448
220.48        24.54227
220.94        30.04526
221.40         45.2029
221.86        61.28452
222.32        69.61289
222.77         70.1189
223.23        66.62132
223.69        61.83706
224.15        58.22804
224.61        56.17239
225.06        54.38929
225.52        53.05221
225.98        52.41568
226.44        52.36064
226.90        52.73145
227.36        52.97556
227.81         52.4428
228.27        51.10063
228.73        49.03731
229.19        46.33779
229.65        43.48188
230.10        40.87155
230.56        38.82495
231.02        37.41463
231.48        36.76274
231.93         36.7127
232.39        37.18866
232.85        38.09671
233.31        39.31472
233.77        40.71932
234.22        42.40455
234.68        43.78462
235.14        44.23475
235.60        43.70599
236.05        42.12297
236.51        40.60313
236.97         41.4574
237.43         45.3067
237.88        51.51207
238.34        57.52818
238.80        60.79408
239.26        60.74432
239.71         57.0523
240.17        49.87366
240.63        45.82611
241.08        50.80178
241.54        59.97216
242.00        67.74356
242.46        72.30695
242.91        74.92507
243.37        76.75926
243.83        78.75256
244.28        82.22237
244.74        85.56094
245.20        86.15137
245.66        84.16354
246.11        80.24518
246.57          73.618
247.03        62.20299
247.48        45.99052
247.94        36.27945
248.40        44.18393
248.85        63.18651
249.31        81.14774
249.77         88.2569
250.22        86.53061
250.68         80.9363
251.14         75.7567
251.59        74.64926
252.05        78.00453
252.51        85.02558
252.96        94.06687
253.42        97.96714
253.88         92.5666
254.33        83.22572
254.79        75.20668
255.25        69.91959
255.70          66.659
256.16        64.88528
256.62        64.57755
257.07        65.93089
257.53        68.42854
257.99        70.87703
258.44        72.24342
258.90        72.10303
259.35        70.36849
259.81        68.06023
260.27        65.41397
260.72        62.77815
261.18        60.70872
261.63        58.86212
262.09         57.4796
262.55        56.41678
263.00          55.512
263.46        54.85197
263.91        54.30133
264.37        54.02898
264.83        53.89692
265.28        53.80175
265.74        53.58858
266.19        52.83488
266.65        51.61479
267.11        50.02354
267.56         48.3534
268.02        47.17682
268.47         46.5637
268.93        46.35146
269.38        46.26556
269.84        45.90067
270.30        45.13323
270.75        44.09946
271.21        42.91385
271.66        41.69502
272.12        40.53829
272.57        39.37763
273.03        38.29908
273.48        37.36211
273.94          36.626
274.39         36.0325
274.85        35.56748
275.31         35.1103
275.76        34.60327
276.22        34.10107
276.67        33.55088
277.13        32.98555
277.58        32.36948
278.04        31.75187
278.49        31.12287
278.95        30.58591
279.40        30.10614
279.86        29.72242
280.31        29.37163
280.77        29.07873
281.22        28.79597
281.68        28.56378
282.13        28.34661
282.59        28.14731
283.04        27.94309
283.50        27.74701
283.95        27.55746
284.41        27.41614
284.86        27.31186
285.32        27.25624
285.77        27.20902
286.22        27.14888
286.68         27.0889
287.13        27.00664
287.59        26.95447
288.04        26.93629
288.50        26.97977
288.95        27.04055
289.41        27.12091
289.86        27.17397
290.32        27.21807
290.77        27.27466
291.22        27.35262
291.68        27.45583
292.13         27.5936
292.59        27.78794
293.04        28.11062
293.50        28.69479
293.95        29.54606
294.40        30.63932
294.86        31.84789
295.31        32.96225
295.77        33.94682
296.22        34.83926
296.68        35.78473
297.13        36.98794
297.58        38.48082
298.04        40.17533
298.49         41.9022
298.95        43.45515
299.40        44.79278
299.85        46.00016
300.31        47.22976
300.76        48.66092
301.21        50.32897
301.67        52.16062
302.12        53.98708
302.58        55.64582
303.03        57.07063
303.48          58.347
303.94        59.61222
304.39        60.98914
304.84        62.53329
305.30        64.20087
305.75        65.86614
306.20         67.4234
306.66        68.86185
307.11         70.1785
307.57        71.45493
308.02        72.70304
308.47        73.94645
308.93        75.16337
309.38        76.29354
309.83        77.33781
310.29        78.31384
310.74        79.21509
311.19        80.05224
311.65        80.81628
312.10        81.47966
312.55         82.0491
313.00        82.57213
313.46        83.12971
313.91        83.72478
314.36        84.35596
314.82        84.94212
315.27         85.3443
315.72         85.5432
316.18        85.59858
316.63        85.62228
317.08        85.82607
317.53        86.25396
317.99        86.83268
318.44        87.44795
318.89        87.88873
319.35        88.09905
319.80         88.1559
320.25        88.14175
320.70        88.19849
321.16        88.36002
321.61        88.58774
322.06        88.85464
322.51        89.12967
322.97        89.37863
323.42        89.65236
323.87        89.89458
324.32        90.02473
324.78        90.02356
325.23        89.94363
325.68        89.86708
326.13        89.95805
326.59        90.23447
327.04        90.69511
327.49         91.2252
327.94        91.66257
328.39        91.95464
328.85        92.10856
329.30        92.24252
329.75        92.43479
330.20         92.7153
330.66        93.02213
331.11        93.34896
331.56        93.58519
332.01        93.71868
332.46        93.78888
332.92        93.82901
333.37        94.01899
333.82        94.35194
334.27         94.7866
334.72        95.26976
335.17        95.71441
335.63        96.06831
336.08        96.41055
336.53        96.72119
336.98        97.00494
337.43        97.28048
337.88        97.54937
338.34         97.8531
338.79        98.30891
339.24        98.91477
339.69        99.63137
340.14        100.3831
340.59        101.0444
341.05        101.5722
341.50        102.0052
341.95          102.35
342.40        102.6402
342.85        102.9003
343.30         103.117
343.75        103.3454
344.20        103.6728
344.66        104.1193
345.11        104.6707
345.56          105.23
346.01        105.6305
346.46        105.8394
346.91        105.8989
347.36        105.9454
347.81        106.1933
348.26        106.6774
348.72        107.3244
349.17        107.9632
349.62        108.3429
350.07        108.3988
350.52        108.2071
350.97        107.9182
351.42        107.7714
351.87        107.8318
352.32        108.0334
352.77        108.2498
353.22         108.286
353.67        108.1016
354.13        107.7769
354.58        107.4093
355.03        107.2143
355.48        107.2231
355.93        107.3413
356.38        107.4293
356.83        107.2753
357.28        106.8348
357.73        106.2056
358.18        105.4685
358.63        104.7403
359.08        104.0832
359.53        103.4721
359.98         102.957
360.43        102.6208
360.88        102.4465
361.33        102.3786
361.78        102.3059
362.23        102.0453
362.68        101.5412
363.13        100.8522
363.58         99.9948
364.03        99.00831
364.48         97.9455
364.93        96.83234
365.38        95.79549
365.83        95.03139
366.28        94.56961
366.73        94.34979
367.18        94.23343
367.63         93.9851
368.08        93.52899
368.53        92.92058
368.98        92.21504
369.43        91.51046
369.88        90.85266
370.33        90.22079
370.78        89.62102
371.23        89.06854
371.68        88.56725
372.13        88.11869
372.58         87.7389
373.03        87.44337
373.48        87.21431
373.93        87.02628
374.38        86.79941
374.83        86.41325
375.28         85.8479
375.72        85.13088
376.17        84.37315
376.62        83.68713
377.07        83.11134
377.52         82.6024
377.97        82.15297
378.42        81.74767
378.87        81.36919
379.32        81.03503
379.77        80.67541
380.22        80.17422
380.67        79.51923
381.11        78.74438
381.56        77.97271
382.01        77.42401
382.46         77.1554
382.91        77.10889
383.36        77.14175
383.81        77.02576
384.26        76.70267
384.71        76.23536
385.15        75.73058
385.60        75.41253
386.05        75.30628
386.50         75.3393
386.95        75.38719
387.40        75.26775
387.85        74.94926
388.29        74.45999
388.74        73.99662
389.19        73.66036
389.64         73.4646
390.09        73.33582
390.54        73.20646
390.98        72.96373
391.43        72.63779
391.88        72.26415
392.33        71.83651
392.78        71.46646
393.23        71.18493
393.67        70.65953
394.12        70.06051
394.57        70.36838
395.02         70.4235
395.47        70.42366
395.91        70.06564
396.36        69.91904
396.81        69.99181
397.26        69.96192
397.71        69.82612
398.15        69.66761
398.60        69.55685
399.05        69.42163
399.50        69.27667
399.95        69.12291
400.39        68.97471
400.84        68.85417
401.29        68.74235
401.74        68.48473
402.18        68.12533
402.63        67.87132
403.08        67.74848
403.53        67.60603
403.97        67.45047
404.42        67.40254
404.87         67.4258
405.32        67.44667
405.76        67.43288
406.21        67.33384
406.66        67.19843
407.11        67.21548
407.55        67.32896
408.00        67.31048
408.45        67.13255
408.90        66.58627
409.34        65.91605
409.79         66.0153
410.24        66.72153
410.68        66.98545
411.13        66.72537
411.58        66.54762
412.03        66.52893
412.47        66.52116
412.92        66.51841
413.37        66.57541
413.81           66.62
414.26        66.59698
414.71        66.48331
415.15         66.3189
415.60        66.14827
416.05        66.10841
416.49        66.23716
416.94         66.4776
417.39        66.76759
417.83         67.0113
418.28        67.16776
418.73        67.24315
419.17        67.26616
419.62        67.29091
420.07        67.34392
420.51        67.41354
420.96        67.46483
421.41        67.45144
421.85        67.35684
422.30        67.09512
422.74        66.79243
423.19        67.08957
423.64         67.8353
424.08        68.13452
424.53        67.88224
424.98        67.84926
425.42        68.06717
425.87         68.0036
426.31        67.74858
426.76        67.75705
427.21        68.03101
427.65        68.31237
428.10        68.50957
428.54         68.6514
428.99        68.74933
429.44        68.84022
429.88        68.89935
430.33        68.74138
430.77        68.45536
431.22         68.6224
431.66        69.14375
432.11        69.42422
432.56        69.46957
433.00         69.5254
433.45        69.48712
433.89        69.69347
434.34         70.1223
434.78        69.21777
435.23        69.22144
435.67        69.25924
436.12        70.25155
436.57        70.58663
437.01        70.49219
437.46        70.35618
437.90        70.60896
438.35        71.69166
438.79        71.24269
439.24        71.40015
439.68        71.48982
440.13        71.53015
440.57        71.53751
441.02        71.84945
441.46        72.31445
441.91         72.1572
442.35        71.53754
442.80        71.68887
443.24        72.46381
443.69        72.70458
444.13        72.37866
444.58        72.38274
445.02        72.64377
445.47         72.7841
445.91        72.76688
446.36         72.8241
446.80        72.95049
447.24        73.02206
447.69         73.0752
448.13        73.31695
448.58        73.66328
449.02        73.67686
449.47         73.4395
449.91        73.40434
450.36        73.61596
450.80        73.79442
451.25        73.90263
451.69        73.98006
452.13         74.0031
452.58        73.90802
453.02        73.74992
453.47        73.65173
453.91        73.62193
454.36        73.73531
454.80        73.90421
455.24        73.68726
455.69        73.18417
456.13        73.00453
456.58        73.30795
457.02        72.81937
457.46          73.618
457.91        73.31883
458.35        72.90251
458.79        72.64381
459.24         72.6678
459.68        72.57627
460.13        72.38988
460.57        72.37937
461.01        72.23951
461.46        72.48267
461.90        72.35329
462.34        72.50384
462.79        72.52959
463.23        72.50453
463.68        72.37614
464.12        72.12265
464.56        71.86721
465.01        71.93015
465.45        72.13889
465.89        72.21418
466.34         72.1255
466.78        71.74046
467.22        71.20678
467.67        71.27425
468.11        71.41415
468.55        71.46671
468.99         71.2732
469.44        71.26762
469.88        71.44514
470.32        71.54877
470.77        71.55118
471.21        71.53236
471.65        71.48681
472.10        71.41399
472.54        71.29105
472.98        71.15971
473.42        71.04171
473.87        70.84279
474.31        70.60072
474.75         70.7373
475.20        71.13275
475.64        71.09234
476.08        70.64752
476.52        70.57509
476.97        70.92851
477.41        70.77635
477.85        70.78081
478.29        70.95914
478.74        71.36086
479.18        70.52784
479.62        70.79601
480.06        70.64169
480.50        70.77911
480.95        70.81754
481.39        70.64858
481.83        71.26354
482.27        70.67653
482.72        70.75729
483.16        70.91042
483.60        70.33089
484.04         70.6087
484.48        70.40298
484.93        70.39906
485.37        70.53678
485.81        70.62121
486.25        71.13558
486.69        71.67297
487.14        70.61314
487.58        70.44411
488.02        70.72653
488.46         70.9178
488.90        71.16221
489.34        70.65562
489.79        70.18563
490.23        70.65868
490.67        70.52362
491.11        70.15705
491.55        70.04884
491.99        70.20174
492.43        70.25901
492.88          70.186
493.32        70.17341
493.76        70.22283
494.20        70.31094
494.64        70.44991
495.08        70.59773
495.52        70.70836
495.96        70.84731
496.41        70.95535
496.85         70.6917
497.29        70.20263
497.73        70.26357
498.17        70.71615
498.61        70.94271
499.05        70.81937
499.49        70.81355
499.93        70.83903
500.37        70.77516
500.82        70.59875
501.26        70.59045
501.70        71.14214
502.14        70.34367
502.58        70.70024
503.02        70.58618
503.46        70.42522
503.90        70.29245
504.34        70.13891
504.78        70.10033
505.22        70.13852
505.66        70.13084
506.10        70.11932
506.54        70.22524
506.98        70.41174
507.42        70.71712
507.86        70.96124
508.30        70.76213
508.74        70.94511
509.18        70.78087
509.62        70.58088
510.06         70.4297
510.50        70.36517
510.94        70.35098
511.38        70.36672
511.82        70.40002
512.26        70.43665
512.70        70.48216
513.14        70.51281
513.58          70.522
514.02        70.51431
514.46        70.42805
514.90        70.26257
515.34        70.39516
515.78         70.2524
516.22        70.28871
516.66        70.33485
517.10         70.4093
517.54        70.50044
517.98        70.61129
518.42        70.71004
518.86         70.7292
519.30        70.66122
519.74        70.52644
520.18        70.37614
520.62        70.29235
521.06        70.29636
521.50        70.36629
521.93        70.46671
522.37        70.52377
522.81        70.52106
523.25        70.47482
523.69         70.4103
524.13        70.36665
524.57        70.35387
525.01        70.35985
525.45        70.35866
525.89          70.311
526.32        70.20784
526.76        70.08208
527.20        69.96918
527.64        69.93106
528.08        69.97916
528.52        70.08796
528.96        70.22206
529.40         70.3262
529.83        70.37539
530.27        70.39777
530.71        70.39125
531.15        70.36456
531.59        70.32475
532.03        70.26598
532.46        70.19994
532.90        70.17091
533.34         70.1781
533.78        70.21286
534.22        70.24741
534.66        70.23521
535.09        70.16192
535.53        70.06895
535.97        69.96886
536.41        69.89886
536.85        69.86982
537.28        69.86652
537.72        69.89429
538.16        69.95084
538.60        70.02978
539.04        70.14617
539.47        70.23609
539.91        70.24205
540.35        70.13866
540.79         69.9594
541.22        69.76621
541.66        69.66102
542.10        69.66557
542.54        69.77458
542.97        69.91572
543.41        69.96172
543.85        69.90031
544.29        69.87746
544.72        69.89761
545.16        69.88287
545.60        69.82219
546.04        69.82336
546.47        69.86755
546.91        69.77129
547.35        69.59276
547.79         69.6575
548.22        69.88285
548.66        69.92081
549.10        69.75485
549.53        69.64295
549.97         69.6321
550.41        69.64644
550.84        69.69126
551.28        69.82549
551.72        70.00407
552.15        70.07217
552.59        70.01604
553.03        70.06476
553.46        69.89484
553.90         69.8764
554.34        69.89293
554.77        69.99993
555.21        70.16283
555.65        70.00686
556.08        69.92845
556.52         69.8362
556.96        69.83853
557.39        69.74054
557.83        69.60423
558.27         69.6379
558.70        69.80334
559.14        69.87411
559.57        69.82165
560.01        69.81621
560.45        69.82998
560.88        69.77718
561.32        69.73596
561.75        69.63474
562.19        69.55753
562.63        69.80932
563.06        70.24503
563.50        70.18893
563.93        69.70611
564.37        69.58077
564.80        69.78609
565.24        69.84315
565.68        69.73758
566.11        69.68851
566.55        69.75314
566.98        69.89705
567.42        70.08217
567.85        70.21948
568.29        70.33028
568.72        70.19191
569.16        69.86997
569.60        70.12538
570.03        70.20665
570.47        69.98059
570.90        70.07804
571.34        70.37749
571.77        70.47807
572.21        70.05973
572.64        70.42982
573.08        70.12263
573.51         69.9671
573.95        70.04388
574.38        70.40699
574.82         70.1515
575.25        70.39194
575.69        70.12364
576.12        70.22826
576.56        70.41641
576.99         70.1776
577.42        69.89178
577.86        70.08434
578.29        70.45432
578.73        70.23756
579.16        70.25189
579.60        70.11639
580.03        70.10746
580.47        70.16578
580.90        70.13306
581.33        70.13619
581.77        70.64443
582.20        70.17227
582.64        70.36466
583.07          69.979
583.51        69.94597
583.94        70.26755
584.37        70.39056
584.81        70.29311
585.24        70.42518
585.68        70.81947
586.11        70.27057
586.54        70.26311
586.98        70.00847
587.41        70.21667
587.85        70.39063
588.28        70.53197
588.71        70.18439
589.15        70.39286
589.58        70.27592
590.01        70.04518
590.45        69.99845
590.88        69.66575
591.31         69.6932
591.75         69.8354
592.18         70.0068
592.61         69.9781
593.05        69.93549
593.48        70.59024
593.91        70.13181
594.35        70.00035
594.78         70.0165
595.21        69.67226
595.65        69.91419
596.08        69.94552
596.51        70.00217
596.94        69.91608
597.38        70.02366
597.81        70.49158
598.24        69.77433
598.68        69.87992
599.11        70.21155
599.54        70.66796
599.97        70.03355
600.41        70.35043
600.84        70.38498
601.27        70.28597
601.70        70.19236
602.14        69.97338
602.57        70.16456
603.00        69.94931
603.43        70.33696
603.87        70.41534
604.30        70.06672
604.73        70.01939
605.16        70.15563
605.60        70.00629
606.03        70.32771
606.46        70.71288
606.89        70.77503
607.32        70.22443
607.76        70.38554
608.19        70.31184
608.62        70.32436
609.05        70.18846
609.48         70.2429
609.92        70.44418
610.35        70.28328
610.78        70.54442
611.21        69.90208
611.64        70.37131
612.07        70.21826
612.50         70.0153
612.94        69.90627
613.37        69.92823
613.80        69.98747
614.23        70.08381
614.66        70.02113
615.09        70.22906
615.52        70.30799
615.96        70.42649
616.39        69.84901
616.82        69.88593
617.25         69.8603
617.68         69.7883
618.11        69.87678
618.54        70.02534
618.97         70.1824
619.40        70.23399
619.84        70.54371
620.27        70.32157
620.70        70.14624
621.13        69.85715
621.56        69.80253
621.99        70.01102
622.42         69.8699
622.85        70.04667
623.28        70.23026
623.71        69.95331
624.14        69.85728
624.57        70.05776
625.00        70.00526
625.43        69.75191
625.86        69.71452
626.29        69.96214
626.72        69.51353
627.15        69.79625
627.58        69.83883
628.01        70.07387
628.44        69.83935
628.87        69.58512
629.30        69.85806
629.73        70.01886
630.16        69.51839
630.59        69.75439
631.02        69.74883
631.45        69.91264
631.88        69.99123
632.31         69.9989
632.74        69.65849
633.17         69.7068
633.60        69.66443
634.03        69.74952
634.46        69.91895
634.89        70.09882
635.32        70.14442
635.75        70.01904
636.18        69.81223
636.61        69.59248
637.04        69.38747
637.47        69.26643
637.89        69.39625
638.32        69.68749
638.75        69.83383
639.18        69.78335
639.61        69.82027
640.04        69.71481
640.47        69.66526
640.90        69.61543
641.33        69.54023
641.76        69.43723
642.18        69.48587
642.61        69.41569
643.04        69.43765
643.47         69.4691
643.90        69.50681
644.33        69.54124
644.76        69.57294
645.18         69.5937
645.61        69.57925
646.04        69.53092
646.47        69.44759
646.90        69.35378
647.33        69.31507
647.75        69.35642
648.18        69.40376
648.61        69.42295
649.04        69.56157
649.47        69.72814
649.89        69.43521
650.32        68.86896
650.75        68.88573
651.18        69.48042
651.61        69.77832
652.03        69.66736
652.46         69.5705
652.89         69.5755
653.32        69.36252
653.74        69.01353
654.17        69.58685
654.60         69.5063
655.03        69.54503
655.46        69.35474
655.88        69.73952
656.31        70.92943
656.74        72.05275
657.16        71.17619
657.59        70.34348
658.02        69.55132
658.45        69.83102
658.87        69.87153
659.30        70.30889
659.73        69.68956
660.15        69.33266
660.58        69.54649
661.01        69.72834
661.44        69.96511
661.86        69.93709
662.29        69.70135
662.72        69.75498
663.14        70.06606
663.57        70.10685
664.00        69.88445
664.42        69.76288
664.85        69.76572
665.27        69.70762
665.70        69.59755
666.13        69.53643
666.55        69.53533
666.98        69.56223
667.41        69.61366
667.83        69.67859
668.26        69.73967
668.69          69.812
669.11        69.88268
669.54        69.93028
669.96        69.95667
670.39        69.92392
670.82        69.87122
671.24        69.91826
671.67        70.03596
672.09        70.07436
672.52         70.0314
672.94        69.91297
673.37         69.7687
673.80        69.71422
674.22        69.75228
674.65        69.71369
675.07        69.61524
675.50        69.54684
675.92        69.53666
676.35        69.56334
676.77        69.63108
677.20        69.73975
677.62        69.86307
678.05        69.93707
678.47        69.94965
678.90        69.93249
679.32        69.90048
679.75        69.89269
680.17          69.914
680.60        69.95406
681.02        70.00429
681.45        70.02071
681.87        70.00404
682.30        69.98991
682.72        69.98853
683.15         69.9313
683.57        69.86705
684.00         69.9222
684.42        70.07924
684.85        70.19131
685.27        70.23627
685.70        70.28826
686.12        70.34236
686.54        70.40552
686.97        70.46117
687.39        70.43674
687.82        70.46973
688.24        70.32013
688.66        70.37367
689.09        70.31079
689.51         70.2619
689.94        70.27551
690.36          70.344
690.78        70.35252
691.21         70.3006
691.63        70.29459
692.06        70.32737
692.48        70.29018
692.90        70.20687
693.33        70.17407
693.75        70.20538
694.17        70.26719
694.60        70.31783
695.02         70.3521
695.44        70.35689
695.87        70.28416
696.29        70.19794
696.71         70.3363
697.14        70.63042
697.56        70.74177
697.98        70.66138
698.41         70.7114
698.83        70.87218
699.25        70.97431
699.68         70.9874
700.10        71.01112
700.52        71.03622
700.94        71.04243
701.37        71.01229
701.79        70.95876
702.21        70.86887
702.64        70.76284
703.06         70.6644
703.48        70.62718
703.90        70.66502
704.33        70.75709
704.75        70.86692
705.17        70.91064
705.59        70.86933
706.01        70.74153
706.44        70.58662
706.86        70.62788
707.28        70.68776
707.70        70.89509
708.12        71.12368
708.55        71.22185
708.97        71.17176
709.39        71.10001
709.81        71.04224
710.23        70.98087
710.66         70.9353
711.08        70.95972
711.50        71.00484
711.92        70.99104
712.34        70.91124
712.76        70.79331
713.19        70.69079
713.61        70.73801
714.03        70.93114
714.45        71.21845
714.87        71.51514
715.29        71.69585
715.71        71.72664
716.13        71.64488
716.56        71.47363
716.98         71.3352
717.40        71.24593
717.82        71.18825
718.24        71.16867
718.66        71.19662
719.08        71.26514
719.50        71.36962
719.92        71.49052
720.34        71.58895
720.76        71.65089
721.19        71.67706
721.61        71.66893
722.03         71.6031
722.45          71.485
722.87         71.3195
723.29         71.1687
723.71        71.13051
724.13        71.22501
724.55        71.43914
724.97        71.70153
725.39        71.82508
725.81        71.76341
726.23        71.67706
726.65        71.69348
727.07        71.38811
727.49         71.7977
727.91        72.05636
728.33        72.35406
728.75        72.48578
729.17        72.41547
729.59        72.19098
730.01        71.88986
730.43        71.69461
730.85        71.65437
731.27        71.60212
731.69        71.71539
732.10        71.81316
732.52        71.92062
732.94        72.09615
733.36        72.28078
733.78        72.31617
734.20        72.17992
734.62        72.29523
735.04        71.57867
735.46        72.14532
735.88         72.4476
736.30        72.48548
736.72        72.00834
737.13        71.93288
737.55        72.25907
737.97        72.53923
738.39        72.66095
738.81        72.48671
739.23        72.08737
739.65        71.94724
740.06        72.05624
740.48          72.042
740.90        71.87223
741.32        71.88526
741.74        71.98002
742.16         72.1111
742.57        72.23223
742.99        72.37291
743.41         72.5037
743.83        72.53837
744.25        72.48029
744.67        72.38481
745.08        72.30804
745.50        72.26563
745.92         72.2857
746.34        72.37487
746.75        72.50272
747.17        72.55162
747.59        72.49491
748.01         72.4578
748.42        72.48961
748.84        72.19956
749.26        72.30177
749.68        72.30294
750.09        72.37646
750.51        72.40302
750.93         72.3802
751.35        72.39929
751.76        72.45045
752.18        72.44959
752.60        72.39977
753.01        72.35526
753.43        72.31165
753.85        72.28928
754.27        72.29642
754.68        72.32316
755.10         72.3873
755.52        72.51566
755.93        72.71278
756.35        72.96786
756.77        73.19102
757.18          73.365
757.60        73.49173
758.02        73.28925
758.43        72.83759
758.85        73.32084
759.26        73.38592
759.68        73.41815
760.10        73.08646
760.51        72.42484
760.93        72.83804
761.34        72.31931
761.76        73.16989
762.18        73.42191
762.59        73.58158
763.01        73.43758
763.42         73.1823
763.84        73.11777
764.26        73.30297
764.67        73.73819
765.09        74.22649
765.50        74.07053
765.92        73.43348
766.33        73.19461
766.75        73.35303
767.16        73.39424
767.58        73.20895
768.00        73.23363
768.41        73.45503
768.83        73.71284
769.24        73.91142
769.66         73.8427
770.07         73.5519
770.49        73.46754
770.90        73.60713
771.32         73.6153
771.73        73.49883
772.15        73.48183
772.56        73.58694
772.97        73.68278
773.39        73.66829
773.80        73.90685
774.22        73.49857
774.63         73.6399
775.05        73.97768
775.46        74.12817
775.88         74.0219
776.29        73.94688
776.70         73.9404
777.12        73.93329
777.53        73.95636
777.95        74.00174
778.36         74.0637
778.77        74.11055
779.19        74.14496
779.60        74.19553
780.02        74.24134
780.43        74.32281
780.84        74.42554
781.26        74.39221
781.67        74.36355
782.09        74.71243
782.50        75.14815
782.91        75.75123
783.33        74.61713
783.74        74.40759
784.15        74.60394
784.57        74.56866
784.98        74.33942
785.39        74.45288
785.81        74.85809
786.22        75.08085
786.63        75.08537
787.04        75.14877
787.46        75.27757
787.87        75.29045
788.28        75.20039
788.70        75.14517
789.11        75.12614
789.52          75.012
789.93        74.87562
790.35        75.05402
790.76        75.47871
791.17        75.57355
791.58        75.32348
792.00        75.22945
792.41        75.33462
792.82        75.19743
793.23        74.93549
793.65        75.14458
794.06        75.74174
794.47        76.06764
794.88        76.06406
795.29        75.93423
795.71         76.1415
796.12        75.88565
796.53        75.42814
796.94        75.53707
797.35        76.12966
797.76        76.23302
798.18        75.83739
798.59        75.70431
799.00        75.85542
799.41        75.82529
799.82        75.64475
800.23        75.61269
800.64        75.74828
801.06        75.94171
801.47        76.15079
801.88        76.21909
802.29        76.11601
802.70        75.90613
803.11        75.66435
803.52         75.5064
803.93        75.46848
804.34        75.50696
804.75        75.62019
805.17        75.75385
805.58        75.90321
805.99        76.16692
806.40        76.44416
806.81        76.29932
807.22        75.83385
807.63        75.66704
808.04        75.82808
808.45         75.8541
808.86        75.73846
809.27        75.80057
809.68        76.01962
810.09        76.18127
810.50        76.25697
810.91        76.30086
811.32        76.33227
811.73        76.40105
812.14        76.51756
812.55        76.60519
812.96        76.63868
813.37        76.70255
813.78        76.73911
814.19        76.51566
814.60        76.12309
815.01        75.91343
815.42        75.92807
815.83        75.99857
816.24        76.10079
816.65        76.26108
817.05        76.45486
817.46        76.62541
817.87        76.77783
818.28        76.87222
818.69        76.90152
819.10          76.874
819.51        76.80057
819.92        76.71009
820.33        76.62057
820.74         76.5257
821.14        76.44606
821.55        76.44254
821.96        76.50262
822.37        76.62595
822.78        76.75281
823.19        76.76929
823.60        76.65408
824.00         76.4656
824.41        76.25037
824.82        76.18194
825.23        76.29747
825.64        76.54228
826.04        76.86984
826.45        77.16113
826.86        77.37381
827.27        77.52721
827.68        77.59862
828.08        77.58372
828.49        77.42582
828.90         77.1804
829.31        76.90368
829.72        76.69727
830.12         76.6218
830.53        76.60896
830.94        76.68227
831.35        76.83142
831.75         77.0572
832.16         77.3102
832.57        77.53084
832.97        77.57968
833.38        77.42565
833.79        77.12443
834.20        76.79022
834.60        76.59409
835.01        76.59047
835.42        76.71977
835.82          76.951
836.23        77.14104
836.64        77.26451
837.04        77.37409
837.45        77.40915
837.86         77.3717
838.26        77.28234
838.67        77.12725
839.08        76.96606
839.48        76.88493
839.89        76.90903
840.29        77.01933
840.70        77.19179
841.11        77.38676
841.51        77.59523
841.92        77.77444
842.33        77.91422
842.73          77.994
843.14        77.95863
843.54        77.85025
843.95        77.67095
844.35        77.45241
844.76        77.20865
845.17        76.94628
845.57        76.73497
845.98        76.63972
846.38        76.69926
846.79        76.87674
847.19        77.10013
847.60        77.18727
848.00         77.1199
848.41        76.90601
848.81        76.67828
849.22        76.58496
849.62        76.69857
850.03        76.93658
850.43        77.21477
850.84        77.31438
851.24        77.23766
851.65        76.99281
852.05        76.74253
852.46        76.65847
852.86        76.78976
853.27        77.07355
853.67        77.34096
854.07        77.55428
854.48        77.64635
854.88        77.68998
855.29        77.58543
855.69        77.36677
856.10        76.96369
856.50         76.4694
856.90        75.96912
857.31        75.63352
857.71        75.55698
858.12        75.65595
858.52        75.88153
858.92        76.00925
859.33        75.96113
859.73        75.82641
860.13        75.65786
860.54        75.58124
860.94        75.66843
861.34        75.82598
861.75        75.96056
862.15         76.0006
862.55        75.89566
862.96        75.70164
863.36        75.44272
863.76        75.13876
864.17        74.81606
864.57        74.49208
864.97        74.24398
865.38        74.17358
865.78        74.33649
866.18        74.67335
866.58        75.04957
866.99        75.23283
867.39        75.17924
867.79        74.91921
868.19        74.55908
868.60        74.22027
869.00        73.94506
869.40         73.7486
869.80        73.62394
870.21        73.57206
870.61        73.66055
871.01        73.80524
871.41        74.03832
871.81        74.40862
872.22        74.87505
872.62         75.4546
873.02        75.95751
873.42        76.03159
873.82        75.61821
874.22        74.86073
874.63         74.1018
875.03        73.80428
875.43        74.06221
875.83        74.71738
876.23        75.53391
876.63        76.10702
877.03        76.28831
877.44        76.18241
877.84        75.87287
878.24        75.47386
878.64        75.06873
879.04        74.64145
879.44        74.25939
879.84        74.01823
880.24        73.93128
880.64        73.99072
881.04        74.16196
881.44        74.36258
881.84          74.548
882.24        74.71196
882.65        74.80644
883.05        74.87061
883.45        74.86619
883.85        74.79804
884.25         74.6749
884.65        74.51345
885.05        74.33511
885.45        74.15144
885.85        74.01963
886.25        74.03332
886.65        74.20551
887.05        74.49722
887.45        74.82562
887.85        75.06345
888.25        75.17078
888.65        75.17676
889.04        75.09937
889.44        75.01814
889.84         74.9451
890.24        74.85967
890.64        74.78117
891.04         74.7442
891.44        74.75721
891.84        74.82931
892.24        74.92017
892.64        74.95455
893.04        74.92404
893.44        74.85323
893.83        74.83036
894.23        74.93091
894.63        75.18883
895.03        75.54935
895.43        75.92316
895.83        76.17171
896.23        76.24374
896.63        76.16819
897.02        75.98025
897.42        75.77377
897.82        75.57153
898.22        75.38716
898.62        75.19921
899.01        74.98418
899.41        74.73466
899.81        74.47549
900.21         74.3302
900.61        74.48988
901.00         74.9542
901.40        75.65686
901.80        76.35059
902.20        76.66353
902.59        76.52695
902.99        76.04149
903.39        75.43244
903.79        75.06909
904.18        75.05706
904.58        75.28825
904.98        75.64018
905.38        75.94085
905.77        76.11771
906.17        76.22818
906.57        76.27425
906.96        76.27063
907.36        76.20358
907.76        76.08862
908.15        75.92379
908.55        75.64791
908.95        75.30549
909.34        74.89954
909.74        74.59802
910.14        74.58862
910.53        74.89993
910.93        75.46032
911.33        76.04614
911.72        76.27701
912.12        76.05183
912.52         75.5074
912.91         74.8858
913.31        74.56514
913.70        74.62365
914.10        74.95969
914.49         75.4269
914.89        75.68768
915.29        75.66539
915.68        75.45489
916.08        75.24097
916.47        75.30984
916.87        75.71873
917.26        76.30797
917.66        76.89058
918.05        77.15301
918.45        77.00854
918.84         76.6021
919.24        76.01315
919.64        75.45659
920.03        75.05294
920.42        74.76314
920.82        74.62487
921.21        74.67867
921.61        74.89765
922.00        75.27563
922.40        75.76212
922.79         76.3262
923.19        76.86719
923.58        77.39832
923.98        77.74592
924.37        77.72758
924.77        77.33115
925.16        76.61148
925.55        75.84776
925.95        75.52699
926.34        75.77266
926.74        76.42279
927.13        77.23498
927.52         77.7028
927.92        77.71748
928.31         77.4306
928.70        77.00578
929.10        76.68192
929.49         76.5391
929.89        76.44268
930.28        76.45613
930.67        76.58118
931.07        76.77232
931.46        77.06369
931.85        77.28144
932.24        77.17228
932.64        76.71553
933.03        76.01426
933.42        75.28014
933.82        74.85818
934.21        74.84931
934.60        75.14813
934.99        75.65378
935.39        76.16582
935.78        76.61913
936.17        77.04147
936.56        77.36246
936.96         77.4551
937.35         77.3604
937.74        77.08602
938.13        76.74905
938.53        76.53735
938.92        76.50229
939.31        76.58792
939.70        76.77422
940.09        77.00661
940.49        77.21099
940.88        77.42814
941.27        77.57402
941.66        77.52081
942.05        77.27663
942.44        76.92014
942.84         76.5667
943.23        76.36043
943.62        76.37811
944.01        76.54295
944.40        76.90519
944.79        77.52897
945.18        78.34227
945.57         79.2784
945.97        79.99014
946.36        80.04723
946.75        79.35693
947.14        78.03426
947.53        76.48329
947.92        75.43971
948.31        75.14079
948.70        75.42767
949.09        75.93562
949.48         76.0516
949.87        75.64467
950.26        74.94468
950.65         74.2667
951.04        74.09793
951.43        74.55238
951.82         75.4186
952.21         76.4577
952.60        77.27811
952.99        77.69872
953.38        77.80778
953.77        77.63593
954.16        77.24023
954.55        76.67122
954.94        75.90887
955.33        75.04783
955.72        74.25993
956.11        73.61282
956.50        73.12629
956.89         72.7621
957.28        72.40479
957.66        72.07182
958.05         71.8103
958.44        71.69977
958.83         71.8503
959.22        72.24982
959.61        72.77277
960.00        73.35598
960.39        73.92973
960.78        74.42738
961.16        74.88568
961.55        75.06329
961.94        74.68355
962.33        73.75164
962.72        72.43521
963.11        71.12756
963.49        70.38557
963.88        70.33907
964.27         70.8569
964.66        71.70394
965.04        72.44447
965.43        72.80923
965.82        72.93023
966.21        72.92128
966.60         72.9838
966.98        73.18488
967.37        73.40841
967.76        73.56206
968.15        73.48183
968.53        73.16404
968.92        72.71248
969.31        72.30853
969.69        72.18322
970.08        72.38805
970.47        72.86613
970.86        73.56503
971.24         74.3882
971.63        75.17593
972.02        75.92094
972.40        76.57466
972.79        76.96246
973.17        77.14564
973.56        77.07092
973.95        76.84193
974.33         76.6133
974.72        76.43855
975.11        76.31828
975.49        76.16141
975.88        75.82697
976.26        75.32346
976.65        74.70145
977.04        74.15966
977.42        74.00618
977.81        74.25534
978.19        74.78014
978.58         75.4902
978.96        76.15273
979.35        76.61311
979.74        76.96713
980.12        77.13187
980.51        76.75832
980.89        75.94956
981.28        74.69436
981.66        73.47727
982.05        73.20161
982.43        74.07014
982.82        75.78619
983.20        77.72356
983.59        78.73497
983.97        78.63358
984.35        77.64171
984.74        76.24686
985.12        75.34948
985.51        75.22345
985.89        75.60629
986.28        76.11149
986.66        76.25346
987.04        75.87688
987.43        75.12794
987.81        74.26794
988.20        73.63411
988.58        73.40176
988.96        73.48277
989.35        73.54418
989.73        73.15752
990.12        72.18178
990.50        70.67478
990.88        69.18298
991.27        68.91293
991.65        70.17019
992.03        72.45253
992.42        74.65233
992.80        75.74802
993.18         75.4645
993.56         74.0274
993.95        71.91719
994.33        70.37248
994.71        70.17348
995.10        70.84804
995.48        71.83021
995.86        72.39809
996.24         72.4325
996.63        72.08356
997.01        71.72389
997.39        71.94324
997.77        72.91052
998.15        74.39275
998.54        75.65108
998.92        75.74718
999.30         74.5492
999.68        72.29013
1000.06        69.92255
1000.45        69.18306
1000.83         70.5759
1001.21        73.44843
1001.59        76.54434
1001.97        78.02155
1002.35        77.45351
1002.73        75.35972
1003.12        72.45693
1003.50        70.27676
1003.88        69.58808
1004.26        69.79273
1004.64        70.60457
1005.02        71.67845
1005.40        72.83871
1005.78         74.3548
1006.16        75.62402
1006.54        75.49312
1006.92        73.75723
1007.30        70.63306
1007.69        67.46655
1008.07        66.47958
1008.45        68.20363
1008.83         71.9163
1009.21        75.94723
1009.59         77.8691
1009.97         77.0423
1010.35        73.86001
1010.73        69.41122
1011.11        66.63702
1011.49        67.01611
1011.86        69.83905
1012.24        73.26957
1012.62        74.98967
1013.00        74.53719
1013.38        72.72198
1013.76        70.64292
1014.14        70.05823
1014.52        71.49449
1014.90        74.35566
1015.28        77.76627
1015.66        80.02654
1016.04        80.43884
1016.41        79.65622
1016.79        78.11919
1017.17        76.83398
1017.55        76.15891
1017.93        75.84001
1018.31        75.91975
1018.69        76.48956
1019.06        77.57938
1019.44        79.26338
1019.82        81.29729
1020.20        82.99383
1020.58         83.9001
1020.95        83.87856
1021.33        83.24052
1021.71        82.40745
1022.09         81.4827
1022.46        80.43097
1022.84        78.94161
1023.22        76.29483
1023.60        72.34516
1023.97        67.02087
1024.35        61.70084
1024.73        59.14042
