SpectraSmart Spectrum 2.9.0.0
--------- Device Information -----------
Spectrum Name :  反射率_0
Saving Time :  2024/04/28 00:07:52
Spectro-Module Model Name : SE2030-DUVN
Spectro-Module Serial Number : OS361AC55029948
Wavelength Start : 200
Wavelength End : 1025
Wavelength Unit : Wavelength(nm)
Spectrum Unit : Reflectance(%)
-----------Spectrum Setting ------------
Integration Time : 20ms
Average : 10
Boxcar : 0
Background removal :  enabled
linearity correction :  enabled
SC :  disabled
Intensity correction :  disabled
DWT denoise :  enabled
savitzky-golay :  disabled
FFT :  disabled
Running average :  disabled
Kalman :  disabled
High pass :  disabled
---------------BEGIN--------------------
Wavelength(nm)             Reflectance(%)
200.29               0
200.75        131.0193
201.21        119.9839
201.67        103.4644
202.13        93.02817
202.58         87.1623
203.04        82.99179
203.50        80.11727
203.96        79.00536
204.42        79.51807
204.88        81.40479
205.34        84.09035
205.80        87.36913
206.26        91.56891
206.72        97.42414
207.18        105.0809
207.64         109.331
208.10        106.1712
208.55        100.0813
209.01        94.26604
209.47         88.7265
209.93         81.1124
210.39        64.91623
210.85        18.45135
211.31       -38.51611
211.77        27.14401
212.23        70.89987
212.69        87.05561
213.14        93.64897
213.60        96.49192
214.06        98.61307
214.52        98.77944
214.98        92.62806
215.44        82.77995
215.90        74.46119
216.36        70.81316
216.81         72.3296
217.27        77.39111
217.73        85.36806
218.19        93.59876
218.65        97.14523
219.11        94.35673
219.57         85.9143
220.02        74.30647
220.48        67.56673
220.94        68.67786
221.40        74.70975
221.86        81.40848
222.32        84.52343
222.77        83.94284
223.23          81.497
223.69        78.86266
224.15        77.61346
224.61        77.88224
225.06        78.96985
225.52         80.0207
225.98        79.20492
226.44        76.73013
226.90        73.79068
227.36        71.56995
227.81        70.83429
228.27        71.40184
228.73        72.74194
229.19        74.02917
229.65        73.67263
230.10        71.25081
230.56         67.8684
231.02        64.36927
231.48        61.93484
231.93        60.77921
232.39        60.51459
232.85        61.22005
233.31        63.10467
233.77        65.86111
234.22        69.32275
234.68        72.39832
235.14        73.64467
235.60        72.88098
236.05        70.31445
236.51        67.08644
236.97         66.0246
237.43        68.17548
237.88        72.79103
238.34        77.72461
238.80        80.83012
239.26        81.61584
239.71         80.4376
240.17        76.85703
240.63        73.29207
241.08        73.07547
241.54        74.83894
242.00        76.96795
242.46        78.67333
242.91        80.35092
243.37        82.93182
243.83        88.05885
244.28        95.96633
244.74        99.79538
245.20        96.87646
245.66        92.16388
246.11        88.80298
246.57        86.13206
247.03        82.63348
247.48        78.80107
247.94        78.98692
248.40         85.6502
248.85        95.71224
249.31        103.7169
249.77        105.2332
250.22        102.0573
250.68         97.1314
251.14        92.84572
251.59         91.2077
252.05        92.37836
252.51        95.74198
252.96        100.8315
253.42         104.897
253.88        105.1216
254.33        102.8984
254.79        100.3264
255.25        97.63139
255.70        94.78167
256.16        92.41061
256.62        90.92464
257.07        90.95269
257.53         92.4249
257.99        94.03822
258.44          94.789
258.90        94.47101
259.35        92.78571
259.81        90.77933
260.27        88.47694
260.72         86.0187
261.18        84.01315
261.63         82.0127
262.09        80.45515
262.55        79.24522
263.00        78.18391
263.46        77.41701
263.91          76.588
264.37        75.71056
264.83        74.68299
265.28        73.52226
265.74        72.41172
266.19        71.24998
266.65        70.14579
267.11        69.02174
267.56        67.88885
268.02        66.90858
268.47        66.03794
268.93        65.25551
269.38        64.47001
269.84        63.58411
270.30        62.55644
270.75        61.42216
271.21        60.19069
271.66        58.81026
272.12        57.33657
272.57        55.75433
273.03        54.24211
273.48        52.96697
273.94        52.02855
274.39         51.3162
274.85        50.73689
275.31        50.02563
275.76        49.10642
276.22        48.10792
276.67         47.0844
277.13        46.26427
277.58        45.60469
278.04        45.08843
278.49        44.55129
278.95        43.91601
279.40        43.10153
279.86        42.24276
280.31        41.36543
280.77        40.65839
281.22        40.10077
281.68        39.70171
282.13        39.36678
282.59        39.05343
283.04        38.70508
283.50        38.36511
283.95        38.03429
284.41        37.77788
284.86         37.5783
285.32        37.44418
285.77        37.30793
286.22        37.13484
286.68        36.93687
287.13        36.68892
287.59        36.47121
288.04        36.31133
288.50        36.25237
288.95        36.24147
289.41        36.26223
289.86        36.22294
290.32        36.14528
290.77        36.05799
291.22        36.02012
291.68        36.10564
292.13        36.32949
292.59         36.6984
293.04        37.21687
293.50          37.922
293.95        38.79731
294.40        39.84562
294.86        41.02107
295.31        42.23854
295.77        43.48877
296.22        44.77139
296.68        46.14023
297.13        47.64716
297.58        49.29895
298.04         51.0754
298.49        52.90461
298.95        54.74253
299.40        56.57942
299.85        58.44522
300.31        60.43302
300.76        62.61589
301.21        64.98427
301.67        67.50112
302.12        69.97742
302.58        72.25113
303.03        74.26029
303.48        76.10197
303.94        77.97891
304.39        80.09225
304.84        82.51608
305.30        85.18267
305.75        87.88823
306.20        90.43842
306.66        92.79646
307.11        94.96162
307.57        97.05601
308.02        99.12166
308.47        101.1944
308.93        103.2497
309.38        105.1716
309.83        106.9231
310.29          108.53
310.74        109.9947
311.19        111.4141
311.65         112.899
312.10        114.4214
312.55        115.9378
313.00        117.3675
313.46        118.6034
313.91        119.6053
314.36        120.4363
314.82        121.1385
315.27        121.7706
315.72        122.3703
316.18        122.9524
316.63        123.5303
317.08        124.1693
317.53        124.8777
317.99        125.6237
318.44        126.3919
318.89        127.1203
319.35        127.7764
319.80        128.3832
320.25        128.8914
320.70         129.239
321.16        129.4179
321.61        129.4693
322.06        129.5042
322.51        129.7204
322.97        130.1368
323.42        130.7391
323.87        131.3714
324.32        131.7943
324.78        131.9237
325.23        131.8854
325.68        131.7647
326.13        131.7409
326.59        131.8522
327.04        132.1089
327.49        132.4635
327.94        132.8826
328.39        133.3437
328.85        133.8173
329.30        134.3656
329.75         134.879
330.20         135.327
330.66        135.6704
331.11         135.997
331.56        136.3214
332.01         136.669
332.46        137.0337
332.92        137.3522
333.37        137.7101
333.82         138.046
334.27        138.3666
334.72        138.7015
335.17        139.0948
335.63        139.5235
336.08        140.0462
336.53        140.5763
336.98         141.025
337.43        141.3739
337.88        141.6462
338.34        141.9024
338.79        142.3144
339.24        142.8918
339.69        143.5948
340.14        144.3262
340.59        144.9265
341.05        145.3597
341.50        145.6872
341.95        145.9872
342.40        146.4039
342.85        146.9706
343.30        147.6218
343.75        148.3008
344.20        148.9218
344.66        149.4477
345.11        149.8962
345.56        150.2384
346.01        150.4236
346.46        150.4637
346.91        150.3887
347.36        150.2915
347.81        150.3154
348.26        150.4915
348.72        150.7803
349.17         151.106
349.62        151.3723
350.07        151.5288
350.52        151.5879
350.97        151.5453
351.42        151.3967
351.87        151.1545
352.32        150.8329
352.77        150.4383
353.22        149.9861
353.67        149.4872
354.13        148.9457
354.58        148.3961
355.03        147.9584
355.48        147.6317
355.93        147.3745
356.38        147.0348
356.83        146.3716
357.28        145.3551
357.73        144.0889
358.18        142.7469
358.63        141.5951
359.08        140.7121
359.53        140.0224
359.98        139.4493
360.43         138.869
360.88        138.2206
361.33        137.5224
361.78        136.7701
362.23        135.9425
362.68        135.0313
363.13        134.0582
363.58         133.013
364.03        131.7415
364.48        130.5082
364.93        129.1683
365.38        127.8561
365.83        126.6554
366.28         125.592
366.73        124.6325
367.18          123.77
367.63        122.9916
368.08         122.273
368.53        121.6159
368.98        120.9321
369.43        120.0815
369.88        119.0443
370.33         117.855
370.78        116.6504
371.23        115.6654
371.68        114.9464
372.13        114.4124
372.58        113.9299
373.03        113.2763
373.48        112.3946
373.93        111.3773
374.38         110.289
374.83        109.2222
375.28        108.2269
375.72        107.2561
376.17        106.4048
376.62        105.7503
377.07        105.2834
377.52        104.9552
377.97        104.6518
378.42        104.1911
378.87        103.5334
379.32        102.7492
379.77        101.8871
380.22        101.0192
380.67        100.1831
381.11        99.36081
381.56        98.62182
382.01        98.09662
382.46         97.8038
382.91        97.70863
383.36        97.66532
383.81        97.43725
384.26        96.96564
384.71        96.30835
385.15        95.57356
385.60        95.00531
386.05        94.63818
386.50        94.40382
386.95        94.20062
387.40        93.87978
387.85         93.4141
388.29         92.8101
388.74        92.25268
389.19        91.77992
389.64        91.38992
390.09        91.02151
390.54        90.63515
390.98        90.15621
391.43        89.64472
391.88        89.15479
392.33        88.68509
392.78        88.20732
393.23        87.74693
393.67        87.22804
394.12        86.88522
394.57        86.67821
395.02        87.23136
395.47        86.96535
395.91        86.17914
396.36        85.74016
396.81        85.71219
397.26         85.5881
397.71        85.31935
398.15        85.05525
398.60        84.86724
399.05        84.59088
399.50        84.30721
399.95        84.20193
400.39         84.2203
400.84        84.17834
401.29        83.99284
401.74        83.36526
402.18        82.49973
402.63        82.20377
403.08        82.44577
403.53        82.39254
403.97        82.00761
404.42         81.8218
404.87        81.84501
405.32        81.86833
405.76        81.85836
406.21        81.84522
406.66        81.78935
407.11         81.6694
407.55         81.4642
408.00        81.11645
408.45        80.69024
408.90        80.10995
409.34         79.5432
409.79        79.52453
410.24        79.91952
410.68        80.06005
411.13        79.87591
411.58        79.73159
412.03        79.67561
412.47        79.64449
412.92        79.62407
413.37        79.63644
413.81         79.6368
414.26        79.62846
414.71        79.58776
415.15        79.54278
415.60        79.47649
416.05        79.43127
416.49         79.4239
416.94        79.42757
417.39        79.44689
417.83        79.48667
418.28        79.53171
418.73        79.56066
419.17        79.56072
419.62        79.51511
420.07        79.43707
420.51        79.34882
420.96         79.2496
421.41        79.13127
421.85        78.98472
422.30        78.71277
422.74         78.4302
423.19        78.78188
423.64        79.60267
424.08        79.99709
424.53        79.81457
424.98        79.76109
425.42        79.86034
425.87        79.62152
426.31        79.16201
426.76        78.92881
427.21        78.94364
427.65        79.03321
428.10        79.15809
428.54        79.29073
428.99        79.44503
429.44        79.76453
429.88        80.08227
430.33        79.84245
430.77        79.22703
431.22        79.04052
431.66        79.64071
432.11        79.92162
432.56        79.97527
433.00        80.14701
433.45        80.27646
433.89        80.40573
434.34        80.53143
434.78        79.98296
435.23        79.70465
435.67        80.08266
436.12        80.82154
436.57        81.00877
437.01        80.55505
437.46        80.50151
437.90        80.82373
438.35        80.74079
438.79        80.75516
439.24        80.67771
439.68        80.72178
440.13        80.82938
440.57        81.00982
441.02        81.46226
441.46        81.95984
441.91        81.88295
442.35        81.32722
442.80        81.27573
443.24        81.68747
443.69        81.93927
444.13        81.90246
444.58         82.0448
445.02        81.92605
445.47        81.78185
445.91        81.58295
446.36        81.55045
446.80        81.69034
447.24        81.94144
447.69        82.23367
448.13        82.42988
448.58        82.52581
449.02        82.41119
449.47        82.19999
449.91        82.10107
450.36        82.17439
450.80        82.28864
451.25         82.4101
451.69        82.51726
452.13        82.58772
452.58        82.50678
453.02        82.29649
453.47        82.20142
453.91        82.26642
454.36        81.89599
454.80        82.13149
455.24        81.66911
455.69        81.02159
456.13        80.47617
456.58        80.22369
457.02        80.52636
457.46        81.03699
457.91        81.06126
458.35        80.64832
458.79         80.4594
459.24        80.52312
459.68        80.38945
460.13        80.12638
460.57        79.77799
461.01         79.7503
461.46        79.84582
461.90        79.35478
462.34        79.91559
462.79        79.43166
463.23        79.26709
463.68        78.95787
464.12        78.88844
464.56        79.06039
465.01        79.25119
465.45        79.26447
465.89        79.28673
466.34        79.31042
466.78        78.71255
467.22        77.66771
467.67        78.15456
468.11        78.12855
468.55        78.26817
468.99        77.84103
469.44        77.75299
469.88        77.95422
470.32        78.01719
470.77        77.92624
471.21        77.83704
471.65        77.75282
472.10        77.64933
472.54        77.50493
472.98        77.36656
473.42          77.254
473.87        77.07664
474.31        76.85748
474.75        76.99702
475.20        77.36481
475.64        77.27663
476.08        76.79375
476.52        76.62721
476.97        76.81702
477.41        76.62004
477.85         76.8959
478.29        76.35843
478.74        76.93782
479.18        75.97071
479.62        76.72385
480.06        76.64758
480.50        76.55524
480.95        76.58141
481.39        76.67461
481.83        76.42906
482.27        76.63815
482.72        76.11488
483.16        76.29086
483.60        76.09933
484.04        75.85109
484.48        75.83439
484.93        76.31431
485.37        75.68948
485.81        76.54823
486.25        77.12749
486.69         78.0668
487.14        77.19824
487.58        76.69174
488.02        76.50154
488.46        76.34731
488.90        76.72108
489.34        75.35902
489.79         75.3791
490.23        75.80779
490.67        75.88558
491.11        75.52716
491.55        75.38662
491.99        75.49998
492.43        75.52251
492.88        75.44801
493.32        75.43821
493.76         75.4773
494.20        75.51997
494.64        75.57172
495.08        75.61993
495.52         75.6506
495.96        75.70855
496.41        75.76004
496.85        75.62643
497.29        75.35846
497.73        75.40578
498.17          75.622
498.61        75.71155
499.05        75.59466
499.49        75.53951
499.93        75.55721
500.37        75.36174
500.82         75.0436
501.26        74.86183
501.70        75.73687
502.14        74.95262
502.58        75.46769
503.02        75.25089
503.46        75.32461
503.90        75.23301
504.34         75.0839
504.78        75.05944
505.22        75.12468
505.66        75.13798
506.10        75.09573
506.54        75.08025
506.98        75.07964
507.42        75.05528
507.86        75.19861
508.30        74.92111
508.74        75.12537
509.18        75.14919
509.62        75.23711
510.06        75.10361
510.50        75.13414
510.94        75.02697
511.38        74.91759
511.82        74.85094
512.26        74.83846
512.70        74.86227
513.14        74.90678
513.58        74.92805
514.02        74.91061
514.46        74.91972
514.90        74.96533
515.34        74.79636
515.78        74.84765
516.22        74.77207
516.66        74.71974
517.10         74.7151
517.54        74.76446
517.98        74.85109
518.42        74.93901
518.86        74.98054
519.30        74.96249
519.74        74.90158
520.18        74.82243
520.62        74.76317
521.06        74.73814
521.50        74.73808
521.93        74.75833
522.37        74.77762
522.81         74.7918
523.25        74.79712
523.69        74.79678
524.13        74.79479
524.57        74.78954
525.01        74.78261
525.45        74.74847
525.89        74.64709
526.32        74.47611
526.76        74.27147
527.20        74.08951
527.64        74.02666
528.08        74.09985
528.52        74.27152
528.96        74.48351
529.40        74.64391
529.83        74.71381
530.27         74.7289
530.71        74.69389
531.15        74.62978
531.59        74.55116
532.03        74.45451
532.46        74.34993
532.90        74.27989
533.34        74.24873
533.78         74.2522
534.22        74.28097
534.66        74.31667
535.09        74.33872
535.53        74.36602
535.97        74.37895
536.41        74.36507
536.85        74.32365
537.28        74.26543
537.72        74.19416
538.16        74.10727
538.60        74.01712
539.04        73.94495
539.47        73.89703
539.91        73.92291
540.35        74.00512
540.79        74.14046
541.22        74.27956
541.66        74.35225
542.10        74.33759
542.54        74.25591
542.97        74.13729
543.41        74.07462
543.85         74.0736
544.29        74.11372
544.72        74.15369
545.16        74.16817
545.60        74.13317
546.04        74.05789
546.47        73.96765
546.91        73.92365
547.35        73.92976
547.79        73.94397
548.22        73.92204
548.66        73.89951
549.10        73.84765
549.53        73.73267
549.97        73.61137
550.41        73.60162
550.84        73.71702
551.28        73.91357
551.72        74.11889
552.15        74.19624
552.59        74.13474
553.03        74.00105
553.46        73.86457
553.90        73.68527
554.34        73.79819
554.77        73.89654
555.21        74.01841
555.65        74.05459
556.08        73.98623
556.52        73.81564
556.96        73.60059
557.39        73.47559
557.83         73.4845
558.27        73.54459
558.70        73.61417
559.14        73.66802
559.57        73.67244
560.01        73.65668
560.45        73.62314
560.88        73.59934
561.32        73.64175
561.75        73.62029
562.19        73.62021
562.63        73.65963
563.06        73.70174
563.50         73.5399
563.93        73.24738
564.37        73.18029
564.80        73.33937
565.24        73.62268
565.68        73.91301
566.11        74.03584
566.55        73.99723
566.98        73.88734
567.42        73.77895
567.85        73.71141
568.29        73.76146
568.72        73.78633
569.16        73.79556
569.60        74.14326
570.03        74.16557
570.47        74.31488
570.90        74.23495
571.34        74.62626
571.77        74.60886
572.21        74.48761
572.64        74.60453
573.08        74.47373
573.51        74.10866
573.95        74.43301
574.38        74.86021
574.82        74.48076
575.25        74.66213
575.69        74.64702
576.12        74.17333
576.56        74.53239
576.99        74.44431
577.42        74.61861
577.86        74.83249
578.29        75.00537
578.73        75.15057
579.16        75.07298
579.60        74.78185
580.03         74.5692
580.47        74.34601
580.90        75.02194
581.33        75.16396
581.77        74.89801
582.20        75.50273
582.64        75.58405
583.07        75.01471
583.51         74.5419
583.94        74.29762
584.37        74.25025
584.81        74.48844
585.24        74.50576
585.68        74.26812
586.11        74.90851
586.54        74.71444
586.98        74.35763
587.41        74.53423
587.85        74.29391
588.28         74.5463
588.71        74.42328
589.15        74.93819
589.58        74.15321
590.01        74.55687
590.45        74.83305
590.88        73.71095
591.31        73.59357
591.75        73.84017
592.18        73.71891
592.61        73.46082
593.05        73.73166
593.48        74.50484
593.91        74.38927
594.35        74.25906
594.78        74.40249
595.21        73.83669
595.65        73.94109
596.08        74.01273
596.51        74.22976
596.94        73.88531
597.38        73.82111
597.81        73.91563
598.24        74.12469
598.68        74.03131
599.11        74.01741
599.54        74.25759
599.97        74.01786
600.41        74.32664
600.84        74.31016
601.27        74.25607
601.70        73.81718
602.14        73.52517
602.57        73.80364
603.00        73.86346
603.43        74.36176
603.87        74.29922
604.30        73.86244
604.73        73.84354
605.16        73.93839
605.60        73.85093
606.03        74.08372
606.46        74.35709
606.89        74.26781
607.32        74.15045
607.76        74.20045
608.19        74.10451
608.62        73.98551
609.05         73.7862
609.48        73.78918
609.92        73.87138
610.35        73.73529
610.78        74.45582
611.21        73.57852
611.64        74.07425
612.07        74.12258
612.50        73.65915
612.94        73.63454
613.37        73.88065
613.80         73.5458
614.23        73.87934
614.66        73.92567
615.09        73.99703
615.52        74.02336
615.96        74.06987
616.39        73.53891
616.82        73.75925
617.25        73.64915
617.68        73.65099
618.11        73.48737
618.54        73.25925
618.97        73.42053
619.40        73.90376
619.84        73.72828
620.27        73.86398
620.70        73.62828
621.13        73.37218
621.56         73.4406
621.99        73.42635
622.42        73.31636
622.85        73.17892
623.28        73.11263
623.71        73.19205
624.14        72.96954
624.57        73.46239
625.00        73.54459
625.43        73.50947
625.86        73.41783
626.29        73.38002
626.72        72.94548
627.15        73.12459
627.58        73.13134
628.01        73.29618
628.44        73.07505
628.87        73.16672
629.30        73.50557
629.73        73.00889
630.16        72.78429
630.59        73.14024
631.02        73.19797
631.45        73.11144
631.88        73.09922
632.31        73.19536
632.74        72.89523
633.17        72.94778
633.60        72.87732
634.03         72.9083
634.46        72.99174
634.89        73.09763
635.32        73.14797
635.75        73.11563
636.18        73.07232
636.61        73.02695
637.04        72.90016
637.47         72.7334
637.89        72.76176
638.32        72.95348
638.75        73.00446
639.18        72.86935
639.61        73.16687
640.04        73.02061
640.47        73.07451
640.90        73.07172
641.33        73.01765
641.76        72.90914
642.18        72.94391
642.61        72.84811
643.04        72.83073
643.47         72.8147
643.90        72.81351
644.33          72.813
644.76        72.82571
645.18        72.84226
645.61        72.77063
646.04        72.60197
646.47        72.60014
646.90        72.35726
647.33        72.28382
647.75        72.28419
648.18        72.24343
648.61        72.17952
649.04        72.43134
649.47        72.85262
649.89        72.71176
650.32        72.15832
650.75        72.09474
651.18        72.53024
651.61        72.87299
652.03        72.95681
652.46        72.81696
652.89        72.62922
653.32        72.33188
653.74        72.38994
654.17        72.97303
654.60         72.8707
655.03        72.35296
655.46        72.98595
655.88        73.19696
656.31        75.51308
656.74        78.57404
657.16        77.12866
657.59        75.67802
658.02        74.09779
658.45        73.36861
658.87         73.4796
659.30        73.20979
659.73         72.7606
660.15        72.80888
660.58        72.93943
661.01        73.12843
661.44        73.14588
661.86        73.00677
662.29        72.74678
662.72        72.67102
663.14        72.77915
663.57        72.71325
664.00        72.51414
664.42        72.47534
664.85        72.61208
665.27        72.76511
665.70         72.8751
666.13        72.92866
666.55         72.9093
666.98        72.79678
667.41        72.66964
667.83         72.6634
668.26        72.79778
668.69        73.05265
669.11        73.31325
669.54        73.41187
669.96         73.3252
670.39        73.01457
670.82        72.65732
671.24        72.71915
671.67        73.15256
672.09        73.44172
672.52        73.51506
672.94        73.52543
673.37        73.49882
673.80        73.43617
674.22        73.37772
674.65        73.28549
675.07        73.20233
675.50        73.17703
675.92        73.21815
676.35        73.27357
676.77        73.33864
677.20        73.43151
677.62        73.53204
678.05        73.58129
678.47         73.5675
678.90         73.5117
679.32        73.43806
679.75        73.40421
680.17        73.42488
680.60        73.49471
681.02        73.56768
681.45        73.58485
681.87        73.55238
682.30        73.37043
682.72        73.14108
683.15         73.2873
683.57        73.72058
684.00        73.73308
684.42        73.38327
684.85        73.34793
685.27        73.63581
685.70          73.862
686.12        73.96449
686.54        74.05442
686.97        74.09535
687.39        74.06049
687.82        73.98417
688.24        73.79691
688.66        73.87682
689.09        73.86861
689.51        73.86913
689.94        73.90495
690.36        73.93997
690.78        73.78094
691.21        73.50632
691.63        73.44704
692.06        73.61276
692.48        73.76538
692.90        73.86399
693.33        73.92151
693.75        73.91524
694.17        73.89721
694.60        73.89658
695.02        73.62702
695.44        73.75972
695.87        73.68173
696.29        73.61723
696.71        73.75459
697.14         74.0033
697.56        73.99323
697.98        73.75794
698.41        73.73212
698.83        73.90681
699.25        74.06962
699.68        74.14927
700.10         74.1936
700.52        74.17707
700.94        74.09574
701.37        73.97153
701.79        73.88377
702.21        73.83446
702.64        73.82185
703.06        73.83213
703.48        73.86142
703.90        73.91198
704.33        73.98605
704.75         74.0715
705.17        74.12343
705.59        74.13184
706.01        74.07088
706.44        73.99689
706.86        74.13158
707.28        74.27563
707.70        74.58302
708.12        74.88581
708.55        74.93652
708.97        74.73214
709.39        74.50146
709.81        74.33188
710.23        74.22382
710.66        74.21803
711.08          74.384
711.50        74.62852
711.92        74.78101
712.34        74.80591
712.76        74.75107
713.19        74.66354
713.61         74.6735
714.03        74.78292
714.45        74.94183
714.87        75.09509
715.29        75.16392
715.71        75.12988
716.13        75.03104
716.56        74.87461
716.98        74.75288
717.40        74.67207
717.82        74.61957
718.24          74.625
718.66        74.73589
719.08        74.94588
719.50        75.22517
719.92        75.50217
720.34        75.67033
720.76        75.70145
721.19        75.57602
721.61        75.42404
722.03        75.24508
722.45        75.09534
722.87        74.95947
723.29        74.86865
723.71        74.86731
724.13         74.9595
724.55        75.14208
724.97        75.35397
725.39        75.48817
725.81        75.51587
726.23        75.45605
726.65        75.37042
727.07        75.36497
727.49        75.46286
727.91        75.63017
728.33        75.80047
728.75        75.86366
729.17        75.79526
729.59         75.6383
730.01        75.45966
730.43         75.3655
730.85        75.38245
731.27        75.46863
731.69        75.59414
732.10        75.71509
732.52        75.79625
732.94          75.907
733.36        76.03239
733.78        76.02354
734.20        75.85677
734.62        76.09183
735.04        75.57569
735.46        75.82056
735.88        76.29625
736.30        76.11749
736.72        75.41557
737.13         75.1853
737.55        75.49684
737.97        75.98326
738.39        76.44321
738.81         76.4939
739.23        76.16166
739.65        76.05347
740.06        76.16924
740.48        76.11312
740.90        75.86202
741.32        75.76072
741.74        75.73177
742.16        75.78543
742.57        75.88959
742.99        76.07794
743.41        76.28279
743.83         76.3267
744.25        76.20815
744.67        76.05321
745.08        75.94299
745.50        75.88277
745.92        75.91411
746.34        76.06149
746.75        76.24835
747.17        76.32613
747.59        76.26695
748.01        76.08776
748.42        75.87775
748.84        75.82942
749.26        75.93507
749.68        76.03482
750.09        76.08231
750.51        76.04149
750.93        75.96278
751.35        76.09326
751.76        76.37333
752.18        76.44568
752.60        76.29157
753.01        76.11729
753.43        75.97909
753.85        75.92647
754.27        75.98894
754.68        76.15633
755.10        76.36891
755.52        76.52673
755.93        76.60663
756.35        76.63871
756.77        76.65686
757.18        76.74538
757.60        76.92785
758.02        77.06666
758.43        77.14811
758.85        77.34671
759.26         77.5555
759.68         77.3726
760.10        77.36543
760.51        76.45114
760.93        76.82167
761.34         76.8608
761.76        76.69759
762.18        76.91669
762.59        77.33309
763.01        77.48463
763.42        77.39772
763.84        77.39786
764.26        77.53559
764.67         77.5847
765.09        77.58397
765.50        77.56725
765.92        77.51672
766.33        77.40595
766.75        77.17988
767.16        76.73739
767.58        76.22118
768.00        76.33894
768.41        77.02446
768.83        77.39397
769.24        77.35242
769.66        77.40744
770.07        77.53059
770.49        77.47049
770.90        77.28742
771.32        77.22558
771.73        77.31881
772.15        77.36261
772.56         77.3662
772.97        77.53369
773.39        77.76616
773.80        77.72285
774.22        77.43116
774.63        77.39382
775.05         77.5872
775.46        77.67413
775.88        77.61253
776.29        77.66935
776.70        77.80862
777.12        77.86327
777.53        77.83887
777.95        77.75677
778.36        77.68252
778.77        77.69753
779.19        77.81862
779.60        78.02919
780.02        78.23846
780.43        78.32932
780.84        78.25301
781.26        78.05338
781.67        77.90434
782.09        77.88697
782.50        77.90753
782.91        78.78465
783.33        78.40302
783.74        78.59904
784.15        78.71941
784.57        78.61378
784.98        78.36176
785.39        78.39177
785.81        78.66342
786.22        78.65886
786.63        78.41812
787.04        78.40393
787.46         78.6409
787.87        78.87175
788.28         79.0107
788.70        79.06051
789.11        78.99358
789.52        78.70937
789.93         78.3635
790.35         78.4746
790.76         78.9797
791.17         79.1395
791.58        78.93916
792.00        78.91502
792.41        79.08142
792.82        79.16227
793.23        79.19025
793.65        79.12625
794.06        79.11838
794.47        79.71946
794.88         80.6489
795.29        80.79217
795.71        80.58834
796.12         79.9061
796.53        79.16374
796.94        79.07529
797.35        79.61301
797.76        79.78285
798.18        79.51054
798.59        79.48408
799.00        79.68826
799.41         79.6629
799.82        79.42559
800.23        79.27287
800.64        79.23496
801.06        79.19547
801.47        79.18665
801.88        79.17964
802.29        79.17677
802.70        79.22114
803.11        79.30048
803.52         79.3746
803.93        79.42755
804.34        79.44298
804.75        79.50214
805.17        79.67076
805.58        79.96981
805.99        80.52571
806.40         81.1213
806.81        80.94456
807.22        80.15441
807.63        79.84676
808.04        80.07903
808.45         80.0681
808.86        79.80916
809.27        79.83528
809.68        80.10619
810.09        80.25058
810.50         80.2255
810.91        80.15125
811.32          80.053
811.73        79.98498
812.14        79.97183
812.55        79.92044
812.96        79.87464
813.37        80.04549
813.78         80.3787
814.19        80.57799
814.60        80.58654
815.01        80.55511
815.42        80.48003
815.83        80.23383
816.24        79.91672
816.65        79.80462
817.05        79.96385
817.46         80.2748
817.87         80.6365
818.28        80.83855
818.69        80.82707
819.10        80.66298
819.51        80.43257
819.92        80.29144
820.33        80.29324
820.74        80.38206
821.14        80.49333
821.55        80.56618
821.96        80.55888
822.37        80.50694
822.78        80.42941
823.19        80.35121
823.60        80.29346
824.00        80.27422
824.41        80.25781
824.82        80.28716
825.23        80.36426
825.64         80.4796
826.04        80.65417
826.45        80.87268
826.86        81.13157
827.27        81.42281
827.68        81.68132
828.08        81.83823
828.49        81.80469
828.90        81.63757
829.31        81.42883
829.72        81.33935
830.12         81.4357
830.53        81.62863
830.94        81.84284
831.35        81.90635
831.75        81.80088
832.16        81.53262
832.57        81.22004
832.97        81.02711
833.38        80.99733
833.79        81.08373
834.20        81.22951
834.60        81.34702
835.01        81.41929
835.42        81.46323
835.82        81.50516
836.23        81.49804
836.64        81.46992
837.04        81.44408
837.45         81.3825
837.86        81.33405
838.26        81.32426
838.67        81.33417
839.08        81.38507
839.48        81.48569
839.89        81.62948
840.29        81.80644
840.70        81.99716
841.11        82.17821
841.51         82.3523
841.92         82.4735
842.33        82.54391
842.73        82.56609
843.14        82.49392
843.54        82.37276
843.95        82.21169
844.35        82.04922
844.76         81.8951
845.17         81.7535
845.57        81.66842
845.98        81.66059
846.38        81.75719
846.79        81.92215
847.19        82.11447
847.60        82.20112
848.00        82.18037
848.41        82.05198
848.81        81.91205
849.22        81.84254
849.62        81.90811
850.03        82.04641
850.43        82.23787
850.84        82.36514
851.24        82.44919
851.65        82.45081
852.05        82.45764
852.46        82.48321
852.86        82.53651
853.27        82.63062
853.67        82.64199
854.07        82.59731
854.48        82.44597
854.88        82.23267
855.29          81.923
855.69        81.69218
856.10        81.49384
856.50        81.40265
856.90        81.33112
857.31        81.16947
857.71        80.95104
858.12        80.64989
858.52        80.42469
858.92         80.4006
859.33        80.58074
859.73        80.95854
860.13        81.35526
860.54        81.48605
860.94        81.31182
861.34         80.8736
861.75         80.3138
862.15        79.92196
862.55        79.75217
862.96        79.75544
863.36         79.8154
863.76        79.71904
864.17        79.41355
864.57        78.98466
864.97        78.60307
865.38        78.50998
865.78        78.79978
866.18         79.3678
866.58        79.97094
866.99        80.19699
867.39        79.97028
867.79        79.38844
868.19        78.71806
868.60        78.31602
869.00        78.26283
869.40        78.48605
869.80        78.83421
870.21        79.03117
870.61        79.06095
871.01        78.95601
871.41        78.82149
871.81        78.79914
872.22        78.89272
872.62        79.07484
873.02        79.29329
873.42        79.45164
873.82        79.51202
874.22         79.5196
874.63        79.51395
875.03        79.51067
875.43         79.5289
875.83        79.53629
876.23        79.55448
876.63        79.62338
877.03        79.73859
877.44        79.88985
877.84        79.98794
878.24        79.84796
878.64        79.45583
879.04        78.88516
879.44         78.3313
879.84        78.06488
880.24        78.12676
880.64        78.44135
881.04        78.83163
881.44        78.98631
881.84        78.81927
882.24        78.42072
882.65        77.93865
883.05        77.73384
883.45        77.85372
883.85        78.19306
884.25        78.60595
884.65        78.88501
885.05        78.97231
885.45        78.92713
885.85        78.82851
886.25        78.80553
886.65        78.89725
887.05         79.0619
887.45        79.20887
887.85        79.21072
888.25        79.03825
888.65        78.72278
889.04        78.38495
889.44        78.25581
889.84        78.36861
890.24         78.6687
890.64        78.96383
891.04        78.95292
891.44        78.58343
891.84         77.9543
892.24         77.3134
892.64        77.04462
893.04        77.23573
893.44         77.7795
893.83        78.44327
894.23        78.78427
894.63        78.71904
895.03         78.3581
895.43         77.9485
895.83        77.89236
896.23        78.26791
896.63        78.91982
897.02        79.56952
897.42        79.85861
897.82        79.70467
898.22        79.26012
898.62         78.7359
899.01        78.49062
899.41        78.60514
899.81        78.95722
900.21        79.43774
900.61        79.87132
901.00        80.16175
901.40        80.37846
901.80        80.45495
902.20        80.29385
902.59        79.91845
902.99        79.34763
903.39        78.75635
903.79         78.4304
904.18        78.43825
904.58        78.71783
904.98        79.12505
905.38         79.4421
905.77        79.59852
906.17        79.65545
906.57        79.66133
906.96          79.728
907.36        79.84837
907.76        79.98248
908.15        80.08334
908.55        80.00925
908.95        79.77268
909.34        79.41811
909.74        79.05943
910.14        78.79888
910.53        78.68575
910.93        78.68385
911.33        78.78089
911.72        78.94607
912.12        79.13046
912.52        79.33296
912.91        79.51394
913.31        79.66939
913.70        79.78671
914.10        79.84901
914.49        79.86856
914.89         79.8018
915.29        79.67161
915.68        79.48605
916.08        79.28649
916.47        79.13262
916.87        79.05389
917.26        79.01963
917.66        79.01072
918.05        78.94788
918.45        78.81221
918.84        78.66884
919.24        78.51485
919.64        78.43194
920.03        78.46331
920.42        78.57378
920.82        78.78003
921.21        79.10091
921.61        79.50545
922.00        79.98711
922.40        80.47278
922.79        80.92383
923.19        81.25486
923.58        81.49113
923.98        81.56256
924.37        81.43308
924.77          81.105
925.16        80.59592
925.55        80.03513
925.95        79.64001
926.34        79.48829
926.74        79.53206
927.13        79.69901
927.52        79.74972
927.92        79.65327
928.31        79.46636
928.70        79.31054
929.10        79.35788
929.49        79.64262
929.89         80.0592
930.28         80.5544
930.67        80.90874
931.07        81.03346
931.46        81.01001
931.85        80.86743
932.24        80.69736
932.64          80.537
933.03        80.35931
933.42        80.19032
933.82        80.06763
934.21        80.00476
934.60        80.01521
934.99        80.05552
935.39        80.01511
935.78         79.9093
936.17        79.75037
936.56         79.6175
936.96        79.63536
937.35        79.87514
937.74        80.25435
938.13        80.65528
938.53        80.91988
938.92         81.0061
939.31        80.92615
939.70        80.77357
940.09        80.71373
940.49        80.76104
940.88        80.91062
941.27        80.99557
941.66         80.7646
942.05        80.20072
942.44        79.42202
942.84        78.68961
943.23        78.36747
943.62        78.57857
944.01        79.20482
944.40        80.04277
944.79        80.71656
945.18        81.06191
945.57        81.14606
945.97        81.01537
946.36         80.8288
946.75        80.60914
947.14        80.30851
947.53        79.92877
947.92        79.49356
948.31        79.04987
948.70        78.66997
949.09        78.39126
949.48         78.2372
949.87        78.21256
950.26         78.2858
950.65        78.49151
951.04        78.88898
951.43        79.44901
951.82        80.12605
952.21         80.7173
952.60        80.88647
952.99        80.56674
953.38        79.87495
953.77        79.06693
954.16        78.53956
954.55        78.39473
954.94        78.51691
955.33         78.7765
955.72         78.9511
956.11        78.94672
956.50        78.82576
956.89        78.59699
957.28        78.26246
957.66        77.89228
958.05        77.50259
958.44        77.14001
958.83        76.87598
959.22        76.73763
959.61        76.67194
960.00        76.80518
960.39        77.33038
960.78        78.22379
961.16        79.44432
961.55        80.51021
961.94        80.71468
962.33        79.91972
962.72        78.39565
963.11        76.72548
963.49        75.77291
963.88        75.74729
964.27        76.41502
964.66        77.45049
965.04        78.25877
965.43        78.52533
965.82        78.48519
966.21        78.29185
966.60        78.18549
966.98        78.25446
967.37        78.33094
967.76        78.41048
968.15        78.48956
968.53         78.5732
968.92        78.71284
969.31        78.82612
969.69        78.74548
970.08        78.44822
970.47        77.96724
970.86        77.58648
971.24         77.8193
971.63        78.65205
972.02        79.87449
972.40        81.05793
972.79        81.48789
973.17        81.12896
973.56        80.12642
973.95        78.84322
974.33        77.90311
974.72        77.52697
975.11        77.54928
975.49        77.77755
975.88        77.89549
976.26        77.81799
976.65        77.67626
977.04        77.52807
977.42        77.42929
977.81        77.36131
978.19        77.23385
978.58        77.27716
978.96        77.86505
979.35        78.98431
979.74        80.54888
980.12        82.08064
980.51        82.58282
980.89        81.98598
981.28        80.46074
981.66        78.70568
982.05        78.02681
982.43        78.77662
982.82        80.47003
983.20        82.47175
983.59        83.62771
983.97        83.71976
984.35        83.07104
984.74         81.9052
985.12        80.64351
985.51        79.54906
985.89        78.55162
986.28        77.87795
986.66        77.93002
987.04         78.6746
987.43        79.96707
987.81        81.44294
988.20        82.30657
988.58        82.35753
988.96        81.78356
989.35        80.75406
989.73        79.65681
990.12        78.59831
990.50        77.45073
990.88         76.4553
991.27        76.18659
991.65        76.78273
992.03        78.06446
992.42        79.37152
992.80        80.11044
993.18         80.0976
993.56        79.48867
993.95        78.50635
994.33         77.7224
994.71        77.54233
995.10        77.68831
995.48        78.07954
995.86        78.57985
996.24         79.1226
996.63        79.71381
997.01        80.27618
997.39        80.38615
997.77        79.90668
998.15         79.0332
998.54        77.89927
998.92        76.66654
999.30        75.44082
999.68        74.24728
1000.06        73.49146
1000.45        73.82705
1000.83        75.38876
1001.21        77.77756
1001.59        80.37991
1001.97        82.36247
1002.35        83.51015
1002.73        84.04234
1003.12         83.8356
1003.50        82.72263
1003.88        80.93763
1004.26        78.63686
1004.64        76.62673
1005.02         75.8531
1005.40        76.36656
1005.78        78.00899
1006.16        79.92877
1006.54        80.51515
1006.92        79.34629
1007.30        76.87457
1007.69        74.23638
1008.07         73.2642
1008.45        74.46967
1008.83        77.16138
1009.21        80.23755
1009.59         82.1899
1009.97        82.58556
1010.35        81.72736
1010.73        80.07284
1011.11        78.80901
1011.49        78.60694
1011.86        79.28709
1012.24        80.06828
1012.62        80.10553
1013.00        79.28042
1013.38        77.94299
1013.76        76.86345
1014.14        77.26515
1014.52        79.42968
1014.90        82.97118
1015.28        86.86755
1015.66        89.09179
1016.04        88.88112
1016.41        86.88838
1016.79        83.93008
1017.17        81.62366
1017.55        80.44556
1017.93        80.01861
1018.31        80.04132
1018.69        80.01422
1019.06        79.78478
1019.44        79.52338
1019.82        79.41837
1020.20        79.72749
1020.58        80.44556
1020.95        81.29134
1021.33        81.88995
1021.71        81.76286
1022.09        80.85751
1022.46          79.258
1022.84        77.40797
1023.22         75.9684
1023.60        75.19133
1023.97        74.87697
1024.35         74.9304
1024.73        74.48621
