SpectraSmart Spectrum 2.9.0.0
--------- Device Information -----------
Spectrum Name :  反射率_0
Saving Time :  2024/04/28 00:08:43
Spectro-Module Model Name : SE2030-DUVN
Spectro-Module Serial Number : OS361AC55029948
Wavelength Start : 200
Wavelength End : 1025
Wavelength Unit : Wavelength(nm)
Spectrum Unit : Reflectance(%)
-----------Spectrum Setting ------------
Integration Time : 20ms
Average : 10
Boxcar : 0
Background removal :  enabled
linearity correction :  enabled
SC :  disabled
Intensity correction :  disabled
DWT denoise :  enabled
savitzky-golay :  disabled
FFT :  disabled
Running average :  disabled
Kalman :  disabled
High pass :  disabled
---------------BEGIN--------------------
Wavelength(nm)             Reflectance(%)
200.29               0
200.75        27.03901
201.21         85.5672
201.67        125.0793
202.13        134.8044
202.58        125.3934
203.04        106.7093
203.50        85.69535
203.96        73.28033
204.42         71.3703
204.88        74.44408
205.34        79.04505
205.80        82.62161
206.26        84.74942
206.72        86.82015
207.18        88.28062
207.64        85.90155
208.10        80.23728
208.55        75.14858
209.01         70.8792
209.47        66.29314
209.93        59.10982
210.39         42.9958
210.85       -1.815452
211.31       -45.15284
211.77        27.37856
212.23        68.68258
212.69        82.35339
213.14        86.83698
213.60        87.01149
214.06        84.40069
214.52        77.46091
214.98        68.16799
215.44        63.68797
215.90        63.12007
216.36        64.68682
216.81        67.38982
217.27        70.71146
217.73        75.09261
218.19        79.08501
218.65        79.78527
219.11        76.35951
219.57        69.17539
220.02        60.01035
220.48        55.10135
220.94        56.54168
221.40        61.92243
221.86        68.30081
222.32         72.7803
222.77        74.93406
223.23        75.65385
223.69        75.37788
224.15        74.39291
224.61        72.80865
225.06        70.35349
225.52        67.33588
225.98        64.44508
226.44        62.36322
226.90        61.02888
227.36        60.20964
227.81        59.49149
228.27        58.68676
228.73        57.72403
229.19        56.37617
229.65        54.38605
230.10        51.83096
230.56        49.24488
231.02        46.89964
231.48        45.20559
231.93        44.18566
232.39        43.78799
232.85        44.06801
233.31        45.12928
233.77        46.82898
234.22        49.11095
234.68        51.29301
235.14        52.62161
235.60        53.00824
236.05        52.47843
236.51        51.91314
236.97        53.09023
237.43        56.46093
237.88        61.53072
238.34         66.3471
238.80        69.16265
239.26        69.67668
239.71        67.81303
240.17        63.86915
240.63        62.63668
241.08        67.51402
241.54        74.48051
242.00        79.84509
242.46        82.62875
242.91        83.73184
243.37        83.54383
243.83         81.5372
244.28        77.35637
244.74        73.67249
245.20        72.85409
245.66         73.3082
246.11           72.74
246.57        70.64107
247.03        67.41724
247.48        63.23801
247.94        61.42506
248.40        65.00133
248.85        71.26949
249.31        77.94812
249.77        83.58945
250.22        87.88631
250.68        91.13232
251.14         93.6475
251.59        96.14051
252.05        99.18702
252.51         102.773
252.96         106.577
253.42        108.7554
253.88        107.4493
254.33        103.9966
254.79        99.92566
255.25         94.7579
255.70        88.73456
256.16        83.08442
256.62        79.10535
257.07        78.33635
257.53         80.2815
257.99         82.9374
258.44        84.60288
258.90        84.41835
259.35        82.26456
259.81        79.45609
260.27        76.45059
260.72        73.86075
261.18        72.18755
261.63        70.77905
262.09        69.71539
262.55        68.59824
263.00        67.26847
263.46        66.02089
263.91        64.74791
264.37        63.72563
264.83         62.8846
265.28        62.09921
265.74        61.38608
266.19        60.50298
266.65        59.50523
267.11        58.39272
267.56         57.1997
268.02        56.09916
268.47        55.08936
268.93        54.15918
269.38         53.2739
269.84        52.41764
270.30        51.56706
270.75        50.72211
271.21        49.87018
271.66        48.93367
272.12        47.92287
272.57        46.80988
273.03        45.67819
273.48        44.56404
273.94         43.5597
274.39        42.63823
274.85        41.80796
275.31        40.97347
275.76        40.10102
276.22        39.23988
276.67        38.44589
277.13        37.91867
277.58         37.5914
278.04        37.43804
278.49        37.19516
278.95        36.61526
279.40        35.62635
279.86        34.42398
280.31        33.20436
280.77        32.38847
281.22        31.99928
281.68         31.9379
282.13        31.99527
282.59         31.9434
283.04        31.69884
283.50        31.36661
283.95        30.99911
284.41        30.72017
284.86        30.54672
285.32        30.45749
285.77         30.4072
286.22        30.38606
286.68        30.39886
287.13         30.4135
287.59        30.46783
288.04        30.53109
288.50        30.62567
288.95        30.71905
289.41        30.80673
289.86        30.82854
290.32        30.81349
290.77        30.78426
291.22        30.80529
291.68        30.96228
292.13        31.27174
292.59        31.73535
293.04        32.34299
293.50        33.10028
293.95        33.98867
294.40        35.02517
294.86        36.17687
295.31        37.38071
295.77        38.63541
296.22         39.9321
296.68        41.33114
297.13        42.89759
297.58        44.62744
298.04        46.48076
298.49        48.35492
298.95        50.15504
299.40        51.86251
299.85        53.52308
300.31        55.24115
300.76        57.11615
301.21        59.15789
301.67        61.32686
302.12        63.47116
302.58         65.4668
303.03        67.26078
303.48        68.94128
303.94         70.6572
304.39        72.53526
304.84        74.63444
305.30        76.90571
305.75        79.21409
306.20        81.45918
306.66        83.61678
307.11        85.65778
307.57        87.62901
308.02        89.46935
308.47        91.19636
308.93        92.82516
309.38        94.31748
309.83        95.73683
310.29        97.12782
310.74        98.45919
311.19        99.77605
311.65        101.1104
312.10        102.4198
312.55        103.6972
313.00        104.8887
313.46        105.9237
313.91        106.7767
314.36        107.4872
314.82        108.1074
315.27        108.7174
315.72        109.3434
316.18         109.983
316.63        110.5974
317.08        111.1641
317.53        111.6795
317.99        112.1506
318.44         112.609
318.89        113.0738
319.35        113.5449
319.80        114.0188
320.25        114.4637
320.70        114.8426
321.16        115.1335
321.61        115.3635
322.06        115.5614
322.51        115.7847
322.97        116.0333
323.42        116.3419
323.87        116.6473
324.32        116.8673
324.78        116.9725
325.23        117.0299
325.68        117.1122
326.13        117.3691
326.59        117.7992
327.04        118.4004
327.49        119.0325
327.94        119.5067
328.39        119.7693
328.85         119.836
329.30        119.8651
329.75        119.9553
330.20        120.1606
330.66        120.4139
331.11        120.7617
331.56        121.1483
332.01        121.5624
332.46        122.0172
332.92        122.4501
333.37        122.9154
333.82        123.3475
334.27        123.7464
334.72        124.1126
335.17        124.4582
335.63        124.7695
336.08        125.1126
336.53        125.4864
336.98        125.9381
337.43        126.4732
337.88        127.0687
338.34        127.6817
338.79        128.3024
339.24        128.8893
339.69        129.4518
340.14        129.9538
340.59        130.3404
341.05        130.6229
341.50        130.8428
341.95        131.0792
342.40        131.4762
342.85        132.0616
343.30        132.7711
343.75        133.5506
344.20        134.3059
344.66        134.9907
345.11        135.6239
345.56        136.1264
346.01        136.3755
346.46        136.3753
346.91        136.1689
347.36        135.9471
347.81        136.0091
348.26        136.4066
348.72        137.0494
349.17        137.7311
349.62        138.1373
350.07        138.1799
350.52        137.9582
350.97        137.6024
351.42        137.3223
351.87        137.1895
352.32         137.142
352.77        137.1232
353.22        137.0526
353.67        136.8977
354.13        136.6914
354.58        136.4339
355.03        136.1857
355.48        135.9412
355.93        135.6648
356.38        135.2788
356.83        134.6689
357.28        133.8319
357.73        132.8403
358.18        131.7932
358.63        130.8342
359.08        130.0173
359.53        129.3109
359.98        128.7085
360.43        128.1942
360.88         127.735
361.33        127.3131
361.78        126.8694
362.23        126.3005
362.68        125.5744
363.13        124.7323
363.58         123.798
364.03        122.7127
364.48        121.6848
364.93        120.5942
365.38        119.5309
365.83        118.5469
366.28        117.6543
366.73        116.8321
367.18        116.0729
367.63        115.3596
368.08        114.6747
368.53        114.0258
368.98        113.3456
369.43        112.5274
369.88        111.5633
370.33        110.4857
370.78        109.4233
371.23        108.5916
371.68        108.0317
372.13        107.6695
372.58        107.3715
373.03        106.9154
373.48        106.2389
373.93        105.4195
374.38        104.5221
374.83        103.6473
375.28         102.839
375.72        102.0458
376.17        101.3344
376.62        100.7389
377.07        100.2539
377.52        99.86087
377.97        99.48869
378.42        99.02069
378.87        98.43188
379.32        97.76019
379.77        97.04992
380.22        96.36773
380.67        95.73371
381.11        95.13097
381.56        94.56031
382.01        94.03886
382.46        93.57668
382.91        93.18555
383.36        92.83809
383.81        92.48055
384.26        92.09946
384.71        91.70275
385.15        91.31084
385.60        91.02325
386.05        90.82581
386.50        90.68062
386.95        90.52905
387.40        90.28952
387.85        89.94701
388.29         89.4828
388.74        89.03166
389.19        88.57216
389.64        88.10683
390.09        87.61515
390.54         87.1237
390.98        86.65876
391.43        86.29086
391.88        86.01653
392.33        85.76678
392.78        85.47784
393.23        85.16013
393.67        84.69041
394.12        84.24062
394.57        84.30631
395.02        84.23444
395.47        84.13641
395.91        83.82289
396.36        83.57442
396.81        83.40163
397.26        83.14812
397.71        82.85413
398.15         82.5954
398.60        82.45496
399.05        82.34818
399.50        82.25727
399.95        82.09592
400.39        81.86149
400.84        81.70322
401.29        81.59486
401.74        81.10035
402.18        80.38734
402.63        80.24123
403.08        80.58263
403.53        80.55939
403.97        80.12119
404.42         79.7735
404.87        79.57195
405.32        79.41613
405.76        79.29951
406.21        79.23301
406.66         79.1997
407.11        79.14717
407.55        79.06558
408.00        79.06774
408.45        79.08943
408.90        78.58173
409.34        77.74265
409.79        77.56718
410.24        77.97234
410.68        78.06397
411.13        77.79404
411.58        77.68545
412.03        77.75908
412.47        77.80592
412.92        77.78822
413.37        77.77938
413.81        77.74073
414.26        77.67926
414.71        77.57787
415.15        77.45001
415.60        77.30961
416.05        77.25689
416.49        77.31922
416.94        77.46075
417.39        77.62423
417.83         77.7153
418.28         77.7029
418.73        77.59377
419.17        77.45776
419.62        77.41516
420.07        77.50001
420.51        77.67291
420.96        77.83678
421.41        77.84842
421.85        77.66358
422.30         77.2144
422.74        76.67834
423.19        76.81072
423.64        77.45988
424.08        77.65097
424.53        77.24966
424.98        77.07194
425.42        77.15536
425.87        76.85839
426.31         76.3349
426.76        76.35493
427.21        76.82768
427.65        76.94004
428.10        76.68678
428.54        76.67594
428.99        76.94199
429.44        77.22665
429.88        77.40146
430.33        77.24602
430.77        76.82201
431.22        76.73546
431.66        77.00351
432.11        77.18227
432.56        77.30936
433.00        77.72221
433.45        78.13326
433.89         77.9117
434.34        78.10262
434.78        76.58622
435.23        76.82968
435.67        77.03336
436.12        78.10841
436.57        78.29758
437.01        77.82246
437.46        77.47488
437.90          77.758
438.35        78.63515
438.79        78.08817
439.24        78.09868
439.68        78.09754
440.13        77.97791
440.57        77.84315
441.02        78.27082
441.46        78.99689
441.91        79.02353
442.35        78.42419
442.80        78.21445
443.24        78.43067
443.69        78.81008
444.13         79.1689
444.58        79.32647
445.02        79.22292
445.47        78.99593
445.91        78.75172
446.36        78.64713
446.80        78.70708
447.24        78.83495
447.69        78.99938
448.13         79.2554
448.58        79.51822
449.02        79.48724
449.47        79.24921
449.91        79.17262
450.36        79.30849
450.80        79.41514
451.25        79.48071
451.69        79.56324
452.13        79.63374
452.58        79.61148
453.02        79.49532
453.47        79.32344
453.91        79.09936
454.36        78.93225
454.80        78.75632
455.24        78.31616
455.69         77.7841
456.13        77.44236
456.58        77.40053
457.02        77.69062
457.46        78.28028
457.91        78.03104
458.35         77.4024
458.79        77.07011
459.24        77.17469
459.68        77.12362
460.13        76.90427
460.57        76.66232
461.01        76.81055
461.46        76.33471
461.90        76.16315
462.34        76.52254
462.79        76.37022
463.23        76.25244
463.68        75.90305
464.12        75.95502
464.56        76.32125
465.01        76.52162
465.45        76.39015
465.89        76.18848
466.34        76.03114
466.78        75.67268
467.22        75.16443
467.67        75.72205
468.11         75.5198
468.55        75.37643
468.99        74.85733
469.44        74.64988
469.88        74.77197
470.32        74.84555
470.77        74.83021
471.21        74.81407
471.65        74.78493
472.10        74.74093
472.54        74.64178
472.98        74.53496
473.42        74.44239
473.87        74.17773
474.31        73.82302
474.75         74.0645
475.20        74.69619
475.64        74.57335
476.08        73.77993
476.52        73.49453
476.97        73.75745
477.41         73.5008
477.85        73.56734
478.29        73.39715
478.74         73.5993
479.18        73.41623
479.62        73.59325
480.06        73.57596
480.50        73.54848
480.95          73.664
481.39        73.47566
481.83        73.45631
482.27        73.72595
482.72        72.93015
483.16        73.48586
483.60        73.17787
484.04        73.17384
484.48        73.18051
484.93        73.54998
485.37        73.26793
485.81         73.5815
486.25        74.13718
486.69        74.86734
487.14        73.92803
487.58        73.09302
488.02        73.45683
488.46        73.43649
488.90         73.3999
489.34        72.89491
489.79        72.02005
490.23        72.86427
490.67        72.83068
491.11        72.54613
491.55        72.39911
491.99        72.42846
492.43        72.44164
492.88        72.41432
493.32        72.46403
493.76        72.52452
494.20        72.59682
494.64        72.67952
495.08         72.6754
495.52        72.62373
495.96        72.82007
496.41        73.16805
496.85        73.08806
497.29        72.63557
497.73        72.57214
498.17        72.77644
498.61        72.79415
499.05        72.56465
499.49        72.49986
499.93        72.61275
500.37        72.47498
500.82        72.10667
501.26         72.1881
501.70        72.78687
502.14        72.03631
502.58        72.51022
503.02        72.45999
503.46        72.34859
503.90        72.23906
504.34         72.1042
504.78        72.11184
505.22        72.23093
505.66        72.31058
506.10        72.33932
506.54        72.40796
506.98        72.50556
507.42         72.3914
507.86        72.67136
508.30        72.20429
508.74        72.36411
509.18        72.17823
509.62        72.03601
510.06        71.95238
510.50        71.94115
510.94        71.98289
511.38        72.04358
511.82         72.0985
512.26        72.12774
512.70        72.13839
513.14        72.12981
513.58        72.07433
514.02        71.97234
514.46        71.88443
514.90        71.83669
515.34        71.61883
515.78        71.65332
516.22         71.5993
516.66          71.592
517.10        71.63646
517.54         71.7282
517.98        71.85564
518.42        71.96374
518.86        71.97542
519.30        71.87876
519.74        71.70254
520.18        71.51399
520.62        71.41839
521.06        71.44476
521.50        71.56511
521.93         71.7364
522.37        71.87231
522.81        71.94585
523.25        71.96967
523.69        71.97424
524.13        71.98112
524.57        71.99263
525.01        72.04927
525.45        72.11768
525.89         71.8863
526.32        71.76633
526.76        71.46909
527.20        71.20098
527.64        71.08669
528.08        71.15395
528.52        71.34965
528.96        71.58286
529.40        71.72409
529.83        71.73507
530.27        71.65016
530.71        71.49728
531.15        71.40255
531.59        71.40517
532.03        71.19723
532.46         71.2671
532.90        71.24995
533.34        71.28157
533.78        71.34853
534.22        71.42043
534.66        71.43663
535.09        71.37505
535.53        71.27853
535.97        71.16879
536.41        71.10072
536.85        71.08918
537.28        71.11812
537.72        71.17146
538.16        71.21261
538.60        71.23183
539.04         71.2557
539.47        71.26199
539.91        71.25624
540.35        71.22385
540.79        71.17973
541.22        71.13011
541.66        71.09592
542.10        71.07963
542.54        71.07563
542.97        71.07548
543.41        71.10411
543.85        71.14446
544.29        71.19761
544.72        71.22845
545.16        71.20449
545.60        71.10333
546.04        70.97466
546.47        70.85827
546.91        70.71669
547.35        70.60634
547.79        70.77442
548.22        71.08544
548.66        71.09167
549.10        70.80524
549.53        70.66777
549.97        70.73167
550.41        70.75915
550.84        70.72733
551.28        70.86997
551.72        71.15679
552.15        71.14284
552.59         70.7612
553.03        71.31694
553.46        70.66728
553.90         70.6739
554.34        70.70524
554.77        70.74505
555.21        70.75557
555.65        70.80837
556.08        70.92468
556.52        70.71777
556.96        70.32239
557.39        70.30361
557.83        70.63561
558.27        70.73946
558.70        70.60442
559.14        70.60928
559.57        70.73525
560.01        70.83135
560.45         70.8469
560.88        70.75986
561.32        70.65248
561.75        70.53204
562.19        70.46973
562.63        70.58863
563.06        70.79959
563.50        70.74631
563.93        70.45966
564.37        70.38168
564.80        70.50184
565.24        70.60223
565.68        70.64158
566.11         70.6814
566.55        70.74152
566.98        70.74193
567.42        70.72398
567.85        70.79777
568.29        70.97678
568.72        70.94447
569.16        70.78517
569.60        70.87045
570.03        71.21506
570.47        71.07211
570.90        71.31698
571.34        71.45599
571.77        71.60802
572.21        71.23677
572.64        71.44193
573.08        71.14525
573.51        70.85972
573.95        71.06536
574.38        71.65333
574.82        71.54961
575.25        71.67104
575.69        71.20703
576.12        71.22179
576.56        70.94753
576.99        71.11535
577.42        71.57558
577.86        71.42632
578.29        71.83676
578.73        71.82781
579.16        71.73679
579.60        71.34309
580.03        71.12811
580.47        71.10719
580.90        71.57458
581.33        71.90944
581.77        72.11372
582.20        71.81051
582.64        71.86897
583.07        71.73453
583.51         71.5811
583.94        71.48898
584.37        71.38336
584.81         71.3801
585.24        71.40056
585.68        71.44496
586.11        71.61156
586.54        71.55907
586.98         71.1478
587.41        71.44969
587.85        71.23641
588.28         71.5107
588.71        71.46758
589.15        71.59147
589.58        71.22173
590.01        71.12244
590.45        71.47106
590.88        70.58306
591.31        70.65481
591.75        70.99104
592.18        70.92459
592.61        70.73257
593.05        70.80051
593.48        71.49153
593.91        71.69772
594.35        70.83862
594.78        71.07349
595.21         70.9261
595.65        71.01592
596.08        70.97871
596.51        70.84375
596.94        71.00547
597.38        71.04466
597.81        71.17757
598.24         70.5834
598.68        70.81965
599.11        70.67903
599.54        70.81146
599.97        71.03544
600.41        71.33385
600.84        71.45919
601.27        71.35707
601.70        71.07791
602.14        70.61586
602.57        70.71587
603.00         70.6311
603.43        70.78284
603.87        71.06895
604.30        70.98581
604.73        70.68051
605.16        70.79342
605.60         70.8049
606.03         71.0237
606.46        71.23283
606.89        70.99654
607.32        71.10043
607.76        71.27995
608.19        71.06431
608.62        70.97165
609.05        70.84892
609.48        70.78477
609.92        70.78065
610.35        70.71979
610.78        71.06597
611.21        70.62684
611.64         71.0775
612.07        70.89281
612.50         70.5479
612.94        70.42126
613.37        70.58735
613.80        70.45529
614.23        70.62856
614.66        70.70489
615.09        70.80212
615.52        70.77531
615.96        70.69104
616.39        70.38759
616.82        70.54926
617.25        70.60306
617.68        70.69944
618.11        70.58158
618.54        70.36269
618.97        70.47177
619.40         70.7958
619.84        71.08633
620.27        70.90292
620.70        70.72708
621.13        70.38557
621.56        70.73395
621.99        70.15321
622.42        70.06654
622.85        70.36125
623.28        70.75538
623.71        70.56438
624.14         69.8614
624.57         70.1173
625.00        70.60181
625.43        70.15203
625.86        70.22527
626.29        70.31335
626.72        70.47078
627.15        70.33304
627.58        70.33722
628.01        70.44382
628.44        70.19209
628.87        69.85847
629.30        70.42855
629.73         70.0477
630.16        70.11162
630.59        69.91946
631.02        69.84424
631.45        69.84762
631.88        69.87748
632.31        69.96065
632.74        69.96204
633.17        70.17032
633.60         70.2282
634.03        70.21127
634.46        70.13535
634.89        70.03578
635.32        69.95455
635.75        69.90594
636.18        69.91866
636.61        69.96603
637.04        69.92239
637.47        69.81536
637.89        69.86134
638.32        70.03394
638.75        70.13179
639.18        70.13153
639.61         70.2644
640.04        70.27475
640.47        70.28076
640.90        70.21292
641.33        70.07447
641.76        69.88091
642.18        69.83747
642.61        69.68601
643.04        69.62992
643.47        69.60199
643.90        69.62399
644.33        69.68927
644.76        69.79765
645.18        69.90448
645.61        69.92194
646.04        69.83463
646.47        69.65707
646.90        69.46461
647.33        69.37924
647.75        69.43879
648.18        69.63374
648.61         69.8634
649.04        69.97016
649.47        69.93845
649.89        69.75265
650.32        69.53694
650.75          69.693
651.18        70.11793
651.61        70.20362
652.03        69.89782
652.46        69.60233
652.89        69.52915
653.32        69.36813
653.74        69.44449
654.17        69.96325
654.60        69.81441
655.03        68.90334
655.46        69.83932
655.88        70.24606
656.31        72.47746
656.74         74.8592
657.16        73.44435
657.59        71.72625
658.02         70.5049
658.45        70.46342
658.87        70.40354
659.30        70.15523
659.73         69.8752
660.15        70.03263
660.58        70.10432
661.01         70.3064
661.44        70.33865
661.86         70.1776
662.29        69.87262
662.72        69.62231
663.14        69.54498
663.57        69.74731
664.00        70.12556
664.42        70.28436
664.85        70.17718
665.27        70.02082
665.70          69.884
666.13        69.70839
666.55        69.68993
666.98        69.66775
667.41        69.68111
667.83        69.71519
668.26        69.75641
668.69        69.82623
669.11        69.89801
669.54        69.94881
669.96        69.98537
670.39        69.91006
670.82        69.79742
671.24        69.97533
671.67        70.36813
672.09        70.41483
672.52        70.32044
672.94        70.19511
673.37        70.15004
673.80        70.14158
674.22        70.16374
674.65        70.10382
675.07        69.97778
675.50        69.86501
675.92        69.79789
676.35         69.7598
676.77        69.76253
677.20        69.81603
677.62        69.90035
678.05        69.96016
678.47        69.98167
678.90        69.98177
679.32        69.98508
679.75        70.04833
680.17         70.1774
680.60         70.3577
681.02        70.51897
681.45        70.56503
681.87        70.49681
682.30        70.23573
682.72        69.90841
683.15        69.96683
683.57        70.34236
684.00        70.34594
684.42        70.03458
684.85         70.0528
685.27        70.40221
685.70        70.71422
686.12        70.89452
686.54        71.00885
686.97        71.01505
687.39        70.85544
687.82        70.61231
688.24        70.39682
688.66        70.54517
689.09        70.50403
689.51        70.37311
689.94        70.32348
690.36          70.367
690.78        70.33112
691.21        70.24768
691.63        70.34991
692.06        70.58336
692.48        70.62163
692.90        70.48232
693.33        70.43323
693.75        70.48801
694.17        70.49807
694.60        70.44337
695.02        70.40781
695.44         70.3877
695.87        70.34117
696.29        70.30459
696.71        70.38882
697.14        70.55325
697.56        70.67064
697.98        70.69884
698.41        70.74116
698.83        70.77201
699.25        70.73772
699.68        70.65971
700.10        70.67039
700.52        70.77487
700.94        70.93909
701.37         71.0901
701.79        71.14711
702.21        71.07016
702.64        70.90562
703.06        70.71227
703.48        70.60242
703.90        70.60822
704.33        70.68756
704.75         70.7994
705.17        70.85513
705.59         70.8315
706.01        70.73293
706.44        70.60272
706.86        70.64629
707.28        70.68655
707.70        70.82451
708.12          70.963
708.55        71.08295
708.97         71.1358
709.39        71.03616
709.81        70.85109
710.23        70.80309
710.66        70.92358
711.08        71.12492
711.50        71.31121
711.92        71.38987
712.34        71.33668
712.76        71.18374
713.19         70.9971
713.61        70.93755
714.03        71.01902
714.45        71.18925
714.87        71.38776
715.29        71.52148
715.71        71.56236
716.13        71.54765
716.56         71.4678
716.98        71.38306
717.40        71.29353
717.82        71.19471
718.24        71.13319
718.66         71.1865
719.08         71.3598
719.50        71.62118
719.92        71.90287
720.34        72.09184
720.76        72.15334
721.19        72.10983
721.61        72.00011
722.03         71.8604
722.45        71.71782
722.87        71.56668
723.29        71.44404
723.71        71.40736
724.13        71.46992
724.55        71.62576
724.97        71.82642
725.39        71.98548
725.81         72.0722
726.23        72.09297
726.65        72.08733
727.07        72.12554
727.49         72.2205
727.91        72.35101
728.33        72.45187
728.75        72.41777
729.17        72.23577
729.59        71.95179
730.01        71.66736
730.43        71.54202
730.85         71.6096
731.27        71.81218
731.69        72.07215
732.10        72.26861
732.52         72.3476
732.94        72.39657
733.36        72.43375
733.78        72.37608
734.20         72.2197
734.62        72.47636
735.04        72.03075
735.46        72.29913
735.88        72.76698
736.30        72.59968
736.72         71.9221
737.13        71.67737
737.55        71.93292
737.97        72.34869
738.39        72.74129
738.81        72.73412
739.23         72.3686
739.65        72.28471
740.06        72.46036
740.48        72.43138
740.90        72.16809
741.32        72.03867
741.74        71.99374
742.16         72.0575
742.57        72.20261
742.99        72.47993
743.41        72.79312
743.83        72.84917
744.25        72.67202
744.67        72.57089
745.08        72.59692
745.50        72.55199
745.92        72.46926
746.34        72.49111
746.75         72.5892
747.17        72.63667
747.59        72.61159
748.01        72.53826
748.42        72.47487
748.84        72.47218
749.26         72.5256
749.68        72.72141
750.09        72.94407
750.51        72.73337
750.93        72.23125
751.35        72.21465
751.76        72.63641
752.18        72.75134
752.60         72.5191
753.01        72.43509
753.43        72.53471
753.85        72.53358
754.27         72.3978
754.68        72.87102
755.10        72.72083
755.52        72.90459
755.93        73.05485
756.35        73.20448
756.77        73.31168
757.18        73.39159
757.60        73.45456
758.02        73.35987
758.43        73.15688
758.85        73.31092
759.26        73.15388
759.68         73.2773
760.10        73.50103
760.51        72.61695
760.93         72.2476
761.34        72.42031
761.76        72.95927
762.18        73.37911
762.59        73.55146
763.01        72.96764
763.42        73.46648
763.84        73.41679
764.26        73.39742
764.67         73.5076
765.09            73.7
765.50        73.61362
765.92        73.29781
766.33        73.05848
766.75        72.92934
767.16        72.91694
767.58        73.00333
768.00        73.31008
768.41        73.71971
768.83        73.89466
769.24        73.80646
769.66        73.53222
770.07        73.20708
770.49        73.28754
770.90        73.72556
771.32        73.90029
771.73        73.78851
772.15        73.79677
772.56        73.92599
772.97        73.96402
773.39        73.89648
773.80        73.76169
774.22        73.63139
774.63        73.87939
775.05        74.36427
775.46        74.56533
775.88        74.38844
776.29        74.15862
776.70         73.9691
777.12        73.86004
777.53         73.8972
777.95        74.05097
778.36        74.26498
778.77        74.42435
779.19         74.4911
779.60        74.50043
780.02        74.49071
780.43        74.52648
780.84        74.59145
781.26        74.72829
781.67        74.94572
782.09         74.8849
782.50        74.49738
782.91        75.04026
783.33        74.55785
783.74        74.59195
784.15        74.55651
784.57        74.46124
784.98        74.37351
785.39        74.58605
785.81        75.03034
786.22        75.24988
786.63        75.19735
787.04        75.18396
787.46         75.2242
787.87        75.10395
788.28        74.88441
788.70         74.8007
789.11        74.86983
789.52        74.92464
789.93        74.96855
790.35         75.2626
790.76        75.68836
791.17        75.60751
791.58        75.11893
792.00        74.94695
792.41        75.16652
792.82        75.34824
793.23         75.4476
793.65        75.61439
794.06        75.85324
794.47        76.06594
794.88        76.15636
795.29         76.3252
795.71        76.09267
796.12        75.77339
796.53        75.36314
796.94        75.42863
797.35        75.90667
797.76        76.05128
798.18        75.84483
798.59          75.839
799.00        76.03699
799.41        76.07334
799.82        75.94299
800.23         75.8456
800.64        75.79827
801.06        75.72379
801.47        75.66462
801.88        75.60849
802.29        75.56258
802.70        75.55157
803.11        75.57528
803.52        75.61833
803.93          75.673
804.34        75.72932
804.75        75.81563
805.17        75.94237
805.58        76.12831
805.99        76.41489
806.40        76.70241
806.81        76.63905
807.22        76.28416
807.63        76.09421
808.04        76.12019
808.45        76.08171
808.86        75.98666
809.27        76.04755
809.68        76.21593
810.09        76.28019
810.50         76.2132
810.91        76.08737
811.32        75.95531
811.73         75.9177
812.14        76.00297
812.55        76.11603
812.96         76.2471
813.37        76.49887
813.78        76.79507
814.19        76.88419
814.60        76.76362
815.01         76.6559
815.42        76.58006
815.83        76.39159
816.24        76.16972
816.65        76.14436
817.05        76.35989
817.46        76.71191
817.87        77.09547
818.28        77.29612
818.69        77.26197
819.10        77.05019
819.51        76.76284
819.92        76.58649
820.33        76.58931
820.74        76.71954
821.14        76.89178
821.55         77.0112
821.96        77.02595
822.37        76.96559
822.78        76.88972
823.19        76.89571
823.60        77.00819
824.00        77.21719
824.41        77.37817
824.82        77.35689
825.23        77.12618
825.64        76.73808
826.04         76.3637
826.45        76.24023
826.86        76.43856
827.27        76.88927
827.68         77.4188
828.08        77.76532
828.49        77.78082
828.90        77.57986
829.31        77.31098
829.72        77.23037
830.12        77.42856
830.53        77.76377
830.94        78.13197
831.35        78.32924
831.75        78.31636
832.16         78.1211
832.57        77.82882
832.97          77.546
833.38        77.32272
833.79        77.13885
834.20        77.02621
834.60        77.02747
835.01        77.14819
835.42        77.37097
835.82        77.64228
836.23        77.77508
836.64        77.75013
837.04         77.6292
837.45         77.4311
837.86         77.2979
838.26        77.28487
838.67        77.34251
839.08        77.46519
839.48        77.62233
839.89        77.79306
840.29        77.98244
840.70        78.18188
841.11        78.37905
841.51        78.58183
841.92        78.74343
842.33        78.85487
842.73        78.90283
843.14        78.84101
843.54        78.71639
843.95        78.56493
844.35        78.46656
844.76        78.43368
845.17        78.44881
845.57        78.50671
845.98        78.55174
846.38        78.58765
846.79         78.6004
847.19        78.58435
847.60        78.47211
848.00         78.2868
848.41        78.01897
848.81        77.75645
849.22        77.56641
849.62        77.51228
850.03        77.55252
850.43        77.67385
850.84          77.763
851.24        77.84274
851.65        77.87747
852.05        77.96033
852.46        78.12393
852.86        78.36002
853.27         78.6489
853.67        78.84696
854.07        78.95846
854.48        78.93403
854.88        78.82375
855.29        78.57829
855.69        78.33601
856.10        78.04694
856.50        77.78634
856.90        77.52201
857.31        77.22846
857.71        76.95906
858.12        76.68249
858.52        76.48353
858.92         76.3614
859.33        76.29684
859.73        76.31537
860.13        76.35972
860.54        76.35564
860.94        76.31977
861.34        76.24036
861.75        76.10577
862.15        75.96732
862.55        75.81311
862.96        75.64177
863.36        75.48153
863.76        75.36407
864.17         75.2925
864.57        75.28311
864.97        75.30975
865.38        75.30563
865.78        75.30062
866.18         75.2778
866.58        75.25063
866.99        75.26166
867.39        75.34631
867.79        75.45092
868.19        75.53625
868.60        75.50809
869.00        75.34444
869.40        75.11213
869.80        74.86512
870.21        74.71403
870.61        74.77591
871.01        74.94473
871.41        75.19254
871.81        75.48708
872.22        75.77207
872.62        76.07618
873.02         76.3383
873.42        76.43141
873.82        76.33145
874.22        76.10211
874.63        75.83221
875.03        75.61632
875.43        75.50213
875.83        75.45525
876.23        75.52032
876.63        75.76437
877.03        76.16882
877.44        76.69256
877.84        77.17914
878.24         77.3335
878.64        77.09629
879.04        76.56364
879.44        75.93925
879.84        75.51238
880.24        75.35281
880.64        75.39626
881.04        75.53345
881.44        75.57051
881.84        75.45016
882.24        75.22478
882.65        74.98383
883.05        74.97865
883.45        75.20044
883.85        75.55663
884.25        75.88318
884.65        75.94461
885.05        75.70531
885.45        75.26585
885.85        74.76155
886.25        74.42839
886.65        74.35504
887.05        74.46481
887.45         74.7219
887.85        75.07249
888.25        75.46149
888.65        75.88577
889.04        76.23796
889.44        76.37927
889.84        76.25927
890.24        75.91527
890.64        75.45034
891.04        75.04311
891.44          74.771
891.84        74.62753
892.24        74.58324
892.64        74.57671
893.04        74.58935
893.44        74.62965
893.83        74.78255
894.23        75.10662
894.63        75.61104
895.03        76.24204
895.43        76.80594
895.83        77.00358
896.23        76.78603
896.63        76.25474
897.02        75.64481
897.42        75.35387
897.82        75.44807
898.22        75.82158
898.62        76.28291
899.01        76.51557
899.41        76.40735
899.81        76.07775
900.21         75.6703
900.61        75.41807
901.00        75.38393
901.40         75.5005
901.80        75.68053
902.20        75.80634
902.59        75.84654
902.99        75.83244
903.39          75.794
903.79        75.75619
904.18        75.73338
904.58        75.72625
904.98        75.73325
905.38        75.77309
905.77        75.82492
906.17        75.86269
906.57        75.89149
906.96        75.93761
907.36        75.97487
907.76        76.05257
908.15        76.05741
908.55        75.72151
908.95        75.07677
909.34        74.20118
909.74        73.48531
910.14        73.47905
910.53        74.26416
910.93        75.61116
911.33        77.08379
911.72        77.92831
912.12        77.91428
912.52        77.32059
912.91        76.41309
913.31        75.59943
913.70        75.01601
914.10        74.53859
914.49        74.27098
914.89        74.34146
915.29        74.76914
915.68        75.51878
916.08        76.37118
916.47        76.95111
916.87        77.16589
917.26        77.05972
917.66        76.76488
918.05        76.48652
918.45        76.28757
918.84        76.13904
919.24        75.98252
919.64        75.80853
920.03        75.64348
920.42        75.53509
920.82        75.50627
921.21        75.55921
921.61        75.67341
922.00        75.82263
922.40        76.04104
922.79        76.47188
923.19        77.05474
923.58        77.76319
923.98        78.30526
924.37        78.30525
924.77        77.70906
925.16        76.62984
925.55        75.45406
925.95        74.85892
926.34        75.02763
926.74        75.73775
927.13        76.66095
927.52        77.15694
927.92        77.07627
928.31        76.61638
928.70          75.991
929.10        75.50735
929.49        75.27412
929.89        75.15147
930.28        75.17812
930.67        75.31569
931.07        75.51855
931.46        75.83702
931.85        76.16521
932.24        76.35629
932.64        76.38071
933.03        76.26527
933.42        76.10011
933.82        76.04343
934.21        76.14149
934.60        76.35144
934.99        76.61113
935.39        76.79016
935.78        76.88377
936.17        76.92078
936.56        76.93716
936.96        76.97914
937.35        77.10842
937.74        77.26556
938.13        77.42234
938.53          77.551
938.92        77.64053
939.31         77.6851
939.70        77.69559
940.09        77.68317
940.49        77.63316
940.88        77.59729
941.27        77.53191
941.66        77.37469
942.05        77.13585
942.44        76.84973
942.84        76.65351
943.23        76.71158
943.62        77.07893
944.01         77.6925
944.40        78.38176
944.79        78.84171
945.18        78.95515
945.57        78.77338
945.97        78.40423
946.36        78.09202
946.75        77.87815
947.14        77.72659
947.53        77.54789
947.92        77.19667
948.31        76.66959
948.70        76.04848
949.09        75.52435
949.48        75.36948
949.87        75.61738
950.26        76.16158
950.65        76.76711
951.04         77.0652
951.43        76.95287
951.82        76.52293
952.21        75.94102
952.60        75.51417
952.99        75.35489
953.38          75.382
953.77        75.49291
954.16        75.52823
954.55        75.43648
954.94        75.26358
955.33        75.07825
955.72        74.98526
956.11        75.00086
956.50        75.08015
956.89        75.11256
957.28        74.91156
957.66        74.48323
958.05        73.91178
958.44        73.35255
958.83        73.03821
959.22        73.01901
959.61        73.16647
960.00         73.4729
960.39        73.92726
960.78        74.46812
961.16          75.144
961.55         75.5953
961.94        75.32514
962.33        74.29321
962.72        72.72198
963.11        71.18945
963.49        70.54412
963.88        70.96803
964.27        72.23798
964.66        73.92264
965.04        75.21896
965.43        75.73065
965.82        75.69656
966.21        75.39667
966.60        75.29551
966.98        75.53339
967.37        75.89738
967.76        76.22311
968.15        76.21865
968.53        75.82275
968.92        75.19842
969.31        74.52345
969.69         73.9987
970.08        73.69181
970.47        73.56158
970.86        73.65957
971.24        74.08541
971.63         74.7357
972.02        75.54577
972.40        76.36684
972.79        76.87206
973.17        77.08302
973.56         76.9944
973.95        76.72318
974.33        76.45142
974.72        76.24992
975.11        76.08865
975.49        75.92033
975.88        75.69327
976.26        75.41482
976.65        75.09727
977.04        74.82742
977.42        74.71941
977.81        74.73718
978.19        74.82391
978.58        74.97689
978.96        75.12594
979.35        75.21461
979.74        75.33096
980.12         75.4362
980.51        75.23686
980.89        74.82487
981.28         74.1609
981.66          73.633
982.05        73.95632
982.43        75.21837
982.82        77.10495
983.20        78.98972
983.59        79.75249
983.97        79.25279
984.35        77.76609
984.74        75.81539
985.12        74.37418
985.51        73.80177
985.89        73.85019
986.28        74.29887
986.66        74.88981
987.04        75.44489
987.43           76.01
987.81         76.4961
988.20        76.61063
988.58        76.35316
988.96        75.80948
989.35        74.98615
989.73        74.01145
990.12        72.91792
990.50        71.62367
990.88        70.59431
991.27        70.79359
991.65        72.37588
992.03        74.93519
992.42        77.31406
992.80        78.41074
993.18        77.97321
993.56        76.19336
993.95        73.70267
994.33         72.1739
994.71        72.46567
995.10        73.87703
995.48        75.53436
995.86        76.43565
996.24          76.462
996.63        75.87288
997.01        75.07178
997.39        74.75667
997.77        75.20597
998.15        76.13837
998.54        77.00536
998.92        77.11204
999.30         76.3316
999.68        74.90057
1000.06        73.35629
1000.45        72.64032
1000.83        73.09711
1001.21        74.32472
1001.59        75.76813
1001.97        76.61567
1002.35        76.67144
1002.73        76.24279
1003.12        75.44901
1003.50        74.48107
1003.88        73.62812
1004.26         72.7821
1004.64        72.35464
1005.02        72.89739
1005.40        74.38983
1005.78        76.74153
1006.16        79.12349
1006.54        79.97688
1006.92        78.89742
1007.30        76.30836
1007.69        73.37486
1008.07        72.00687
1008.45        72.76443
1008.83        74.98455
1009.21        77.60906
1009.59        79.12289
1009.97        79.08501
1010.35        77.83928
1010.73        75.76749
1011.11        73.96037
1011.49        73.10397
1011.86        73.00862
1012.24        73.23253
1012.62        73.36018
1013.00        73.30389
1013.38        73.39668
1013.76        73.72117
1014.14        74.34171
1014.52        75.28643
1014.90        76.34586
1015.28        77.75137
1015.66        79.91103
1016.04        82.66252
1016.41        85.81406
1016.79        88.11663
1017.17        88.21754
1017.55        86.01046
1017.93        81.98773
1018.31        77.58049
1018.69        75.01057
1019.06        74.94926
1019.44        77.04279
1019.82        80.11539
1020.20        81.57626
1020.58        80.52299
1020.95        77.73787
1021.33        74.83141
1021.71        73.80453
1022.09        74.90766
1022.46         77.4306
1022.84        80.11726
1023.22        80.62096
1023.60        78.11642
1023.97        72.84779
1024.35         66.3877
1024.73        62.28022
