SpectraSmart Spectrum 2.9.0.0
--------- Device Information -----------
Spectrum Name :  反射率_0
Saving Time :  2024/04/27 23:36:21
Spectro-Module Model Name : SE2030-DUVN
Spectro-Module Serial Number : OS361AC55029948
Wavelength Start : 200
Wavelength End : 1025
Wavelength Unit : Wavelength(nm)
Spectrum Unit : Reflectance(%)
-----------Spectrum Setting ------------
Integration Time : 20ms
Average : 10
Boxcar : 0
Background removal :  enabled
linearity correction :  enabled
SC :  disabled
Intensity correction :  disabled
DWT denoise :  enabled
savitzky-golay :  disabled
FFT :  disabled
Running average :  disabled
Kalman :  disabled
High pass :  disabled
---------------BEGIN--------------------
Wavelength(nm)             Reflectance(%)
200.29               0
200.75        66.30154
201.21         74.0283
201.67        79.38108
202.13        80.87959
202.58        79.52727
203.04        77.32732
203.50         74.8562
203.96         72.9182
204.42        71.98673
204.88         71.7572
205.34         72.0195
205.80        72.81016
206.26        74.09007
206.72        75.77848
207.18        78.40034
207.64        81.26505
208.10        82.56614
208.55         83.0616
209.01        81.83233
209.47        78.37538
209.93         71.0331
210.39        52.27063
210.85       -3.568518
211.31        -67.9622
211.77        15.17574
212.23        68.30277
212.69         86.4451
213.14        91.11828
213.60        88.71168
214.06        80.05016
214.52        63.37366
214.98        49.65572
215.44        52.43695
215.90        61.97647
216.36        69.80135
216.81        72.75941
217.27        71.97241
217.73         69.5696
218.19         65.9526
218.65         61.4031
219.11         56.3449
219.57        50.28752
220.02        44.53982
220.48        43.78942
220.94        48.52407
221.40        56.32493
221.86        63.99924
222.32        68.57447
222.77        69.97295
223.23        69.34641
223.69        67.42703
224.15        64.71861
224.61         61.4582
225.06        57.41113
225.52        53.44665
225.98        51.24089
226.44        51.09674
226.90        51.91581
227.36        52.94016
227.81        53.53135
228.27        53.58368
228.73         53.3199
229.19        52.10627
229.65         48.9227
230.10        43.91893
230.56        38.06525
231.02        32.94548
231.48         30.6988
231.93        31.37318
232.39        34.07844
232.85        37.60842
233.31        40.29571
233.77        41.70504
234.22         42.4839
234.68         42.5911
235.14        42.08089
235.60        41.09005
236.05        39.34268
236.51        37.76649
236.97         38.3321
237.43        41.61167
237.88        47.19841
238.34        52.91911
238.80         56.7135
239.26        58.27295
239.71        57.60212
240.17        55.15232
240.63        54.98954
241.08         59.6723
241.54        65.67295
242.00         69.8786
242.46        71.39515
242.91        70.76701
243.37        67.44627
243.83        60.43375
244.28        54.48006
244.74        61.37269
245.20        76.39174
245.66        86.43036
246.11        88.78367
246.57        85.54241
247.03        76.15909
247.48        60.88674
247.94         51.3523
248.40        58.93956
248.85        76.69123
249.31        94.07282
249.77        102.6197
250.22        103.3712
250.68        100.4772
251.14        96.91851
251.59        95.01378
252.05        94.90588
252.51         95.5452
252.96         95.0707
253.42        90.35583
253.88        81.87317
254.33        73.80904
254.79        68.83163
255.25        66.46255
255.70        65.55554
256.16        65.83156
256.62        66.77533
257.07        67.98645
257.53        69.39401
257.99        70.42347
258.44        70.54673
258.90        69.74954
259.35         67.9006
259.81        65.75067
260.27        63.45731
260.72        61.29678
261.18        59.70055
261.63        58.27294
262.09        57.14856
262.55         56.0602
263.00         54.8724
263.46        53.76926
263.91        52.66452
264.37        51.79857
264.83        51.10081
265.28        50.47401
265.74        49.85896
266.19        48.96667
266.65        47.85031
267.11        46.55969
267.56        45.22904
268.02        44.17426
268.47        43.42152
268.93        42.88822
269.38        42.45831
269.84        41.97819
270.30        41.37696
270.75        40.69112
271.21        39.90994
271.66        38.97069
272.12        37.90894
272.57        36.71711
273.03        35.52436
273.48        34.45467
273.94        33.60387
274.39        32.91566
274.85        32.37317
275.31        31.86327
275.76        31.33265
276.22        30.82421
276.67        30.32804
277.13        29.92275
277.58        29.56154
278.04        29.26039
278.49        28.90215
278.95        28.42976
279.40         27.8018
279.86        27.12056
280.31        26.46138
280.77        26.04539
281.22        25.85968
281.68        25.86273
282.13        25.91838
282.59        25.88225
283.04        25.70339
283.50        25.44329
283.95         25.1515
284.41        24.93866
284.86        24.81904
285.32         24.7793
285.77        24.75976
286.22        24.71098
286.68        24.63885
287.13        24.53178
287.59        24.46587
288.04        24.48082
288.50        24.60419
288.95        24.78045
289.41        24.96322
289.86        25.03822
290.32        25.01542
290.77        24.94333
291.22        24.89379
291.68        24.96584
292.13         25.1873
292.59        25.54775
293.04        26.05882
293.50        26.75641
293.95        27.62508
294.40        28.67231
294.86        29.82087
295.31         30.9396
295.77        32.01158
296.22        33.04496
296.68        34.15237
297.13        35.48846
297.58        37.07025
298.04        38.83132
298.49        40.61732
298.95        42.24022
299.40         43.6732
299.85         45.0022
300.31        46.39371
300.76        48.04523
301.21        49.99585
301.67        52.17074
302.12        54.38693
302.58        56.46106
303.03        58.31741
303.48        60.03591
303.94        61.76401
304.39        63.63954
304.84        65.71483
305.30        67.93748
305.75        70.14314
306.20         72.1776
306.66        74.02364
307.11        75.68692
307.57         77.2995
308.02        78.94324
308.47        80.65235
308.93        82.38445
309.38        84.01486
309.83        85.45804
310.29        86.72482
310.74        87.84376
311.19        88.89614
311.65        89.97916
312.10        91.08211
312.55        92.16653
313.00        93.21983
313.46        94.23648
313.91        95.18916
314.36        96.10033
314.82        96.90466
315.27        97.48965
315.72         97.8474
316.18        98.03032
316.63        98.15535
317.08        98.44639
317.53        98.95873
317.99        99.63368
318.44        100.3587
318.89        100.9179
319.35        101.2529
319.80        101.4328
320.25        101.5636
320.70        101.8235
321.16        102.2464
321.61        102.7903
322.06        103.3505
322.51        103.7737
322.97        104.0028
323.42        104.1212
323.87        104.2019
324.32        104.3843
324.78        104.6922
325.23        105.1195
325.68        105.5737
326.13        105.9324
326.59        106.1367
327.04        106.2746
327.49        106.3995
327.94        106.6318
328.39        107.0076
328.85        107.4615
329.30        107.9913
329.75        108.4344
330.20        108.7487
330.66          108.94
331.11         109.147
331.56        109.4764
332.01        109.9705
332.46        110.5937
332.92        111.2172
333.37        111.7738
333.82        112.1706
334.27        112.4433
334.72        112.6845
335.17        113.0506
335.63        113.5559
336.08        114.2083
336.53        114.8806
336.98         115.409
337.43        115.7521
337.88        115.9659
338.34        116.1379
338.79        116.4638
339.24        116.9763
339.69        117.6271
340.14        118.3298
340.59        118.9448
341.05        119.4327
341.50         119.843
341.95         120.234
342.40        120.7127
342.85        121.3024
343.30         121.952
343.75        122.6015
344.20        123.1621
344.66        123.6072
345.11        123.9596
345.56        124.2392
346.01        124.4703
346.46        124.6752
346.91        124.8606
347.36        125.0505
347.81        125.2815
348.26        125.5598
348.72        125.8719
349.17        126.2066
349.62        126.5642
350.07        126.9218
350.52        127.2683
350.97        127.5364
351.42        127.6236
351.87        127.5178
352.32        127.2536
352.77        126.9222
353.22        126.6706
353.67        126.5299
354.13        126.4645
354.58        126.3815
355.03         126.193
355.48        125.8668
355.93        125.4419
356.38        124.9298
356.83        124.3428
357.28         123.704
357.73         123.024
358.18        122.3472
358.63        121.7403
359.08        121.2203
359.53        120.7731
359.98        120.3683
360.43        119.9546
360.88        119.5024
361.33        119.0019
361.78        118.4544
362.23         117.863
362.68        117.2231
363.13        116.5484
363.58        115.8087
364.03        114.8864
364.48        113.9121
364.93        112.8486
365.38        111.8127
365.83        110.9263
366.28        110.2171
366.73        109.6321
367.18        109.1388
367.63        108.6829
368.08        108.2254
368.53         107.778
368.98        107.2591
369.43        106.5408
369.88        105.6136
370.33        104.5146
370.78        103.3965
371.23        102.5158
371.68        101.9319
372.13        101.5725
372.58        101.2979
373.03        100.8686
373.48        100.2201
373.93        99.43793
374.38        98.60277
374.83        97.83768
375.28        97.18497
375.72        96.57651
376.17         96.0461
376.62        95.58316
377.07        95.16822
377.52        94.79206
377.97          94.405
378.42        93.92527
378.87        93.34187
379.32        92.69147
379.77        92.00563
380.22        91.32955
380.67        90.68418
381.11        90.06341
381.56        89.50172
382.01        89.06612
382.46        88.77006
382.91        88.60085
383.36         88.4783
383.81        88.27106
384.26        87.94531
384.71        87.52644
385.15        87.07244
385.60        86.74458
386.05        86.54549
386.50        86.41843
386.95        86.28052
387.40        86.01138
387.85        85.59496
388.29        85.04594
388.74        84.51878
389.19         84.0203
389.64        83.56742
390.09        83.13622
390.54        82.75034
390.98        82.43985
391.43        82.24918
391.88        82.12365
392.33        81.98583
392.78        81.81534
393.23        81.59509
393.67        81.14557
394.12        80.58651
394.57        80.56554
395.02        79.93461
395.47        79.82453
395.91        79.85943
396.36        79.81875
396.81        79.69239
397.26        79.65603
397.71        79.65195
398.15        79.52151
398.60        79.34516
399.05         78.9089
399.50        78.39341
399.95        78.44472
400.39        78.89017
400.84        78.77135
401.29        78.08277
401.74        77.36987
402.18        76.86455
402.63        76.83897
403.08        77.19497
403.53        77.25297
403.97        76.96136
404.42        76.81028
404.87        76.78812
405.32        76.70545
405.76        76.55241
406.21        76.25258
406.66        75.91504
407.11        75.98702
407.55        76.36781
408.00        76.38954
408.45        75.99848
408.90        75.43436
409.34        74.86095
409.79        74.62055
410.24        74.69878
410.68        74.71078
411.13        74.63875
411.58        74.78819
412.03        75.08233
412.47        75.21062
412.92        75.10029
413.37        74.86986
413.81         74.6011
414.26        74.47142
414.71        74.50019
415.15         74.6498
415.60        74.83344
416.05        74.97076
416.49        75.02883
416.94        75.02071
417.39        74.97406
417.83        74.92395
418.28        74.87873
418.73        74.81752
419.17         74.7375
419.62        74.64266
420.07        74.54709
420.51         74.4592
420.96        74.39767
421.41        74.36092
421.85        74.31643
422.30         74.2191
422.74        74.09813
423.19        74.28928
423.64        74.71254
424.08         74.9648
424.53        74.88705
424.98        74.83217
425.42        74.83965
425.87        74.39278
426.31        73.75462
426.76          74.094
427.21        75.17999
427.65        75.31415
428.10        74.55791
428.54        74.40147
428.99        74.89776
429.44        75.30696
429.88         75.4564
430.33         75.2707
430.77        74.85571
431.22        74.77234
431.66         75.0184
432.11        75.39732
432.56        75.83517
433.00        75.77595
433.45        75.15269
433.89        75.10753
434.34        76.21297
434.78         74.8248
435.23        75.24879
435.67        74.88584
436.12        76.67428
436.57        76.87515
437.01        76.27016
437.46        75.86511
437.90        76.15148
438.35        77.18365
438.79        76.57877
439.24        76.56643
439.68        76.46555
440.13        76.33584
440.57        76.24121
441.02        76.38642
441.46        76.65948
441.91        76.71458
442.35        76.57045
442.80        76.45409
443.24        77.06824
443.69        77.24718
444.13        77.17175
444.58           77.18
445.02         77.2544
445.47        77.23291
445.91        77.12423
446.36        77.07587
446.80        77.08621
447.24        77.11345
447.69        77.17868
448.13        77.32629
448.58        77.53284
449.02        77.66488
449.47        77.72879
449.91        77.80732
450.36         77.9227
450.80        77.96992
451.25        77.97672
451.69        78.06956
452.13        78.14495
452.58        78.18663
453.02        78.16236
453.47        78.10301
453.91        77.98785
454.36        77.95898
454.80        77.93536
455.24        77.50679
455.69        76.81282
456.13        76.65292
456.58        76.33035
457.02        76.54315
457.46          77.026
457.91        76.81236
458.35        76.30347
458.79        76.02483
459.24        76.12812
459.68         76.0554
460.13        75.80954
460.57        75.62423
461.01        75.77721
461.46        74.96466
461.90        75.40731
462.34        74.98134
462.79        75.30125
463.23        75.40301
463.68        75.52211
464.12        75.39922
464.56        75.10502
465.01        75.13396
465.45        75.27879
465.89        75.13495
466.34        74.78687
466.78        74.31051
467.22         73.8175
467.67        74.34419
468.11        74.38523
468.55        74.48346
468.99        74.21337
469.44         74.1421
469.88        74.26411
470.32         74.2347
470.77        74.04631
471.21        73.85407
471.65        73.67537
472.10        73.49349
472.54        73.30873
472.98        73.20053
473.42        73.18807
473.87        73.14954
474.31        73.07119
474.75        73.33194
475.20        73.76711
475.64        73.62133
476.08        73.01749
476.52         72.7903
476.97        72.98557
477.41        72.89713
477.85        73.31578
478.29        72.62167
478.74         73.1759
479.18        72.21344
479.62        72.93896
480.06        72.82816
480.50        72.66528
480.95        72.54478
481.39        72.43711
481.83        72.50716
482.27        72.65679
482.72        72.38701
483.16        72.76743
483.60        72.71636
484.04        72.61452
484.48        72.44315
484.93        72.47606
485.37        72.36641
485.81        72.49894
486.25        73.15368
486.69        73.49429
487.14        72.60902
487.58         72.2657
488.02        72.82983
488.46        72.92473
488.90        72.43463
489.34        72.46655
489.79        71.46985
490.23        72.16773
490.67        72.02193
491.11        71.74651
491.55        71.69728
491.99         71.8543
492.43        71.92329
492.88        71.85829
493.32        71.82646
493.76         71.8052
494.20        71.82278
494.64        71.91296
495.08        71.84868
495.52        71.68882
495.96        72.09117
496.41        72.83326
496.85        72.53015
497.29        71.41527
497.73        71.31419
498.17        72.04697
498.61        72.18211
499.05         71.6321
499.49          71.463
499.93        71.71064
500.37        71.65462
500.82        71.30698
501.26        71.41781
501.70        72.09744
502.14        71.36746
502.58        71.80776
503.02        71.75393
503.46        71.66821
503.90        71.57458
504.34         71.4388
504.78        71.43339
505.22        71.53088
505.66        71.58348
506.10         71.5697
506.54         71.6265
506.98        71.75754
507.42        71.59371
507.86        71.72044
508.30        71.62238
508.74        71.64697
509.18        71.63173
509.62        71.61023
510.06        71.54051
510.50        71.41733
510.94        71.26131
511.38        71.11692
511.82        71.05585
512.26        71.09055
512.70        71.20203
513.14        71.34076
513.58        71.40023
514.02         71.3546
514.46        71.27919
514.90        71.22967
515.34        71.06486
515.78        71.18141
516.22        71.24557
516.66        71.34182
517.10        71.41749
517.54        71.45765
517.98        71.47251
518.42        71.45695
518.86        71.41142
519.30        71.34192
519.74        71.25181
520.18        71.15965
520.62        71.09576
521.06        71.06786
521.50        71.06813
521.93        71.09161
522.37         71.1123
522.81        71.12617
523.25        71.13671
523.69        71.13395
524.13        71.10263
524.57        71.04366
525.01        70.96304
525.45        70.88107
525.89        70.83062
526.32        70.81393
526.76        70.83516
527.20        70.87487
527.64        70.90984
528.08        70.92949
528.52        70.93468
528.96        70.93116
529.40        70.92812
529.83         70.9213
530.27        70.92307
530.71        70.90967
531.15        70.85594
531.59        70.76115
532.03        70.63338
532.46        70.50842
532.90        70.46464
533.34        70.50773
533.78        70.61655
534.22        70.73032
534.66        70.75589
535.09        70.66777
535.53        70.51625
535.97        70.35219
536.41        70.27301
536.85        70.30247
537.28        70.41224
537.72        70.55179
538.16           70.63
538.60        70.62612
539.04        70.58369
539.47        70.52173
539.91        70.50854
540.35        70.54005
540.79        70.60719
541.22        70.67283
541.66        70.69021
542.10        70.64471
542.54        70.55331
542.97        70.44312
543.41        70.39404
543.85        70.40705
544.29        70.46783
544.72        70.52068
545.16        70.51347
545.60        70.41948
546.04        70.26119
546.47        70.09853
546.91        70.01814
547.35        70.03883
547.79         70.1794
548.22        70.33736
548.66        70.33067
549.10        70.15839
549.53        70.03967
549.97        70.02582
550.41        70.03495
550.84        70.08009
551.28        70.23354
551.72        70.42585
552.15        70.49522
552.59         70.4299
553.03        70.25868
553.46        70.04606
553.90        69.93988
554.34          69.952
554.77        70.06654
555.21        70.18745
555.65        70.16504
556.08        69.90782
556.52        69.65099
556.96        69.46596
557.39        69.50333
557.83        69.71749
558.27        69.96602
558.70        69.85363
559.14        69.91055
559.57        70.00035
560.01        70.03577
560.45        69.98157
560.88        69.83018
561.32        69.68805
561.75        69.57392
562.19        69.55691
562.63        69.74479
563.06        70.01978
563.50         69.9969
563.93        69.71501
564.37        69.55064
564.80        69.70508
565.24        69.78485
565.68        69.81186
566.11        69.84057
566.55        69.89322
566.98        69.90295
567.42        69.88173
567.85        69.92347
568.29         70.0558
568.72        69.91389
569.16        69.56647
569.60        69.83735
570.03        70.10949
570.47        69.99765
570.90        70.10932
571.34        70.73125
571.77        70.59315
572.21        70.21878
572.64        70.41862
573.08        70.10793
573.51        70.12907
573.95        70.25242
574.38        70.56591
574.82         70.2387
575.25        70.33716
575.69        70.33633
576.12         69.8012
576.56        70.33675
576.99         70.3623
577.42        69.97363
577.86        70.11602
578.29        70.54234
578.73        70.08209
579.16        70.17708
579.60        70.31219
580.03        70.19337
580.47        70.09432
580.90        70.48586
581.33        70.35969
581.77        70.81676
582.20        70.47784
582.64        70.29692
583.07         70.4142
583.51        70.25023
583.94        70.17185
584.37         70.0781
584.81        70.08762
585.24        70.19337
585.68        70.37946
586.11        70.38408
586.54        70.31583
586.98        70.08433
587.41        70.29685
587.85        70.19785
588.28        70.31316
588.71        70.03297
589.15        70.61786
589.58        69.81225
590.01        70.22408
590.45        70.27257
590.88        69.63551
591.31        69.54473
591.75        69.65192
592.18        69.72449
592.61        69.81458
593.05        69.83511
593.48        70.30416
593.91        70.00041
594.35        69.96041
594.78        70.13396
595.21        69.56656
595.65        69.47926
596.08        69.57085
596.51        69.50661
596.94        69.55924
597.38        69.67563
597.81        70.07724
598.24        69.38788
598.68        69.85233
599.11        69.72245
599.54         69.8734
599.97        69.44145
600.41        69.92966
600.84        69.91145
601.27        69.81129
601.70        69.37561
602.14        69.01516
602.57        69.30643
603.00        69.56013
603.43        69.60622
603.87        69.55328
604.30          69.614
604.73        69.41124
605.16        69.47391
605.60        69.58658
606.03        69.78532
606.46        69.98151
606.89        69.75067
607.32        69.63419
607.76        69.86195
608.19        69.58687
608.62        69.55016
609.05        69.49361
609.48         69.4554
609.92        69.41779
610.35        69.51801
610.78        69.74705
611.21        69.40367
611.64        69.84461
612.07        69.65349
612.50        69.30157
612.94        69.21233
613.37        69.49386
613.80        69.28191
614.23        69.71178
614.66        69.69582
615.09        69.55572
615.52        69.53711
615.96        69.71991
616.39        69.35207
616.82        69.34016
617.25        69.69569
617.68        69.58723
618.11        69.45454
618.54        69.12623
618.97        69.16279
619.40        69.44074
619.84        69.82046
620.27        69.51443
620.70        69.36668
621.13        69.14817
621.56        69.38531
621.99        69.18397
622.42        68.98417
622.85         69.2009
623.28        69.18851
623.71        69.19946
624.14        68.76251
624.57        69.19907
625.00        69.28894
625.43        69.07278
625.86        69.07858
626.29        69.19537
626.72        69.22775
627.15        69.07679
627.58        69.03353
628.01        69.14929
628.44         68.8225
628.87        68.62125
629.30        69.09521
629.73        68.89571
630.16        68.66212
630.59        68.84048
631.02        68.93291
631.45        69.11819
631.88        69.21319
632.31        69.23286
632.74        68.89043
633.17        68.91443
633.60        68.81212
634.03        68.80519
634.46        68.86247
634.89        68.94899
635.32        68.97717
635.75         68.9197
636.18        68.85074
636.61        68.79301
637.04        68.67307
637.47        68.58813
637.89        68.67599
638.32        68.88421
638.75        68.98402
639.18        68.94897
639.61        68.90176
640.04        68.85782
640.47        68.80817
640.90        68.76666
641.33        68.70695
641.76        68.62368
642.18        68.68124
642.61        68.60609
643.04        68.60942
643.47        68.61304
643.90        68.62014
644.33        68.62673
644.76         68.6386
645.18        68.64221
645.61        68.60324
646.04        68.51844
646.47        68.38654
646.90        68.25955
647.33        68.21917
647.75        68.29013
648.18         68.4736
648.61        68.67047
649.04        68.74157
649.47        68.67957
649.89        68.42377
650.32        68.11961
650.75        68.30263
651.18        68.84366
651.61        68.90601
652.03         68.4521
652.46        68.19417
652.89        68.31348
653.32        68.17963
653.74        68.12656
654.17        68.93826
654.60        68.63255
655.03         68.3767
655.46        68.61979
655.88        68.81577
656.31        70.20827
656.74         72.0354
657.16        70.61671
657.59        70.05453
658.02        69.16446
658.45         69.1733
658.87        69.37293
659.30        69.05586
659.73        68.78671
660.15        68.57014
660.58        68.44943
661.01        68.60626
661.44        68.88062
661.86        69.04725
662.29        69.01958
662.72        68.84641
663.14        68.60902
663.57        68.49066
664.00        68.52225
664.42        68.50049
664.85        68.43711
665.27        68.49553
665.70        68.62893
666.13        68.67356
666.55        68.60962
666.98         68.4734
667.41        68.32912
667.83        68.27792
668.26        68.33581
668.69        68.49294
669.11        68.69303
669.54        68.75911
669.96         68.6545
670.39         68.5287
670.82        68.55695
671.24        68.13681
671.67        68.88156
672.09        68.98271
672.52        68.90263
672.94        68.78975
673.37        68.69379
673.80        68.58818
674.22        68.48843
674.65        68.36865
675.07        68.26411
675.50        68.22603
675.92        68.26559
676.35        68.33475
676.77        68.42762
677.20        68.55669
677.62         68.6966
678.05        68.78458
678.47         68.8051
678.90        68.77628
679.32        68.72365
679.75        68.70668
680.17        68.74158
680.60         68.8246
681.02        68.90572
681.45        68.91862
681.87        68.86764
682.30        68.66028
682.72        68.41227
683.15           68.55
683.57        68.99519
684.00        69.08004
684.42        68.82017
684.85        68.78353
685.27        68.96782
685.70        69.04771
686.12        69.02058
686.54        69.03455
686.97        69.09015
687.39        69.22757
687.82        69.39681
688.24        69.30299
688.66        69.26205
689.09        69.06485
689.51        68.89048
689.94        68.79578
690.36         68.8141
690.78         68.9156
691.21        69.04632
691.63        69.11392
692.06        69.09561
692.48        69.01997
692.90        68.91651
693.33        68.81848
693.75        68.74918
694.17        68.70502
694.60        68.67616
695.02         68.7011
695.44        68.77379
695.87        68.82072
696.29        68.85884
696.71         69.0726
697.14        69.36455
697.56        69.36914
697.98        69.12122
698.41        69.04791
698.83        69.14817
699.25        69.20929
699.68        69.20122
700.10        69.23399
700.52        69.29224
700.94        69.35461
701.37         69.3792
701.79        69.33399
702.21         69.1981
702.64        69.00568
703.06        68.80801
703.48        68.70275
703.90        68.71729
704.33        68.81979
704.75         68.9654
705.17        69.05539
705.59        69.06233
706.01        68.98875
706.44        68.88769
706.86        68.96702
707.28        69.04993
707.70        69.26512
708.12        69.49316
708.55        69.58448
708.97        69.53112
709.39        69.48057
709.81        69.46154
710.23        69.42694
710.66        69.39014
711.08        69.41122
711.50        69.45833
711.92        69.47485
712.34        69.45284
712.76        69.41222
713.19        69.35943
713.61        69.34967
714.03        69.37424
714.45        69.42125
714.87        69.47727
715.29        69.52326
715.71        69.55146
716.13        69.56482
716.56         69.5543
716.98        69.58076
717.40        69.62771
717.82        69.68861
718.24        69.74648
718.66        69.77525
719.08        69.76972
719.50        69.73645
719.92        69.70072
720.34        69.70247
720.76        69.74883
721.19        69.81858
721.61        69.89375
722.03        69.91335
722.45        69.86476
722.87        69.76673
723.29        69.65701
723.71        69.59503
724.13        69.60201
724.55        69.66794
724.97        69.76469
725.39        69.84529
725.81          69.894
726.23        69.91592
726.65        69.94488
727.07        70.03633
727.49        70.19447
727.91        70.39651
728.33        70.57288
728.75        70.61087
729.17        70.49081
729.59        70.25571
730.01        69.99242
730.43        69.84222
730.85        69.83999
731.27        69.93633
731.69        70.08714
732.10        70.22128
732.52         70.2989
732.94        70.39911
733.36        70.50437
733.78        70.47565
734.20        70.28838
734.62         70.4417
735.04        69.90532
735.46        70.14032
735.88        70.66827
736.30        70.66553
736.72        70.14755
737.13        69.90984
737.55        70.00583
737.97        70.00641
738.39        69.92244
738.81        70.03226
739.23         70.2833
739.65        70.39296
740.06        70.32894
740.48        70.34814
740.90         70.4195
741.32        70.47131
741.74        70.40904
742.16        70.43426
742.57        70.53281
742.99        70.65986
743.41        70.78215
743.83        70.83181
744.25        70.79465
744.67        70.68543
745.08        70.57783
745.50        70.54855
745.92        70.63384
746.34        70.81204
746.75        70.99235
747.17        71.03764
747.59        70.92264
748.01        70.64421
748.42        70.33418
748.84         70.2884
749.26        70.49161
749.68         70.6946
750.09        70.80782
750.51        70.76848
750.93         70.6269
751.35         70.6643
751.76        70.84828
752.18          70.846
752.60        70.65598
753.01         70.4886
753.43        70.38998
753.85        70.38236
754.27        70.47717
754.68        70.65743
755.10        70.86514
755.52        71.00252
755.93        71.06049
756.35        71.08155
756.77        71.04264
757.18        71.05316
757.60        71.15165
758.02        70.94535
758.43        70.56258
758.85        71.22179
759.26        71.79213
759.68        71.88251
760.10        71.36443
760.51        70.17754
760.93        70.76061
761.34        70.56982
761.76        70.93484
762.18        71.23776
762.59        71.59863
763.01        71.60609
763.42        71.38739
763.84        71.38756
764.26        71.65665
764.67        71.97944
765.09        72.24091
765.50        72.13287
765.92        71.73615
766.33        71.43855
766.75         71.2822
767.16        71.14573
767.58        71.01134
768.00        71.17155
768.41        71.53273
768.83        71.52629
769.24        71.22926
769.66        71.23028
770.07        71.49741
770.49        71.72276
770.90        71.83591
771.32        71.76951
771.73        71.59237
772.15        71.51654
772.56        71.57049
772.97        71.66244
773.39        71.73219
773.80        71.67381
774.22        71.53088
774.63        71.71284
775.05        72.11536
775.46          72.287
775.88        72.15435
776.29        72.00306
776.70          71.911
777.12        71.90809
777.53        72.04076
777.95        72.27064
778.36        72.53172
778.77         72.6972
779.19        72.74072
779.60        72.71259
780.02         72.6385
780.43        72.63554
780.84        72.71198
781.26        72.68661
781.67        72.65513
782.09        72.93769
782.50        73.23332
782.91         73.5901
783.33        72.22342
783.74        71.90401
784.15        72.16357
784.57        72.29346
784.98        72.24683
785.39        72.45008
785.81        72.81054
786.22        72.85661
786.63        72.64084
787.04        72.61359
787.46        72.81026
787.87        72.97269
788.28         73.0625
788.70        73.15077
789.11        73.21414
789.52        73.15006
789.93        73.01952
790.35        73.14272
790.76        73.44952
791.17        73.35258
791.58        72.91736
792.00        72.74976
792.41        72.90755
792.82        73.02026
793.23        73.08382
793.65        73.26507
794.06        73.55962
794.47        73.88391
794.88        74.12802
795.29        74.16882
795.71        74.10313
796.12        73.73208
796.53        73.24641
796.94        73.31947
797.35        73.87778
797.76        74.00256
798.18        73.67438
798.59        73.60009
799.00        73.78951
799.41        73.79547
799.82         73.6195
800.23         73.5121
800.64        73.49198
801.06        73.46332
801.47        73.45473
801.88        73.43487
802.29        73.40136
802.70        73.38368
803.11        73.37979
803.52        73.37304
803.93        73.36446
804.34        73.34815
804.75        73.36802
805.17         73.4865
805.58        73.73389
805.99        74.06097
806.40        74.36291
806.81        74.46825
807.22         74.3337
807.63        74.00219
808.04        73.60728
808.45        73.40444
808.86        73.46546
809.27        73.70983
809.68        74.02229
810.09        74.20429
810.50        74.19405
810.91        74.05506
811.32        73.87167
811.73        73.79588
812.14        73.87456
812.55        74.01044
812.96        74.15735
813.37        74.35433
813.78        74.51847
814.19        74.42497
814.60        74.15279
815.01        74.03344
815.42        74.10267
815.83        74.19344
816.24        74.25986
816.65        74.29871
817.05        74.29327
817.46        74.21213
817.87        74.12429
818.28        74.07712
818.69        74.08478
819.10        74.14377
819.51        74.21923
819.92        74.24644
820.33        74.21329
820.74        74.13697
821.14        74.07692
821.55        74.16271
821.96        74.39227
822.37        74.72367
822.78        75.06088
823.19        75.23106
823.60        75.18211
824.00        74.99133
824.41        74.68958
824.82        74.42354
825.23        74.24691
825.64        74.12946
826.04        74.11189
826.45        74.21532
826.86        74.43987
827.27        74.78247
827.68        75.14679
828.08        75.39567
828.49        75.42085
828.90        75.28619
829.31        75.09252
829.72        75.02654
830.12        75.15687
830.53        75.37563
830.94        75.60763
831.35        75.68981
831.75        75.59953
832.16        75.35435
832.57        75.03721
832.97        74.75179
833.38        74.54573
833.79        74.40367
834.20         74.3448
834.60         74.3914
835.01        74.54478
835.42        74.78785
835.82        75.08319
836.23        75.27732
836.64        75.35264
837.04        75.35561
837.45        75.27505
837.86        75.20296
838.26        75.18401
838.67        75.18796
839.08        75.23123
839.48        75.32321
839.89        75.45459
840.29        75.60889
840.70        75.78384
841.11        75.97575
841.51        76.18794
841.92        76.38326
842.33        76.49889
842.73        76.43042
843.14        76.12637
843.54        75.66434
843.95        75.19654
844.35        74.98674
844.76        75.08878
845.17        75.43555
845.57        75.89233
845.98        76.18573
846.38        76.25658
846.79        76.14669
847.19        75.95705
847.60        75.80817
848.00        75.76347
848.41        75.73533
848.81        75.71499
849.22         75.6194
849.62        75.47012
850.03        75.29371
850.43        75.11734
850.84        74.88397
851.24        74.64641
851.65        74.35011
852.05        74.16127
852.46        74.25681
852.86        74.64799
853.27        75.26921
853.67        75.82211
854.07        76.09531
854.48        76.01166
854.88        75.66734
855.29        75.14729
855.69        74.84309
856.10        74.78236
856.50        74.94852
856.90        75.15253
857.31        75.11771
857.71        74.83032
858.12        74.34286
858.52         73.8438
858.92        73.50245
859.33        73.35997
859.73        73.38321
860.13        73.49119
860.54        73.56831
860.94        73.60233
861.34        73.60822
861.75         73.5409
862.15        73.38804
862.55          73.137
862.96        72.80673
863.36        72.48698
863.76        72.32333
864.17        72.34248
864.57         72.5118
864.97        72.76307
865.38         72.9631
865.78        73.10782
866.18        73.20106
866.58        73.21054
866.99        73.10185
867.39        72.91742
867.79         72.6469
868.19        72.36751
868.60        72.15609
869.00        72.02594
869.40        71.99548
869.80        72.04949
870.21        72.15543
870.61        72.35294
871.01        72.56075
871.41        72.75697
871.81        72.91711
872.22        73.00951
872.62        73.07999
873.02        73.08954
873.42        72.97193
873.82        72.74084
874.22        72.43517
874.63        72.21873
875.03        72.29431
875.43        72.69121
875.83        73.33715
876.23        74.03912
876.63         74.4697
877.03        74.52451
877.44         74.2679
877.84        73.85848
878.24        73.54617
878.64        73.41021
879.04        73.37894
879.44        73.35952
879.84        73.21068
880.24        72.91073
880.64        72.53306
881.04        72.16387
881.44         71.9401
881.84        71.89986
882.24        71.97591
882.65        72.10234
883.05        72.27168
883.45        72.41593
883.85        72.57091
884.25        72.66322
884.65         72.5844
885.05        72.33319
885.45        71.91827
885.85        71.53778
886.25        71.53794
886.65         71.9788
887.05        72.75586
887.45        73.54147
887.85        73.83124
888.25        73.52433
888.65        72.76415
889.04        71.88065
889.44        71.47479
889.84        71.67571
890.24        72.29044
890.64        73.00002
891.04        73.29971
891.44        73.06723
891.84        72.49718
892.24        71.80994
892.64        71.33591
893.04        71.19113
893.44        71.27554
893.83        71.55153
894.23        71.89808
894.63        72.28334
895.03        72.72724
895.43        73.19464
895.83        73.61523
896.23         73.9516
896.63        74.18449
897.02        74.30047
897.42        74.34378
897.82        74.32159
898.22        74.25064
898.62        74.14851
899.01        74.05305
899.41        73.96417
899.81        73.89053
900.21        73.86968
900.61        73.95385
901.00        74.12798
901.40        74.38413
901.80        74.61838
902.20        74.67914
902.59        74.54941
902.99        74.26665
903.39        73.93814
903.79        73.73254
904.18        73.69961
904.58        73.79839
904.98        73.97806
905.38        74.17133
905.77        74.33467
906.17        74.48152
906.57        74.59455
906.96         74.6641
907.36        74.65913
907.76        74.60435
908.15        74.48373
908.55         74.2046
908.95        73.81504
909.34        73.34173
909.74        72.96798
910.14         72.9114
910.53        73.20791
910.93        73.75838
911.33        74.38999
911.72        74.79612
912.12        74.86835
912.52        74.72665
912.91         74.4432
913.31        74.16044
913.70        73.92436
914.10        73.66331
914.49        73.48688
914.89        73.53311
915.29        73.82941
915.68        74.33171
916.08        74.81502
916.47        74.90942
916.87        74.56453
917.26         73.8801
917.66        73.11456
918.05        72.64196
918.45        72.56159
918.84        72.79738
919.24        73.16837
919.64        73.45677
920.03        73.59689
920.42        73.63956
920.82         73.6738
921.21          73.824
921.61        74.10035
922.00        74.45858
922.40        74.79342
922.79        75.01938
923.19        75.06714
923.58        75.01212
923.98         74.8728
924.37        74.73268
924.77        74.60625
925.16        74.45634
925.55        74.32143
925.95        74.25687
926.34        74.27211
926.74         74.3618
927.13        74.46307
927.52        74.36652
927.92        74.06995
928.31        73.61771
928.70        73.20966
929.10        73.14722
929.49        73.47735
929.89        74.06657
930.28        74.73828
930.67        75.05644
931.07        74.88404
931.46        74.38666
931.85        73.72168
932.24        73.17086
932.64        72.83836
933.03         72.6541
933.42        72.61259
933.82        72.70193
934.21        72.89889
934.60        73.21568
934.99        73.59924
935.39        73.91809
935.78        74.16656
936.17        74.35676
936.56        74.48967
936.96        74.58028
937.35        74.68496
937.74        74.74144
938.13        74.81605
938.53         75.0201
938.92        75.35996
939.31        75.80195
939.70         76.1815
940.09        76.20389
940.49        75.78573
940.88        75.06661
941.27        74.26777
941.66        73.72559
942.05        73.53835
942.44        73.64946
942.84        73.91643
943.23        74.03677
943.62        73.94893
944.01        73.70334
944.40        73.48391
944.79        73.60954
945.18        74.11701
945.57         74.8562
945.97        75.47031
946.36        75.51491
946.75        74.88688
947.14        73.75698
947.53        72.45831
947.92         71.5827
948.31        71.32879
948.70        71.52123
949.09        71.95924
949.48        72.31395
949.87        72.46147
950.26         72.5108
950.65         72.4594
951.04        72.28677
951.43        72.02295
951.82        71.66427
952.21        71.31068
952.60        71.16881
952.99        71.28681
953.38        71.58643
953.77        71.99494
954.16        72.39693
954.55        72.71609
954.94        72.95316
955.33        73.01218
955.72        72.73633
956.11        72.12225
956.50         71.2575
956.89        70.28606
957.28        69.47018
957.66        68.96924
958.05        68.72668
958.44        68.81742
958.83        69.32319
959.22         70.1636
959.61        71.22263
960.00         72.2299
960.39        72.76742
960.78        72.72643
961.16         72.2604
961.55        71.39917
961.94        70.37202
962.33        69.35218
962.72         68.3487
963.11        67.61809
963.49        67.50747
963.88        68.04613
964.27        69.16371
964.66        70.48553
965.04         71.3159
965.43        71.34592
965.82         70.7734
966.21         69.9651
966.60        69.52832
966.98        69.62082
967.37        70.02821
967.76        70.51862
968.15        70.63471
968.53        70.27365
968.92        69.67802
969.31        69.06082
969.69        68.68565
970.08        68.65392
970.47        68.87489
970.86        69.47061
971.24        70.65444
971.63        72.24872
972.02        74.06271
972.40        75.72752
972.79        76.63539
973.17        76.77964
973.56        76.25954
973.95        75.31322
974.33        74.35803
974.72        73.58714
975.11        72.92635
975.49        72.39529
975.88        72.03055
976.26        71.83884
976.65        71.85588
977.04        71.98468
977.42        71.99797
977.81        71.77317
978.19        71.30311
978.58        70.82313
978.96        70.70797
979.35         71.0208
979.74         71.7021
980.12        72.44444
980.51        72.52709
980.89        71.92262
981.28        70.72985
981.66        69.51372
982.05        69.32426
982.43        70.38967
982.82        72.31251
983.20        74.38981
983.59        75.38931
983.97        75.11539
984.35        73.86838
984.74         72.1841
985.12        71.02189
985.51        70.72883
985.89        71.06203
986.28        71.71301
986.66         72.3222
987.04        72.71726
987.43        72.95947
987.81        73.17934
988.20         73.4695
988.58        73.87408
988.96        74.33183
989.35        74.47566
989.73        73.85472
990.12        72.34501
990.50        69.97961
990.88         67.4743
991.27        66.48667
991.65         67.5472
992.03        70.11684
992.42        72.81408
992.80        74.23328
993.18        74.04436
993.56        72.58708
993.95        70.51279
994.33        69.40366
994.71        70.01397
995.10        71.50544
995.48        73.15594
995.86        74.18993
996.24         74.5209
996.63        74.43046
997.01        74.02861
997.39        73.38583
997.77        72.66324
998.15        71.85555
998.54          71.136
998.92        70.77637
999.30        70.79192
999.68        71.17104
1000.06        71.80778
1000.45        72.36975
1000.83        72.76857
1001.21        72.98713
1001.59        73.08307
1001.97        73.15009
1002.35        73.26566
1002.73        73.50766
1003.12         73.7506
1003.50        73.63361
1003.88        73.16665
1004.26        72.38509
1004.64        71.91261
1005.02        72.58337
1005.40        74.40263
1005.78        77.13071
1006.16        79.68602
1006.54         80.1017
1006.92        77.90127
1007.30        73.72293
1007.69        69.04417
1008.07        66.28587
1008.45        66.24576
1008.83        68.19278
1009.21        70.98235
1009.59        72.94629
1009.97        73.57751
1010.35        73.27388
1010.73        72.39231
1011.11        71.79546
1011.49        71.92338
1011.86        72.49562
1012.24         72.9416
1012.62        72.81404
1013.00        72.08975
1013.38        71.09682
1013.76        70.28531
1014.14        70.32669
1014.52        71.41994
1014.90         73.3215
1015.28        75.73924
1015.66         78.0178
1016.04        79.70635
1016.41        80.92378
1016.79        81.29639
1017.17        80.75597
1017.55         79.4008
1017.93        77.31508
1018.31         75.0263
1018.69        73.32694
1019.06        72.51711
1019.44        72.60726
1019.82        73.26065
1020.20         73.6853
1020.58        73.57185
1020.95        72.95641
1021.33        72.49713
1021.71        73.07733
1022.09        74.67772
1022.46        76.92133
1022.84        78.76564
1023.22        78.16077
1023.60        74.47462
1023.97          67.934
1024.35         60.0598
1024.73         54.4529
