SpectraSmart Spectrum 2.9.0.0
--------- Device Information -----------
Spectrum Name :  反射率_0
Saving Time :  2024/04/27 23:57:07
Spectro-Module Model Name : SE2030-DUVN
Spectro-Module Serial Number : OS361AC55029948
Wavelength Start : 200
Wavelength End : 1025
Wavelength Unit : Wavelength(nm)
Spectrum Unit : Reflectance(%)
-----------Spectrum Setting ------------
Integration Time : 20ms
Average : 10
Boxcar : 0
Background removal :  enabled
linearity correction :  enabled
SC :  disabled
Intensity correction :  disabled
DWT denoise :  enabled
savitzky-golay :  disabled
FFT :  disabled
Running average :  disabled
Kalman :  disabled
High pass :  disabled
---------------BEGIN--------------------
Wavelength(nm)             Reflectance(%)
200.29               0
200.75         12.2166
201.21        25.89444
201.67        38.90137
202.13        44.53535
202.58         45.1523
203.04        43.99375
203.50        43.89707
203.96        48.03882
204.42        55.75325
204.88         64.6393
205.34        72.95727
205.80        80.39906
206.26        87.84186
206.72        96.55209
207.18        107.2272
207.64        113.8278
208.10        110.9172
208.55        103.9006
209.01        96.34783
209.47        87.48465
209.93        73.36418
210.39        41.16497
210.85       -52.57276
211.31       -165.4232
211.77       -30.31889
212.23        58.66815
212.69        90.56102
213.14        101.3558
213.60        103.2378
214.06        99.72044
214.52        88.54675
214.98        73.28932
215.44        65.73728
215.90        64.14427
216.36        65.47477
216.81        67.76588
217.27        70.23521
217.73        73.85114
218.19        76.72446
218.65        74.99982
219.11        67.72308
219.57        55.27126
220.02        40.77519
220.48        34.17325
220.94        38.55064
221.40        49.52455
221.86        61.83471
222.32        70.40448
222.77        74.66383
223.23        76.37583
223.69        76.25965
224.15         74.8396
224.61        72.45869
225.06        68.80737
225.52        64.82447
225.98        62.36932
226.44        61.97219
226.90        62.76633
227.36         63.8329
227.81        64.33066
228.27        64.25397
228.73        63.81247
229.19        62.92017
229.65        61.50269
230.10        59.63662
230.56        57.65832
231.02         55.9081
231.48        54.93772
231.93        54.73793
232.39        55.26332
232.85        56.15971
233.31        56.99151
233.77        57.62897
234.22        58.19834
234.68        58.70356
235.14        59.27371
235.60        59.95368
236.05        60.67002
236.51        61.48548
236.97        62.37349
237.43        63.26129
237.88        64.33748
238.34        65.17718
238.80        65.85472
239.26        66.47298
239.71        67.01491
240.17        67.98089
240.63        70.72441
241.08        74.77589
241.54        78.16281
242.00        79.86356
242.46        79.86887
242.91        78.45673
243.37        74.39452
243.83        66.41992
244.28        59.80384
244.74        67.52369
245.20        84.63673
245.66        96.58795
246.11        100.6224
246.57         99.4454
247.03        92.73337
247.48        80.68162
247.94        72.42262
248.40        77.14346
248.85        89.82601
249.31        101.8633
249.77        105.9291
250.22        103.4564
250.68        98.60268
251.14        94.06911
251.59        91.84914
252.05        92.03585
252.51        93.73115
252.96        95.92684
253.42        96.17516
253.88        93.28512
254.33        89.48068
254.79         86.7763
255.25        85.06389
255.70        83.75304
256.16        82.95155
256.62        82.64644
257.07        83.00194
257.53         84.0399
257.99         84.9326
258.44        84.82299
258.90        83.49785
259.35        80.84744
259.81        77.91713
260.27        75.02614
260.72        72.65403
261.18        71.24522
261.63        70.16975
262.09        69.52184
262.55        68.92557
263.00        68.19495
263.46        67.58397
263.91        66.87906
264.37        66.22274
264.83        65.53345
265.28        64.73787
265.74        63.96945
266.19        63.12959
266.65        62.29179
267.11        61.39483
267.56        60.38926
268.02        59.32018
268.47        58.16065
268.93        56.96473
269.38        55.75144
269.84        54.58671
270.30        53.48402
270.75        52.42485
271.21        51.42504
271.66        50.44151
272.12        49.48625
272.57        48.53233
273.03        47.59042
273.48        46.57928
273.94         45.5659
274.39        44.53414
274.85        43.59469
275.31        42.80076
275.76        42.12469
276.22         41.5625
276.67        41.02069
277.13        40.49436
277.58        39.90366
278.04        39.32021
278.49        38.65333
278.95        37.90762
279.40        37.04559
279.86          36.163
280.31        35.31232
280.77        34.71022
281.22        34.33166
281.68        34.15854
282.13        34.04836
282.59        33.87103
283.04         33.5632
283.50        33.18703
283.95        32.78354
284.41         32.4706
284.86        32.25477
285.32        32.12838
285.77        32.01554
286.22        31.85817
286.68        31.66265
287.13        31.41566
287.59        31.21095
288.04        31.10282
288.50        31.12882
288.95        31.22501
289.41        31.33637
289.86        31.32535
290.32        31.20063
290.77        31.00817
291.22        30.84054
291.68        30.82351
292.13         30.9873
292.59        31.32356
293.04        31.80492
293.50        32.41382
293.95        33.12466
294.40        33.95394
294.86        34.89555
295.31        35.92821
295.77         37.0477
296.22        38.22451
296.68        39.45419
297.13        40.70522
297.58        41.96422
298.04        43.23497
298.49         44.4996
298.95        45.77611
299.40        47.07984
299.85        48.43429
300.31        49.89584
300.76        51.48971
301.21        53.20836
301.67        55.02689
302.12           56.85
302.58        58.62667
303.03        60.30216
303.48        61.91332
303.94        63.51468
304.39        65.10587
304.84        66.73115
305.30        68.40738
305.75        70.08868
306.20        71.79269
306.66        73.53667
307.11         75.2651
307.57        77.02277
308.02        78.75657
308.47        80.45941
308.93        82.12789
309.38        83.66928
309.83        85.04853
310.29        86.28716
310.74        87.38232
311.19        88.40947
311.65        89.46259
312.10        90.53112
312.55        91.59589
313.00        92.62347
313.46        93.57021
313.91         94.4112
314.36         95.1787
314.82        95.87965
315.27        96.51597
315.72         97.0947
316.18        97.63023
316.63        98.12547
317.08        98.62582
317.53        99.14526
317.99        99.67007
318.44        100.2011
318.89        100.7106
319.35        101.1843
319.80        101.6326
320.25        102.0478
320.70        102.4277
321.16         102.762
321.61         103.069
322.06         103.349
322.51        103.6155
322.97        103.8578
323.42        104.1077
323.87        104.3505
324.32         104.583
324.78        104.7876
325.23        105.0029
325.68        105.2103
326.13        105.4062
326.59        105.5665
327.04        105.7428
327.49        105.9222
327.94        106.1201
328.39        106.3416
328.85        106.5496
329.30        106.8099
329.75        107.0765
330.20        107.3422
330.66        107.5837
331.11        107.8568
331.56        108.1332
332.01        108.4222
332.46         108.727
332.92        109.0197
333.37        109.4027
333.82        109.8336
334.27           110.3
334.72        110.7849
335.17        111.2645
335.63        111.7005
336.08        112.1448
336.53        112.5664
336.98        112.9626
337.43        113.3339
337.88        113.6828
338.34        113.9996
338.79        114.3223
339.24        114.6472
339.69        114.9858
340.14        115.3455
340.59        115.7351
341.05        116.1559
341.50        116.6027
341.95        117.0732
342.40        117.5817
342.85        118.1152
343.30        118.6505
343.75        119.1372
344.20        119.4965
344.66        119.7223
345.11        119.8503
345.56        119.9166
346.01        119.9765
346.46        120.0613
346.91        120.1571
347.36        120.3171
347.81        120.6203
348.26        121.0549
348.72         121.581
349.17         122.065
349.62        122.3155
350.07        122.2839
350.52        122.0313
350.97        121.6561
351.42        121.3196
351.87        121.0913
352.32        120.9499
352.77        120.8726
353.22        120.8218
353.67        120.7708
354.13        120.7186
354.58        120.6576
355.03        120.6365
355.48        120.6299
355.93        120.6034
356.38        120.4136
356.83        119.8469
357.28         118.899
357.73        117.6814
358.18        116.4156
358.63        115.4367
359.08        114.8363
359.53        114.5225
359.98        114.3722
360.43        114.1822
360.88        113.8646
361.33        113.4513
361.78        112.9552
362.23         112.396
362.68        111.7808
363.13        111.1054
363.58        110.3376
364.03        109.3977
364.48        108.3794
364.93        107.2716
365.38        106.2115
365.83        105.3653
366.28        104.7634
366.73        104.3511
367.18         104.012
367.63        103.5559
368.08        102.9255
368.53        102.1706
368.98        101.3523
369.43         100.574
369.88        99.87252
370.33         99.2159
370.78        98.58521
371.23        97.95426
371.68        97.31357
372.13        96.67712
372.58        96.06226
373.03         95.4911
373.48        94.96486
373.93        94.47106
374.38        93.97578
374.83        93.42482
375.28        92.81049
375.72        92.14035
376.17        91.48262
376.62        90.87568
377.07        90.33218
377.52        89.82092
377.97        89.34814
378.42        88.92505
378.87        88.54108
379.32        88.20116
379.77        87.82877
380.22        87.29993
380.67         86.6039
381.11        85.78603
381.56        84.97681
382.01        84.40652
382.46        84.13506
382.91        84.09618
383.36        84.14909
383.81        84.06978
384.26        83.79255
384.71        83.37258
385.15        82.88783
385.60        82.52289
386.05        82.29632
386.50        82.15111
386.95        81.99833
387.40        81.71134
387.85        81.27947
388.29        80.72183
388.74        80.21935
389.19        79.83213
389.64         79.5637
390.09        79.34705
390.54        79.14545
390.98         78.8883
391.43        78.60956
391.88        78.33475
392.33        77.99707
392.78        77.59629
393.23        77.17798
393.67         76.5005
394.12        75.77116
394.57        76.01584
395.02        75.98802
395.47        75.92737
395.91        75.51578
396.36        75.35765
396.81         75.4668
397.26        75.51041
397.71        75.43874
398.15        75.30558
398.60        75.17395
399.05        74.88661
399.50        74.56712
399.95        74.51566
400.39        74.62144
400.84        74.73815
401.29        74.15965
401.74        73.65852
402.18        73.17284
402.63        72.93896
403.08        72.95221
403.53        72.87531
403.97        72.69871
404.42        72.69518
404.87        72.79427
405.32        72.76615
405.76        72.56496
406.21        72.22405
406.66        71.84953
407.11        71.62521
407.55        71.55015
408.00        71.59119
408.45        71.64158
408.90        71.08565
409.34        70.17532
409.79        70.16447
410.24        70.90011
410.68        71.12101
411.13        70.75048
411.58        70.51221
412.03        70.48376
412.47        70.46779
412.92        70.45423
413.37        70.50823
413.81        70.55955
414.26        70.56004
414.71        70.47934
415.15        70.34569
415.60         70.1769
416.05         70.0739
416.49        70.06897
416.94        70.12281
417.39        70.19759
417.83        70.23245
418.28        70.20106
418.73        70.10426
419.17        69.98373
419.62        69.91007
420.07        69.90754
420.51         69.9593
420.96        70.00038
421.41        69.92507
421.85        69.70293
422.30        69.29784
422.74        68.86346
423.19        68.99611
423.64        69.59412
424.08        69.95979
424.53        69.90474
424.98        69.91854
425.42        70.01069
425.87        69.64724
426.31        69.02479
426.76        69.06015
427.21        69.60949
427.65        69.51456
428.10        68.87063
428.54        68.69569
428.99         69.0267
429.44        69.47946
429.88        69.84291
430.33        69.61255
430.77        68.95313
431.22        68.96464
431.66        69.56343
432.11        69.73499
432.56        69.46542
433.00        69.48153
433.45         69.6195
433.89        69.51725
434.34        69.26454
434.78        68.73761
435.23        68.35387
435.67        69.22575
436.12        69.93151
436.57        70.20596
437.01        69.76508
437.46         69.4474
437.90        69.74593
438.35        70.17835
438.79        69.77179
439.24        69.65913
439.68         69.5666
440.13        69.46561
440.57        69.43072
441.02        69.68697
441.46        70.06242
441.91        70.20604
442.35        70.09538
442.80        69.74533
443.24        69.96808
443.69         70.1196
444.13        70.33347
444.58        70.39525
445.02        70.27269
445.47         70.1153
445.91        69.98366
446.36        69.93764
446.80        69.98071
447.24         70.1153
447.69        70.29905
448.13        70.42688
448.58        70.48485
449.02        70.48899
449.47        70.48351
449.91        70.50029
450.36        70.56689
450.80        70.63922
451.25        70.69646
451.69        70.69807
452.13        70.62577
452.58        70.44216
453.02        70.19263
453.47        69.99476
453.91        69.86788
454.36        69.84444
454.80        69.83447
455.24        69.62621
455.69        69.30315
456.13        68.98061
456.58        68.80868
457.02         68.9129
457.46        69.48175
457.91        69.28988
458.35        68.77061
458.79        68.48933
459.24        68.56572
459.68        68.47513
460.13        68.23447
460.57        68.02988
461.01        68.23212
461.46        67.80454
461.90        67.90269
462.34        68.05361
462.79        67.56468
463.23        67.52295
463.68        67.61116
464.12        67.77171
464.56        67.90753
465.01        67.82336
465.45        67.48331
465.89        67.43739
466.34        67.68188
466.78        67.36535
467.22        66.52937
467.67        67.07368
468.11        66.81213
468.55        66.77509
468.99        66.36978
469.44        66.23025
469.88        66.36499
470.32        66.48679
470.77        66.55218
471.21        66.57331
471.65        66.53235
472.10        66.44514
472.54        66.31683
472.98        66.23363
473.42        66.21946
473.87        66.13906
474.31        65.99814
474.75        66.19692
475.20        66.57662
475.64        66.42404
476.08        65.83622
476.52         65.5965
476.97        65.73707
477.41          65.826
477.85        65.67503
478.29        65.71425
478.74        66.19264
479.18        65.43401
479.62        65.52072
480.06        65.29636
480.50        65.34241
480.95        65.41399
481.39        65.49108
481.83        65.62485
482.27        65.72596
482.72        66.03642
483.16        65.63535
483.60        65.47739
484.04        65.68298
484.48        65.78415
484.93        66.05197
485.37        66.05319
485.81         65.9417
486.25        66.84819
486.69        67.34868
487.14        66.30475
487.58        65.95103
488.02        66.30408
488.46        65.81155
488.90         66.0736
489.34        65.53967
489.79        65.10675
490.23        65.97127
490.67        65.92722
491.11        65.49786
491.55         65.3068
491.99        65.40633
492.43        65.39848
492.88        65.26978
493.32        65.25848
493.76        65.34145
494.20        65.44559
494.64        65.57342
495.08        65.65538
495.52        65.70271
495.96        65.93138
496.41        66.23631
496.85        66.11537
497.29         65.6625
497.73        65.50656
498.17        65.58688
498.61         65.8397
499.05         66.0854
499.49        65.97783
499.93        65.62167
500.37        65.50563
500.82        65.59357
501.26        65.67989
501.70        65.85242
502.14        65.04996
502.58         65.6342
503.02        65.69463
503.46        65.64487
503.90        65.71322
504.34        65.78995
504.78        65.82367
505.22        65.74919
505.66        65.49003
506.10        65.21003
506.54        65.17416
506.98        65.31018
507.42        65.84003
507.86        66.06406
508.30        65.55093
508.74         66.1103
509.18        65.95222
509.62        65.72227
510.06        65.54818
510.50        65.48314
510.94        65.44566
511.38        65.40984
511.82        65.39761
512.26        65.39584
512.70        65.40813
513.14        65.43724
513.58        65.45317
514.02        65.44698
514.46         65.4718
514.90         65.5173
515.34        65.33729
515.78        65.31068
516.22         65.1452
516.66        65.01195
517.10        64.99352
517.54        65.10592
517.98         65.3154
518.42        65.53967
518.86        65.65414
519.30        65.62706
519.74        65.49702
520.18         65.3309
520.62        65.23535
521.06         65.2395
521.50        65.30854
521.93        65.40514
522.37         65.4564
522.81        65.44544
523.25        65.39414
523.69        65.32239
524.13        65.25756
524.57         65.2099
525.01        65.17122
525.45        65.13084
525.89        65.07395
526.32        64.99442
526.76         64.9137
527.20        64.84745
527.64        64.82603
528.08        64.85207
528.52        64.90941
528.96        64.97491
529.40        65.01278
529.83        65.00713
530.27        64.98247
530.71         64.9358
531.15        64.87305
531.59        64.80088
532.03        64.71568
532.46        64.63579
532.90        64.61244
533.34         64.6449
533.78        64.72118
534.22        64.79743
534.66        64.80486
535.09         64.7248
535.53        64.59815
535.97        64.45846
536.41        64.38271
536.85        64.38909
537.28        64.44035
537.72        64.50477
538.16        64.58875
538.60        64.57418
539.04        64.57957
539.47        64.55953
539.91        64.54014
540.35        64.51324
540.79        64.45904
541.22        64.39513
541.66        64.42181
542.10        64.50974
542.54        64.50639
542.97        64.41729
543.41        64.41013
543.85         64.4782
544.29        64.53851
544.72        64.56217
545.16        64.57548
545.60        64.56155
546.04        64.51318
546.47        64.45358
546.91        64.42422
547.35        64.42696
547.79        64.47048
548.22        64.50719
548.66        64.45823
549.10         64.3608
549.53        64.34583
549.97        64.62108
550.41        64.68848
550.84        64.56863
551.28        64.58698
551.72        64.80154
552.15        64.41586
552.59        64.46489
553.03        64.71593
553.46         64.4302
553.90        64.44772
554.34        64.45715
554.77        64.49022
555.21        64.50269
555.65        64.47753
556.08        64.36079
556.52        64.30054
556.96        64.29225
557.39        64.41919
557.83        64.62724
558.27        64.62253
558.70        64.43791
559.14        64.36871
559.57        64.41382
560.01        64.49237
560.45        64.54002
560.88        64.41533
561.32        64.24445
561.75        64.23763
562.19        64.40891
562.63        64.68036
563.06        64.91689
563.50        64.73483
563.93        64.24253
564.37        64.13049
564.80        64.37531
565.24        64.49409
565.68        64.44225
566.11        64.45941
566.55        64.56557
566.98        64.57682
567.42        64.52563
567.85        64.58939
568.29        64.80286
568.72        64.66685
569.16        64.65836
569.60        64.73075
570.03        65.03114
570.47          64.892
570.90        64.93562
571.34        65.31932
571.77        65.41307
572.21        65.03269
572.64        65.26241
573.08        65.21194
573.51        64.86723
573.95        65.12173
574.38        65.54356
574.82        65.19939
575.25        65.44941
575.69        65.20132
576.12        65.19734
576.56        65.42069
576.99        65.25529
577.42        65.52528
577.86        65.29873
578.29        65.45598
578.73        65.49628
579.16         65.4432
579.60        65.15961
580.03        65.01334
580.47        64.99639
580.90        65.32661
581.33        65.39349
581.77        65.79538
582.20        65.76567
582.64        65.78397
583.07        65.60339
583.51        65.28609
583.94        65.06761
584.37        64.95335
584.81        65.07667
585.24        65.22993
585.68        65.33602
586.11        65.45167
586.54        65.33896
586.98        64.59238
587.41        65.08399
587.85        64.50393
588.28        64.81248
588.71        64.92619
589.15        64.93944
589.58        64.62486
590.01        64.88994
590.45        65.03887
590.88        64.52029
591.31        64.40594
591.75        64.41586
592.18        64.42686
592.61         64.6869
593.05        64.42173
593.48        65.38658
593.91        65.11525
594.35        64.67897
594.78        64.78843
595.21        64.64729
595.65        64.66886
596.08        64.54913
596.51        64.49309
596.94         64.2321
597.38          64.284
597.81        64.72182
598.24          64.137
598.68        64.63188
599.11        64.70868
599.54        65.14124
599.97        64.85619
600.41        65.07633
600.84        64.94499
601.27        64.79521
601.70        64.74212
602.14        64.42519
602.57        64.60617
603.00        64.51052
603.43         64.5635
603.87        64.84244
604.30        64.79804
604.73        64.86753
605.16        64.77563
605.60        64.48621
606.03        64.73669
606.46        65.37714
606.89        65.12471
607.32        65.10435
607.76        65.21642
608.19        65.07338
608.62        64.96786
609.05        64.75957
609.48        64.70625
609.92        64.80346
610.35        64.94067
610.78        65.17007
611.21        65.01395
611.64         65.0926
612.07        64.90263
612.50        64.67593
612.94        64.55282
613.37        64.60641
613.80        64.41428
614.23        64.74786
614.66        64.60931
615.09        64.83568
615.52        64.85262
615.96        64.92525
616.39        64.49463
616.82        64.71648
617.25        64.79691
617.68        64.68971
618.11        64.63597
618.54        64.59765
618.97        64.68639
619.40        64.78172
619.84        65.05842
620.27        64.80305
620.70        64.62591
621.13        64.30829
621.56        64.58041
621.99        64.35873
622.42        64.23413
622.85        64.27216
623.28        64.55452
623.71        64.40678
624.14        64.26117
624.57        64.00079
625.00        64.52908
625.43         64.3202
625.86         64.3597
626.29        64.18447
626.72         64.3236
627.15        64.22665
627.58        64.15855
628.01        64.40707
628.44        64.09949
628.87        63.83064
629.30         64.3964
629.73        64.20705
630.16        63.82771
630.59        63.98999
631.02        63.93951
631.45        63.99444
631.88        64.01428
632.31        64.03154
632.74        63.76467
633.17        63.86093
633.60        63.82798
634.03        63.85608
634.46        63.92501
634.89        64.00914
635.32        64.04311
635.75        64.00563
636.18        63.95026
636.61         63.8949
637.04        63.79705
637.47         63.7019
637.89        63.77382
638.32        63.94625
638.75        63.99836
639.18        63.90703
639.61        63.79523
640.04        63.68866
640.47        63.58968
640.90        63.51581
641.33        63.44857
641.76        63.38887
642.18        63.44582
642.61        63.44382
643.04           63.51
643.47        63.57658
643.90        63.61429
644.33        63.61226
644.76        63.58003
645.18        63.52744
645.61        63.46182
646.04        63.39227
646.47        63.31273
646.90        63.24406
647.33        63.22051
647.75         63.2541
648.18        63.34084
648.61        63.43401
649.04         63.4952
649.47        63.50195
649.89        63.35092
650.32        63.13831
650.75        63.21159
651.18        63.51168
651.61        63.64332
652.03        63.53476
652.46        63.34216
652.89        63.19882
653.32        63.14176
653.74        63.11847
654.17        63.74222
654.60        63.53533
655.03        63.57385
655.46        63.45216
655.88        64.12772
656.31        66.27302
656.74        68.68879
657.16         67.2136
657.59        66.15586
658.02        64.82365
658.45        64.57497
658.87        64.07681
659.30        64.35405
659.73        63.77327
660.15        63.49277
660.58        63.78695
661.01        64.00241
661.44        64.19605
661.86        64.26024
662.29        64.16498
662.72        63.84972
663.14        63.46103
663.57        63.44267
664.00        63.75544
664.42        63.85635
664.85        63.72338
665.27        63.69282
665.70        63.75843
666.13        63.75317
666.55        63.67447
666.98        63.55605
667.41        63.44827
667.83         63.4292
668.26        63.49974
668.69        63.67793
669.11        63.90491
669.54        63.98907
669.96        63.89011
670.39        64.01773
670.82        63.68541
671.24         63.8241
671.67        64.15195
672.09        64.32031
672.52        64.29891
672.94        64.23759
673.37        64.18197
673.80        64.13655
674.22        64.12292
674.65        64.06734
675.07         63.9965
675.50        63.96984
675.92        63.99449
676.35        64.02158
676.77        64.05044
677.20        64.09653
677.62        64.15578
678.05        64.20174
678.47        64.22636
678.90        64.23653
679.32        64.23798
679.75        64.25543
680.17        64.29374
680.60        64.35964
681.02        64.41108
681.45        64.38643
681.87         64.2958
682.30        64.07507
682.72        63.84132
683.15        63.95941
683.57        64.37991
684.00         64.5792
684.42        64.53271
684.85        64.61504
685.27        64.80582
685.70         64.8653
686.12        64.79286
686.54         64.7379
686.97        64.69408
687.39        64.62558
687.82        64.55159
688.24        64.38039
688.66        64.43239
689.09        64.43832
689.51        64.48246
689.94        64.50748
690.36        64.51247
690.78        64.48801
691.21        64.45351
691.63        64.46849
692.06        64.52544
692.48         64.5425
692.90        64.51133
693.33        64.46745
693.75        64.41574
694.17        64.33913
694.60        64.24335
695.02        64.19386
695.44        64.19794
695.87        64.20647
696.29        64.23765
696.71        64.40676
697.14        64.65009
697.56        64.75935
697.98        64.72948
698.41        64.78664
698.83        64.91383
699.25        64.99666
699.68        65.00037
700.10        64.98433
700.52        64.94019
700.94        64.86492
701.37        64.75957
701.79        64.66132
702.21         64.5664
702.64        64.48498
703.06        64.42982
703.48        64.43517
703.90        64.50567
704.33        64.62767
704.75        64.76997
705.17         64.8261
705.59        64.77229
706.01        64.67338
706.44        64.60924
706.86        64.49626
707.28        64.70533
707.70        64.91163
708.12        65.15248
708.55        65.29131
708.97        65.30334
709.39        65.25558
709.81        65.17868
710.23        65.11855
710.66         65.0971
711.08        65.12112
711.50        65.16898
711.92        65.22176
712.34        65.27305
712.76        65.33322
713.19        65.38338
713.61        65.43262
714.03        65.46059
714.45        65.46448
714.87         65.4623
715.29        65.48427
715.71         65.5346
716.13        65.60683
716.56        65.65762
716.98        65.68317
717.40        65.65725
717.82        65.59615
718.24         65.5353
718.66        65.53259
719.08        65.59672
719.50        65.69798
719.92        65.80943
720.34         65.8878
720.76        65.91598
721.19        65.90516
721.61        65.85202
722.03        65.72102
722.45        65.52168
722.87        65.26936
723.29        65.04205
723.71        64.96514
724.13        65.06513
724.55        65.30779
724.97        65.60569
725.39        65.80944
725.81        65.87513
726.23        65.84136
726.65        65.76674
727.07        65.75011
727.49        65.81883
727.91        65.93544
728.33         66.0654
728.75        66.15538
729.17        66.18668
729.59        66.18125
730.01         66.1504
730.43        66.11021
730.85        66.06742
731.27        66.01112
731.69        65.95838
732.10         65.9377
732.52        65.94138
732.94        66.01781
733.36        66.13747
733.78        66.14234
734.20        65.99996
734.62        66.20092
735.04        65.75932
735.46        66.01624
735.88        66.51106
736.30        66.46169
736.72         65.9327
737.13        65.71989
737.55        65.87537
737.97        66.09833
738.39        66.28984
738.81        66.25269
739.23        66.03214
739.65        66.08202
740.06         66.3442
740.48        66.43112
740.90        66.30247
741.32        66.25635
741.74        66.22567
742.16        66.24316
742.57        66.29472
742.99        66.38627
743.41         66.4876
743.83        66.53388
744.25        66.51093
744.67        66.42136
745.08        66.33538
745.50         66.3327
745.92        66.44561
746.34        66.65139
746.75        66.84765
747.17        66.87801
747.59        66.71355
748.01        66.35997
748.42        65.97836
748.84         65.8685
749.26        66.08832
749.68        66.32911
750.09        66.49126
750.51        66.41226
750.93        66.16608
751.35        66.17819
751.76        66.41252
752.18        66.41685
752.60        66.18745
753.01        66.00973
753.43        65.93275
753.85        65.94048
754.27         66.0451
754.68        66.24647
755.10        66.48264
755.52        66.64675
755.93         66.7196
756.35        66.73833
756.77        66.70385
757.18        66.70255
757.60        66.76581
758.02        66.66891
758.43         66.4698
758.85        66.86004
759.26         67.0879
759.68        67.22681
760.10        67.14924
760.51        66.40906
760.93        66.37834
761.34        66.58826
761.76        66.89375
762.18        67.11001
762.59         67.0696
763.01        66.94002
763.42        66.84049
763.84        66.75985
764.26        66.76073
764.67        66.94796
765.09        67.23531
765.50         67.1308
765.92        66.75481
766.33        66.71883
766.75        66.96249
767.16        67.01653
767.58        66.80563
768.00        66.65878
768.41        66.65507
768.83        66.70448
769.24        66.79962
769.66        66.98921
770.07        67.19013
770.49        67.21788
770.90        67.12412
771.32        67.22667
771.73        67.49235
772.15         67.5415
772.56        67.37052
772.97        67.25144
773.39        67.19516
773.80         67.0334
774.22        66.83103
774.63         66.9867
775.05        67.40429
775.46         67.6547
775.88        67.65239
776.29        67.66408
776.70        67.68813
777.12         67.6293
777.53         67.5198
777.95        67.37038
778.36        67.23929
778.77        67.20528
779.19        67.28651
779.60         67.4679
780.02        67.69319
780.43        67.89569
780.84        68.02627
781.26        68.09435
781.67         68.1758
782.09        68.23664
782.50        68.15717
782.91        68.63919
783.33        67.94336
783.74         67.8922
784.15        67.97236
784.57        68.05573
784.98        68.11752
785.39        68.15082
785.81        68.18824
786.22        68.36937
786.63        68.62513
787.04        68.72066
787.46        68.65534
787.87        68.54456
788.28        68.43184
788.70        68.36789
789.11        68.36588
789.52        68.32079
789.93        68.27849
790.35        68.54415
790.76         69.0183
791.17        69.08718
791.58        68.78955
792.00        68.68697
792.41        68.82124
792.82        68.90285
793.23        68.91555
793.65        68.83444
794.06        68.75626
794.47        69.02997
794.88        69.50455
795.29        69.62955
795.71        69.43076
796.12        69.07585
796.53        68.71973
796.94        68.66931
797.35         68.9202
797.76        69.05518
798.18        69.03056
798.59        69.09485
799.00         69.2347
799.41        69.26484
799.82        69.18538
800.23        69.11562
800.64        69.07049
801.06        68.99062
801.47        68.93219
801.88        68.91605
802.29         68.9537
802.70        69.05672
803.11        69.19104
803.52        69.28931
803.93        69.33468
804.34        69.32997
804.75        69.34037
805.17        69.46884
805.58        69.75273
805.99        70.12479
806.40        70.45715
806.81        70.54928
807.22        70.35033
807.63        69.90499
808.04        69.36623
808.45        69.04703
808.86        69.03619
809.27        69.22413
809.68        69.49095
810.09         69.6371
810.50        69.59731
810.91        69.44682
811.32        69.24498
811.73        69.09871
812.14        69.05117
812.55        69.01591
812.96        69.01878
813.37          69.215
813.78        69.54725
814.19         69.7654
814.60        69.83145
815.01        69.89234
815.42        69.94547
815.83        69.87243
816.24        69.72134
816.65        69.66312
817.05        69.73895
817.46        69.86703
817.87        70.02026
818.28        70.10519
818.69        70.09942
819.10        70.03825
819.51        69.95666
819.92        69.91339
820.33        69.92803
820.74        69.96984
821.14        70.01896
821.55        70.08485
821.96         70.1405
822.37        70.19369
822.78         70.2128
823.19        70.13864
823.60           69.97
824.00        69.75469
824.41        69.51971
824.82        69.39309
825.23        69.40881
825.64        69.54137
826.04        69.77795
826.45        70.05444
826.86        70.34318
827.27        70.64214
827.68        70.91228
828.08        71.12576
828.49        71.19975
828.90        71.16701
829.31        71.05629
829.72        70.92789
830.12        70.83274
830.53        70.73369
830.94        70.63837
831.35        70.51766
831.75        70.39164
832.16        70.22826
832.57        70.11113
832.97        70.13831
833.38        70.31401
833.79        70.60878
834.20        70.89982
834.60        71.00488
835.01         70.9025
835.42        70.62849
835.82        70.34174
836.23        70.24509
836.64        70.42509
837.04        70.84539
837.45        71.29828
837.86        71.53833
838.26        71.51173
838.67        71.27612
839.08        71.01625
839.48        71.01785
839.89        71.34138
840.29        71.87813
840.70        72.44254
841.11        72.75108
841.51        72.74602
841.92        72.48131
842.33        72.09569
842.73        71.81544
843.14        71.66775
843.54        71.61417
843.95        71.59868
844.35        71.54782
844.76        71.43151
845.17        71.30271
845.57        71.17799
845.98        71.03407
846.38        70.90042
846.79        70.74612
847.19        70.63667
847.60        70.63693
848.00        70.77421
848.41         70.9956
848.81        71.23602
849.22        71.31413
849.62         71.2261
850.03        70.99428
850.43        70.73618
850.84        70.56322
851.24        70.55853
851.65         70.6335
852.05        70.80294
852.46        70.97186
852.86        71.09776
853.27        71.23548
853.67        71.29462
854.07        71.31064
854.48        71.25414
854.88        71.15022
855.29         70.9845
855.69        70.93645
856.10        70.95828
856.50        71.08908
856.90        71.22272
857.31        71.21532
857.71        71.08615
858.12        70.82919
858.52        70.57009
858.92         70.3914
859.33        70.30846
859.73        70.32043
860.13        70.37385
860.54        70.39715
860.94        70.39374
861.34        70.35903
861.75        70.25927
862.15        70.09963
862.55           69.87
862.96        69.60409
863.36        69.34106
863.76        69.14091
864.17        69.01903
864.57        68.95896
864.97        69.00302
865.38        69.19566
865.78        69.56566
866.18        70.07592
866.58        70.52689
866.99        70.58617
867.39        70.21138
867.79        69.46968
868.19        68.65624
868.60        68.17513
869.00           68.11
869.40        68.40281
869.80        68.82869
870.21         68.9657
870.61        68.77243
871.01         68.3391
871.41        67.92009
871.81        67.87273
872.22        68.24039
872.62        68.92476
873.02        69.71786
873.42        70.22405
873.82        70.29918
874.22        70.07203
874.63          69.728
875.03        69.50862
875.43        69.49326
875.83        69.60154
876.23        69.76777
876.63        69.89274
877.03        69.93074
877.44         69.9006
877.84        69.83801
878.24        69.76428
878.64          69.681
879.04        69.57747
879.44        69.41314
879.84        69.12395
880.24        68.71877
880.64        68.24874
881.04        67.80389
881.44        67.53628
881.84        67.49361
882.24         67.6154
882.65        67.84846
883.05        68.19554
883.45         68.5623
883.85        68.93697
884.25        69.20145
884.65        69.18856
885.05        68.88749
885.45        68.35172
885.85        67.74728
886.25        67.37569
886.65        67.33514
887.05        67.55421
887.45        67.90337
887.85        68.17164
888.25        68.28618
888.65        68.29104
889.04        68.23241
889.44        68.23414
889.84        68.29652
890.24        68.36414
890.64        68.35995
891.04        68.17634
891.44        67.81604
891.84        67.36475
892.24        66.91583
892.64        66.60143
893.04        66.47117
893.44        66.48312
893.83        66.67993
894.23        67.05571
894.63        67.59597
895.03         68.2719
895.43        68.91939
895.83        69.27262
896.23        69.28088
896.63        69.02456
897.02        68.67679
897.42        68.54561
897.82        68.69263
898.22        69.03754
898.62        69.47566
899.01        69.83609
899.41        70.03003
899.81        70.10889
900.21        70.10801
900.61        70.08543
901.00        70.04815
901.40        69.98653
901.80        69.85777
902.20        69.61438
902.59        69.27624
902.99        68.87811
903.39        68.50742
903.79        68.28699
904.18        68.24258
904.58        68.32683
904.98        68.49612
905.38        68.68771
905.77        68.86047
906.17        69.04311
906.57        69.16312
906.96        69.12338
907.36        68.89385
907.76        68.51304
908.15        68.13487
908.55         67.9534
908.95        68.05109
909.34        68.35188
909.74        68.75323
910.14        69.02623
910.53        69.11169
910.93        69.05207
911.33        68.92448
911.72        68.86431
912.12        68.89017
912.52        68.96475
912.91        69.02186
913.31        68.99696
913.70        68.88221
914.10        68.70853
914.49        68.55682
914.89        68.50708
915.29        68.60337
915.68        68.80145
916.08        69.05757
916.47        69.30205
916.87        69.51182
917.26        69.67077
917.66        69.76886
918.05        69.75829
918.45        69.63103
918.84        69.43469
919.24        69.17535
919.64        68.95056
920.03         68.8182
920.42        68.76533
920.82        68.80567
921.21        68.94215
921.61        69.14606
922.00         69.4045
922.40        69.69778
922.79        70.05746
923.19        70.41673
923.58        70.78669
923.98        70.99522
924.37        70.85322
924.77        70.33807
925.16        69.50439
925.55         68.6264
925.95        68.17727
926.34        68.28256
926.74        68.80605
927.13        69.49585
927.52        69.83289
927.92        69.71494
928.31        69.29238
928.70        68.80392
929.10        68.61017
929.49        68.79834
929.89         69.2019
930.28        69.72514
930.67        70.09686
931.07        70.20316
931.46        70.15818
931.85        69.96733
932.24        69.66817
932.64        69.30036
933.03        68.85139
933.42        68.42543
933.82        68.19292
934.21        68.19682
934.60        68.42521
934.99        68.75027
935.39        68.91682
935.78        68.89258
936.17        68.72858
936.56        68.58593
936.96        68.73169
937.35        69.25072
937.74        69.97915
938.13        70.70728
938.53        71.15643
938.92        71.26556
939.31        71.10963
939.70        70.79271
940.09        70.49945
940.49        70.28307
940.88         70.1342
941.27        70.01178
941.66        69.85282
942.05        69.64949
942.44        69.45784
942.84        69.32018
943.23        69.22933
943.62        69.20848
944.01        69.22156
944.40        69.28005
944.79        69.40703
945.18        69.58638
945.57        69.81006
945.97        69.93599
946.36        69.83302
946.75        69.45509
947.14         68.8366
947.53        68.19323
947.92        67.90261
948.31        68.06322
948.70        68.58854
949.09        69.18851
949.48        69.39744
949.87        69.12686
950.26        68.52306
950.65        67.90451
951.04        67.78314
951.43        68.26765
951.82        69.17309
952.21        70.18023
952.60        70.74268
952.99        70.68143
953.38          70.168
953.77        69.41737
954.16        68.75379
954.55        68.28966
954.94        67.93478
955.33        67.64312
955.72        67.34761
956.11        67.02402
956.50        66.72201
956.89        66.47348
957.28        66.29963
957.66        66.23357
958.05        66.25137
958.44        66.30229
958.83         66.3111
959.22        66.25646
959.61        66.12801
960.00        66.03013
960.39         66.1359
960.78        66.45903
961.16        66.96922
961.55        67.40057
961.94        67.40069
962.33        66.90177
962.72         66.0612
963.11        65.17242
963.49        64.65588
963.88        64.62485
964.27        64.98051
964.66         65.5695
965.04        66.12539
965.43        66.45064
965.82        66.63118
966.21        66.76899
966.60        67.04391
966.98        67.49255
967.37        68.00656
967.76        68.41618
968.15        68.40642
968.53        67.93513
968.92        67.16293
969.31        66.34679
969.69        65.84126
970.08        65.74353
970.47        65.95981
970.86        66.49798
971.24        67.35323
971.63        68.35756
972.02        69.47385
972.40        70.48546
972.79        70.96262
973.17        70.94509
973.56         70.4521
973.95        69.76936
974.33        69.39102
974.72        69.46055
975.11        69.83591
975.49        70.25433
975.88        70.29568
976.26         69.8512
976.65        69.06723
977.04        68.11933
977.42        67.28246
977.81        66.63047
978.19        66.05016
978.58        65.71074
978.96        65.81449
979.35        66.34369
979.74        67.30633
980.12        68.33745
980.51        68.60632
980.89         68.0659
981.28        66.81474
981.66         65.4796
982.05         65.2763
982.43        66.46553
982.82        68.57941
983.20        70.87497
983.59        72.05951
983.97          71.908
984.35        70.75832
984.74        69.05915
985.12          67.619
985.51        66.79593
985.89        66.42033
986.28        66.41562
986.66        66.75161
987.04        67.30932
987.43        68.08215
987.81        68.97303
988.20        69.66685
988.58        70.08487
988.96        70.26268
989.35        70.07861
989.73        69.48769
990.12        68.46655
990.50         66.9214
990.88        65.29677
991.27        64.63287
991.65        65.24062
992.03        66.86374
992.42         68.4501
992.80        68.92916
993.18        67.99439
993.56        65.82191
993.95        63.17857
994.33        61.91406
994.71        62.87643
995.10        65.11444
995.48        67.47031
995.86        68.67346
996.24         68.5935
996.63        67.54565
997.01        66.02512
997.39        65.05623
997.77        65.13846
998.15        65.99532
998.54        66.94856
998.92        67.09399
999.30        66.25437
999.68        64.71094
1000.06        63.23463
1000.45        63.15158
1000.83        64.79208
1001.21        67.53173
1001.59        70.32217
1001.97        71.68066
1002.35         71.2753
1002.73        69.56787
1003.12        67.04716
1003.50        64.76757
1003.88        63.43215
1004.26        62.68329
1004.64        62.68853
1005.02        63.63699
1005.40         65.4173
1005.78        68.15082
1006.16        70.86516
1006.54        71.71474
1006.92          70.257
1007.30        66.87805
1007.69        63.28082
1008.07        62.31134
1008.45        64.64613
1008.83        69.30073
1009.21        74.28174
1009.59         76.7354
1009.97        75.91189
1010.35        72.33323
1010.73        67.19382
1011.11        63.73631
1011.49        63.65846
1011.86        66.19468
1012.24        69.50557
1012.62        71.23154
1013.00          70.868
1013.38        69.26773
1013.76         67.4101
1014.14        66.84009
1014.52        68.00319
1014.90        70.25964
1015.28        72.90509
1015.66        74.62508
1016.04        74.85738
1016.41         74.2261
1016.79        72.78834
1017.17         70.9476
1017.55         69.0014
1017.93        66.89755
1018.31        65.28172
1018.69        65.19414
1019.06         66.8782
1019.44        70.22014
1019.82        74.31463
1020.20        77.03426
1020.58        77.46622
1020.95          76.053
1021.33        73.87418
1021.71        72.36268
1022.09        71.82849
1022.46        71.84711
1022.84         71.9779
1023.22        71.29362
1023.60        69.50245
1023.97        66.71056
1024.35        63.86444
1024.73        62.52477
