SpectraSmart Spectrum 2.9.0.0
--------- Device Information -----------
Spectrum Name :  反射率_0
Saving Time :  2024/04/28 00:06:43
Spectro-Module Model Name : SE2030-DUVN
Spectro-Module Serial Number : OS361AC55029948
Wavelength Start : 200
Wavelength End : 1025
Wavelength Unit : Wavelength(nm)
Spectrum Unit : Reflectance(%)
-----------Spectrum Setting ------------
Integration Time : 20ms
Average : 10
Boxcar : 0
Background removal :  enabled
linearity correction :  enabled
SC :  disabled
Intensity correction :  disabled
DWT denoise :  enabled
savitzky-golay :  disabled
FFT :  disabled
Running average :  disabled
Kalman :  disabled
High pass :  disabled
---------------BEGIN--------------------
Wavelength(nm)             Reflectance(%)
200.29               0
200.75        36.88603
201.21        15.70309
201.67        4.642631
202.13        7.735894
202.58        20.11979
203.04        37.33957
203.50        56.26513
203.96        70.70573
204.42         78.4454
204.88        82.20948
205.34        83.43938
205.80        83.38481
206.26        82.39642
206.72         79.1115
207.18        72.69042
207.64        66.29858
208.10        64.37936
208.55        66.71042
209.01        67.99378
209.47        65.22078
209.93        56.42093
210.39        33.17089
210.85       -38.09541
211.31       -129.2569
211.77       -29.63087
212.23        38.45683
212.69        63.11702
213.14        71.47948
213.60         72.5273
214.06        69.35637
214.52        61.07875
214.98        52.71407
215.44        51.85539
215.90        54.09553
216.36        56.52007
216.81        58.05238
217.27        58.53534
217.73        58.98464
218.19        58.15484
218.65        53.47903
219.11         44.5017
219.57        31.44522
220.02        17.21059
220.48        11.17202
220.94        15.91353
221.40        27.02898
221.86        39.56844
222.32        48.74508
222.77        53.95805
223.23        56.81689
223.69        57.35052
224.15        55.24164
224.61        50.94835
225.06        44.42841
225.52         38.1308
225.98        36.60184
226.44        39.96273
226.90        45.31508
227.36        50.03547
227.81        52.20374
228.27         51.9982
228.73         50.1605
229.19        47.07623
229.65        43.68038
230.10        40.58942
230.56        37.95398
231.02        35.80381
231.48         34.2255
231.93        33.12988
232.39        32.61296
232.85        32.73668
233.31        33.53095
233.77        34.85349
234.22        36.66275
234.68        38.23324
235.14        38.78831
235.60        38.20325
236.05        36.40995
236.51        34.43969
236.97        34.46988
237.43        37.20995
237.88         42.2146
238.34        47.10862
238.80        49.39028
239.26        48.38354
239.71        43.40623
240.17        34.97679
240.63        31.30364
241.08         38.8803
241.54        51.32332
242.00        61.10992
242.46        65.67586
242.91         66.2492
243.37        62.82286
243.83        53.48831
244.28        41.81332
244.74        42.70427
245.20        54.83863
245.66        64.49138
246.11        66.20586
246.57         61.1625
247.03        49.74566
247.48        31.58924
247.94        18.29652
248.40        22.86821
248.85        37.90601
249.31        55.19925
249.77        68.54593
250.22        76.80766
250.68        81.91595
251.14        84.04409
251.59        83.03245
252.05          78.951
252.51        70.35818
252.96        56.91542
253.42        45.57941
253.88        42.37742
254.33        45.79237
254.79        50.11613
255.25        50.53217
255.70        47.77681
256.16        44.35691
256.62        42.41603
257.07        44.10385
257.53        48.47169
257.99        53.17863
258.44        56.50149
258.90        57.40935
259.35        56.04394
259.81          53.714
260.27        51.01535
260.72        48.64676
261.18        47.04665
261.63        45.71906
262.09        44.66474
262.55        43.57327
263.00        42.33439
263.46        41.16323
263.91        40.04766
264.37        39.23725
264.83        38.67489
265.28        38.23938
265.74        37.82888
266.19        37.17249
266.65        36.29493
267.11        35.25797
267.56        34.16373
268.02        33.26227
268.47        32.58097
268.93        32.05415
269.38         31.6286
269.84        31.23975
270.30         30.8389
270.75        30.43506
271.21        29.96475
271.66        29.29356
272.12        28.43267
272.57        27.40175
273.03        26.34906
273.48        25.43994
273.94        24.76896
274.39         24.2692
274.85        23.90193
275.31        23.54726
275.76          23.157
276.22        22.77669
276.67         22.4082
277.13        22.11773
277.58        21.87355
278.04        21.68226
278.49        21.45119
278.95        21.13942
279.40        20.70641
279.86        20.22348
280.31        19.74663
280.77        19.44819
281.22        19.31939
281.68        19.33753
282.13        19.38041
282.59        19.29924
283.04        19.06788
283.50        18.74622
283.95         18.4405
284.41        18.33252
284.86        18.43936
285.32        18.70022
285.77        18.98519
286.22        19.13211
286.68        19.12413
287.13        18.99281
287.59        18.85138
288.04         18.8063
288.50        18.90809
288.95        19.09174
289.41        19.30891
289.86        19.45452
290.32        19.52474
290.77        19.55877
291.22        19.61585
291.68        19.77507
292.13        20.05628
292.59        20.45292
293.04        20.94402
293.50        21.51465
293.95         22.1539
294.40        22.88766
294.86        23.72562
295.31        24.67215
295.77        25.73713
296.22        26.89859
296.68        28.16678
297.13        29.52949
297.58        30.96869
298.04        32.46769
298.49        33.98472
298.95        35.49293
299.40        36.99735
299.85        38.52155
300.31        40.12395
300.76        41.83784
301.21        43.66412
301.67        45.58427
302.12        47.51578
302.58        49.40923
303.03         51.2272
303.48        53.00449
303.94        54.81791
304.39        56.70943
304.84        58.71178
305.30        60.81163
305.75        62.91275
306.20        64.94971
306.66        66.91714
307.11         68.7827
307.57        70.61816
308.02        72.42321
308.47        74.20927
308.93        75.96408
309.38        77.59357
309.83        79.05162
310.29        80.36201
310.74        81.53451
311.19         82.6605
311.65        83.85491
312.10        85.10516
312.55        86.37476
313.00        87.60268
313.46        88.70565
313.91        89.65026
314.36        90.48138
314.82        91.21405
315.27        91.86541
315.72        92.45169
316.18        92.98076
316.63        93.47451
317.08        94.00852
317.53        94.59573
317.99        95.21074
318.44        95.81747
318.89        96.32549
319.35        96.71155
319.80        97.01561
320.25        97.26038
320.70        97.49299
321.16        97.72449
321.61        97.95538
322.06        98.20818
322.51        98.52876
322.97        98.90385
323.42        99.35931
323.87        99.80813
324.32        100.1227
324.78        100.2627
325.23        100.2979
325.68        100.3095
326.13        100.4653
326.59        100.7812
327.04        101.2469
327.49          101.76
327.94        102.1843
328.39        102.4771
328.85         102.654
329.30        102.8068
329.75        102.9432
330.20        103.0905
330.66        103.2083
331.11        103.3967
331.56        103.7065
332.01        104.1558
332.46        104.7334
332.92        105.3268
333.37        105.8778
333.82        106.2943
334.27        106.5935
334.72        106.8385
335.17         107.146
335.63        107.5271
336.08        108.0097
336.53        108.5023
336.98        108.8957
337.43        109.1728
337.88        109.3798
338.34        109.6069
338.79        110.0469
339.24         110.718
339.69        111.5584
340.14        112.4474
340.59        113.1907
341.05        113.7316
341.50        114.1329
341.95        114.4578
342.40        114.8278
342.85        115.2823
343.30        115.7714
343.75        116.2819
344.20        116.7963
344.66        117.3003
345.11        117.8021
345.56        118.2545
346.01         118.569
346.46        118.7439
346.91        118.8184
347.36        118.8823
347.81        119.0783
348.26        119.4329
348.72        119.8893
349.17        120.3829
349.62        120.8298
350.07        121.1825
350.52        121.4616
350.97        121.6257
351.42        121.6088
351.87        121.4243
352.32        121.1093
352.77        120.7628
353.22        120.5454
353.67         120.487
354.13        120.5372
354.58        120.6129
355.03        120.6375
355.48        120.5616
355.93        120.4085
356.38        120.1096
356.83          119.56
357.28        118.7714
357.73        117.7974
358.18        116.7972
358.63        116.0172
359.08        115.5174
359.53         115.236
359.98        115.0531
360.43        114.7686
360.88        114.3168
361.33        113.7419
361.78         113.108
362.23        112.5178
362.68        111.9942
363.13        111.5019
363.58        110.9727
364.03        110.2619
364.48        109.4346
364.93        108.4801
365.38        107.5051
365.83        106.6302
366.28        105.8906
366.73        105.2559
367.18         104.673
367.63        104.0541
368.08        103.3784
368.53          102.68
368.98        101.9983
369.43        101.3936
369.88        100.8778
370.33        100.4179
370.78        99.98217
371.23        99.52782
371.68        99.02959
372.13        98.48776
372.58        97.89839
373.03        97.25998
373.48        96.58007
373.93        95.87023
374.38        95.13625
374.83        94.38227
375.28        93.62341
375.72        92.85828
376.17        92.16096
376.62        91.56937
377.07        91.08874
377.52        90.69074
377.97        90.33783
378.42        89.97353
378.87        89.57351
379.32        89.14988
379.77        88.69013
380.22        88.17365
380.67        87.60472
381.11        86.99914
381.56         86.3965
382.01        85.87665
382.46         85.4734
382.91        85.17741
383.36        84.96066
383.81        84.77162
384.26        84.58239
384.71        84.38797
385.15         84.1769
385.60        83.99453
386.05        83.81626
386.50        83.62724
386.95        83.37868
387.40        83.00735
387.85        82.52468
388.29        81.92622
388.74        81.38503
389.19        80.95046
389.64        80.62431
390.09        80.35398
390.54        80.11466
390.98        79.83832
391.43        79.55306
391.88        79.33368
392.33        79.11845
392.78        78.78029
393.23        78.33503
393.67        78.08036
394.12        77.20057
394.57        77.68295
395.02        77.90343
395.47        77.88562
395.91        77.30634
396.36        77.03796
396.81        77.11553
397.26        77.04398
397.71        76.80003
398.15        76.52889
398.60         76.3201
399.05        76.01749
399.50        75.68309
399.95        75.57465
400.39        75.63948
400.84        75.40997
401.29        74.93193
401.74        74.69157
402.18        74.68777
402.63        74.49518
403.08        74.14005
403.53         73.9297
403.97        73.87787
404.42        73.85151
404.87        73.81963
405.32        73.81664
405.76        73.81499
406.21        73.76078
406.66        73.65105
407.11        73.59274
407.55        73.54729
408.00        73.27086
408.45        72.82788
408.90        72.37138
409.34        72.02087
409.79        72.02264
410.24        72.28071
410.68         72.3941
411.13        72.31174
411.58        72.26688
412.03        72.27254
412.47        72.25678
412.92        72.19811
413.37        72.12595
413.81        72.04459
414.26        72.02148
414.71        72.04615
415.15        72.12614
415.60        72.19987
416.05         72.2216
416.49        72.18537
416.94        72.09646
417.39        72.00453
417.83          71.986
418.28        72.04485
418.73        72.13301
419.17        72.21841
419.62        72.25507
420.07        72.24255
420.51         72.2113
420.96        72.14279
421.41        72.02747
421.85        71.86018
422.30        71.48505
422.74        71.06081
423.19        71.39758
423.64        72.29853
424.08        72.59877
424.53        72.17186
424.98        72.04303
425.42        72.25982
425.87        72.02148
426.31        71.48055
426.76        71.53572
427.21        72.08222
427.65        72.15971
428.10        71.78033
428.54        71.72771
428.99        72.04175
429.44        72.28272
429.88        72.35281
430.33        72.32333
430.77        72.14325
431.22         71.9616
431.66        71.83353
432.11        71.81197
432.56        72.05279
433.00        72.45753
433.45        72.65573
433.89        73.10851
434.34        73.87629
434.78         71.9393
435.23        71.66393
435.67        72.75259
436.12        73.37721
436.57        73.70695
437.01        73.08971
437.46         72.7178
437.90        73.02638
438.35        74.12083
438.79        73.54049
439.24        73.59435
439.68        73.58949
440.13        73.44741
440.57          73.255
441.02        73.62982
441.46        74.35683
441.91         74.2529
442.35         73.4836
442.80         73.6179
443.24        74.47383
443.69        74.57581
444.13        73.96413
444.58        73.85385
445.02        74.22061
445.47        74.39458
445.91        74.33807
446.36        74.38303
446.80        74.50791
447.24        74.57236
447.69        74.60503
448.13        74.71165
448.58        74.86952
449.02        74.90961
449.47        74.84982
449.91        74.81094
450.36        74.82236
450.80         74.7806
451.25        74.72888
451.69        74.76113
452.13        74.86875
452.58        74.95497
453.02        74.98849
453.47        74.96548
453.91        74.87041
454.36        74.80036
454.80        74.69621
455.24        74.32903
455.69        73.83741
456.13        73.44904
456.58        73.32739
457.02        73.33843
457.46        74.08171
457.91        73.71783
458.35        72.90543
458.79        72.45819
459.24        72.50171
459.68        72.44791
460.13        72.29316
460.57        72.00558
461.01         71.9164
461.46         71.9296
461.90        71.53476
462.34        71.81612
462.79        72.06834
463.23        71.99362
463.68        71.53713
464.12         71.3433
464.56        71.44758
465.01        71.61462
465.45        71.63319
465.89        71.46004
466.34        71.21417
466.78        70.83952
467.22        70.38158
467.67        71.14094
468.11        70.94171
468.55        70.87107
468.99        70.38984
469.44        70.20955
469.88        70.35135
470.32        70.43474
470.77        70.40585
471.21        70.33598
471.65        70.20284
472.10        69.99165
472.54        69.74648
472.98        69.57388
473.42        69.49728
473.87        69.50338
474.31        69.48818
474.75        69.40687
475.20        69.29866
475.64        68.96304
476.08        69.13183
476.52        69.05647
476.97        68.95478
477.41        68.89868
477.85        68.72293
478.29        68.94801
478.74        68.98103
479.18        68.70749
479.62        68.93624
480.06         68.9122
480.50         68.9201
480.95        68.91199
481.39        68.84297
481.83        68.82982
482.27        68.78271
482.72        68.50785
483.16        68.57901
483.60        68.42326
484.04        68.23788
484.48        68.19995
484.93         68.3931
485.37        68.44347
485.81        68.67329
486.25        69.07301
486.69        69.97781
487.14        69.87589
487.58        69.03336
488.02        68.83237
488.46        68.52837
488.90        68.60781
489.34        68.71559
489.79        67.82208
490.23        68.45108
490.67         68.1059
491.11         67.6734
491.55        67.60734
491.99        67.88705
492.43        67.97298
492.88        67.81185
493.32        67.77338
493.76        67.84013
494.20        67.87854
494.64        67.89429
495.08        67.84639
495.52         67.7877
495.96        67.94929
496.41        68.24822
496.85        68.29082
497.29        68.06346
497.73        67.90348
498.17        67.76456
498.61        67.84167
499.05        68.02792
499.49        67.93674
499.93        67.62339
500.37        67.49262
500.82        67.53326
501.26        67.41199
501.70        67.68417
502.14        66.96053
502.58         67.5409
503.02        67.60605
503.46        67.50857
503.90        67.50314
504.34        67.50992
504.78        67.54247
505.22        67.55918
505.66        67.42255
506.10        67.21729
506.54         67.2507
506.98        67.47527
507.42        67.53204
507.86        67.71799
508.30        67.27666
508.74        67.66904
509.18        67.61833
509.62        67.54235
510.06         67.4907
510.50        67.47713
510.94        67.46747
511.38        67.44063
511.82        67.40322
512.26        67.35112
512.70        67.28589
513.14        67.21124
513.58        67.16525
514.02        67.15971
514.46        67.12335
514.90        67.01771
515.34        67.15446
515.78        66.94485
516.22        66.87051
516.66        66.79459
517.10        66.78941
517.54        66.85934
517.98        66.98686
518.42        67.13408
518.86        67.22353
519.30         67.2369
519.74        67.19772
520.18        67.13083
520.62         67.0761
521.06        67.04993
521.50        67.04082
521.93        67.05367
522.37        67.08363
522.81        67.12943
523.25        67.18587
523.69        67.23775
524.13        67.25959
524.57        67.24362
525.01        67.19626
525.45        67.11847
525.89        67.01347
526.32        66.88444
526.76        66.75008
527.20        66.62689
527.64        66.54832
528.08        66.52033
528.52        66.53028
528.96        66.56467
529.40        66.59924
529.83        66.61774
530.27         66.6407
530.71        66.64631
531.15        66.61102
531.59         66.5364
532.03        66.42802
532.46        66.32349
532.90        66.30695
533.34        66.38338
533.78        66.52528
534.22        66.67415
534.66        66.74042
535.09         66.6964
535.53        66.59039
535.97        66.45365
536.41        66.35184
536.85        66.30647
537.28        66.30096
537.72        66.32114
538.16        66.33477
538.60        66.33479
539.04        66.34705
539.47        66.35592
539.91        66.37351
540.35        66.38206
540.79        66.38692
541.22        66.38013
541.66        66.35827
542.10         66.3216
542.54         66.2805
542.97        66.22917
543.41        66.19576
543.85        66.16808
544.29        66.13997
544.72        66.11763
545.16        66.11745
545.60        66.12314
546.04        66.21156
546.47        66.32897
546.91        66.21697
547.35        65.95914
547.79        65.97446
548.22        66.20045
548.66        66.30392
549.10        66.22377
549.53        66.06297
549.97        65.88916
550.41        65.81828
550.84        65.86199
551.28        65.97005
551.72         66.1069
552.15        66.14192
552.59        66.05537
553.03        66.26423
553.46        66.05113
553.90        66.06442
554.34        66.08957
554.77         66.0767
555.21        66.02973
555.65         66.1123
556.08        66.18677
556.52        66.11954
556.96         65.9196
557.39        65.82627
557.83        65.87592
558.27        65.94034
558.70        65.99094
559.14         66.0134
559.57         65.9832
560.01        65.98614
560.45        65.99062
560.88        65.87674
561.32        65.73952
561.75        65.66727
562.19        65.70535
562.63        65.88091
563.06         66.0983
563.50        66.06187
563.93        65.80278
564.37        65.72111
564.80        65.81386
565.24        65.89924
565.68        65.94289
566.11        65.97217
566.55        66.00204
566.98        66.01723
567.42        66.02746
567.85        65.99474
568.29        65.98049
568.72        65.89772
569.16        65.80482
569.60        65.94409
570.03        66.25839
570.47        66.13358
570.90        66.33371
571.34         66.7635
571.77        66.68763
572.21        66.56563
572.64        66.57855
573.08        66.49061
573.51        66.19329
573.95        66.47086
574.38        66.78033
574.82        66.81679
575.25        66.74026
575.69        66.56389
576.12        66.36183
576.56         66.4741
576.99        66.84725
577.42        66.71701
577.86        66.90355
578.29        67.06065
578.73        66.94452
579.16        66.85936
579.60        66.63432
580.03        66.56744
580.47        66.51971
580.90        66.99212
581.33        66.99169
581.77        67.07732
582.20        66.99741
582.64         67.5304
583.07        67.09409
583.51         66.9174
583.94        66.75536
584.37        66.59236
584.81          66.437
585.24         66.5322
585.68        66.70976
586.11        67.03346
586.54        66.87934
586.98        66.17284
587.41         66.4619
587.85        66.55751
588.28        66.60645
588.71        66.26273
589.15         66.7767
589.58        66.24804
590.01        66.32616
590.45        66.69221
590.88        65.93477
591.31        65.80217
591.75        65.75668
592.18          65.645
592.61        65.71094
593.05        65.92776
593.48        66.82961
593.91        66.65025
594.35        66.31595
594.78        66.38023
595.21        65.92438
595.65        66.14188
596.08        66.60776
596.51         66.1272
596.94        66.17473
597.38        65.99729
597.81        66.10388
598.24        65.90775
598.68         66.2301
599.11        65.73159
599.54        66.08365
599.97        66.50941
600.41        66.12754
600.84        66.13824
601.27         66.1514
601.70        65.94989
602.14        65.52608
602.57           65.78
603.00        66.10689
603.43        66.18983
603.87          66.222
604.30        65.98274
604.73         65.9205
605.16         66.0073
605.60        65.94644
606.03        66.09103
606.46        66.20009
606.89        66.47421
607.32        65.82038
607.76        66.36024
608.19        65.93954
608.62        65.87033
609.05        65.64889
609.48        65.66155
609.92        65.92514
610.35        65.68508
610.78        66.20252
611.21        65.77282
611.64        65.95956
612.07        65.84504
612.50        65.70113
612.94        65.65234
613.37        65.72032
613.80        65.55481
614.23        65.73859
614.66        65.78403
615.09         65.8419
615.52        65.89532
615.96        65.93568
616.39        65.77757
616.82        65.78786
617.25        65.60622
617.68        65.47304
618.11        65.36237
618.54        65.35597
618.97        65.37705
619.40        65.35596
619.84        65.63729
620.27        65.48826
620.70        65.51752
621.13        65.43411
621.56        65.46384
621.99        65.12862
622.42        64.87793
622.85        65.18626
623.28        65.54816
623.71        65.28082
624.14        65.29441
624.57        65.47011
625.00        65.81217
625.43        65.37252
625.86        65.34805
626.29         65.5208
626.72         65.0253
627.15        65.19158
627.58        65.10052
628.01        65.18452
628.44        65.05514
628.87        64.54413
629.30        65.17323
629.73         65.1303
630.16        64.67233
630.59         65.0048
631.02         65.0227
631.45        65.18011
631.88        65.26552
632.31        65.30656
632.74        65.02502
633.17        65.08205
633.60        64.99445
634.03         64.9638
634.46        64.96567
634.89        64.98927
635.32        64.99154
635.75        64.95583
636.18        64.93563
636.61        64.92438
637.04        64.83661
637.47        64.70983
637.89        64.72064
638.32        64.83501
638.75        64.88584
639.18        64.86081
639.61        64.86445
640.04        64.87836
640.47        64.84014
640.90        64.75222
641.33        64.60648
641.76        64.44114
642.18         64.4797
642.61         64.4808
643.04        64.61986
643.47        64.77136
643.90        64.85825
644.33        64.85165
644.76        64.77208
645.18        64.65997
645.61        64.56654
646.04        64.51869
646.47        64.50735
646.90        64.50441
647.33        64.49034
647.75        64.46625
648.18        64.36684
648.61        64.25011
649.04        64.39439
649.47        64.71207
649.89        64.73288
650.32        64.48996
650.75        64.41887
651.18        64.53515
651.61        64.60828
652.03        64.57986
652.46         64.4585
652.89        64.39265
653.32        64.31339
653.74        64.53934
654.17        65.14558
654.60        64.84075
655.03        64.43378
655.46        64.45553
655.88        64.89916
656.31        67.29378
656.74        69.95131
657.16        68.76529
657.59        67.67963
658.02        65.51292
658.45        65.40994
658.87         65.4487
659.30        65.25691
659.73        64.99447
660.15        64.67467
660.58         64.6634
661.01        64.62836
661.44        64.59791
661.86        64.65748
662.29        64.74607
662.72        64.78858
663.14        64.78178
663.57        64.75983
664.00        64.73376
664.42        64.68047
664.85        64.61153
665.27         64.5281
665.70        64.44745
666.13        64.41304
666.55        64.43332
666.98        64.48002
667.41        64.54487
667.83         64.6162
668.26        64.67871
668.69        64.74729
669.11        64.80279
669.54        64.83096
669.96        64.84042
670.39        64.75333
670.82        64.63889
671.24        64.76813
671.67        65.06847
672.09         65.1384
672.52        64.99687
672.94        64.89211
673.37        64.87445
673.80        64.90999
674.22        64.97597
674.65        64.93993
675.07        64.81252
675.50        64.67347
675.92        64.57366
676.35        64.53208
676.77        64.56629
677.20        64.67351
677.62         64.8159
678.05          64.909
678.47        64.93281
678.90        64.91878
679.32        64.89692
679.75        64.93014
680.17        65.02423
680.60         65.1562
681.02        65.27818
681.45        65.30093
681.87        65.22035
682.30        65.04944
682.72        64.85146
683.15        64.75304
683.57        64.77151
684.00        64.76024
684.42        64.73814
684.85         64.8231
685.27        64.99663
685.70        65.21664
686.12        65.41391
686.54        65.48005
686.97        65.40637
687.39        65.33882
687.82        65.32005
688.24        65.17853
688.66        65.24632
689.09        65.30475
689.51        65.41673
689.94        65.45396
690.36        65.40649
690.78        65.30212
691.21        65.18562
691.63        65.12402
692.06        65.13605
692.48        65.19625
692.90        65.25903
693.33        65.24291
693.75        65.13981
694.17        64.98846
694.60        64.82765
695.02        64.76079
695.44        64.80598
695.87        64.89165
696.29        65.00935
696.71        65.24274
697.14        65.51221
697.56        65.60667
697.98        65.52734
698.41        65.52459
698.83        65.59098
699.25        65.60381
699.68        65.55496
700.10        65.55255
700.52         65.5943
700.94        65.65927
701.37        65.71397
701.79        65.73564
702.21        65.69933
702.64        65.63143
703.06        65.55089
703.48        65.50674
703.90        65.51457
704.33        65.55054
704.75        65.60346
705.17         65.6349
705.59        65.63658
706.01        65.60048
706.44        65.54252
706.86        65.61515
707.28        65.64295
707.70        65.73013
708.12        65.81483
708.55        65.91663
708.97         65.9991
709.39        65.98242
709.81        65.88357
710.23        65.82288
710.66        65.81609
711.08        65.81725
711.50         65.8034
711.92        65.78709
712.34        65.76733
712.76        65.74067
713.19         65.7168
713.61        65.75505
714.03        65.84053
714.45        65.95784
714.87        66.07053
715.29        66.12196
715.71        66.10117
716.13        66.02822
716.56        65.91927
716.98        65.87506
717.40        65.89835
717.82        65.97192
718.24        66.08186
718.66        66.20506
719.08         66.3257
719.50        66.44191
719.92        66.54459
720.34        66.61955
720.76        66.66063
721.19         66.6605
721.61        66.62691
722.03        66.54603
722.45        66.42594
722.87        66.28013
723.29        66.14614
723.71        66.07755
724.13        66.08885
724.55        66.18167
724.97        66.35289
725.39        66.47301
725.81        66.49778
726.23         66.6566
726.65        67.02125
727.07        66.55063
727.49        67.09428
727.91        67.15313
728.33        67.23228
728.75        67.21555
729.17        67.10654
729.59        66.91534
730.01        66.69223
730.43        66.57059
730.85        66.57246
731.27        66.65774
731.69        66.77974
732.10         66.8663
732.52        66.88776
732.94          66.897
733.36        66.89388
733.78        66.85191
734.20        66.77657
734.62        66.82786
735.04        66.52657
735.46        66.77079
735.88        67.24863
736.30        67.17215
736.72        66.61863
737.13        66.40955
737.55        66.59746
737.97        66.83145
738.39        67.01781
738.81        67.06734
739.23        66.98106
739.65        66.99084
740.06        67.06235
740.48        67.03158
740.90        66.86843
741.32        66.75059
741.74        66.62163
742.16        66.59501
742.57        66.66294
742.99        66.80896
743.41        66.97603
743.83        67.05518
744.25        67.02082
744.67        66.89038
745.08        66.74889
745.50        66.70161
745.92        66.79164
746.34        66.98705
746.75        67.18822
747.17        67.24834
747.59         67.1397
748.01        66.85932
748.42        66.54678
748.84        66.52412
749.26        66.77382
749.68        67.00542
750.09        67.12507
750.51        67.11354
750.93        67.00428
751.35        67.00073
751.76        67.09429
752.18        67.05079
752.60        66.86802
753.01        66.74003
753.43        66.70212
753.85        66.65929
754.27        66.59922
754.68        66.97343
755.10        66.97558
755.52        67.14032
755.93         67.2259
756.35         67.2663
756.77        67.26702
757.18          67.348
757.60        67.54445
758.02         67.6209
758.43        67.54195
758.85        68.02982
759.26        67.82112
759.68        67.84203
760.10        67.87991
760.51        66.96887
760.93        67.36215
761.34        67.32191
761.76         67.8455
762.18        67.93011
762.59        67.74084
763.01        67.54575
763.42        67.47707
763.84        67.54834
764.26        67.74406
764.67        67.83634
765.09        67.82388
765.50        67.83138
765.92        67.86053
766.33        67.72239
766.75        67.42027
767.16         67.2739
767.58        67.28488
768.00        67.34779
768.41        67.45276
768.83        67.59869
769.24        67.75613
769.66        67.82007
770.07        67.77657
770.49        67.88705
770.90        68.08083
771.32        67.88288
771.73        67.43998
772.15        67.31293
772.56         67.5559
772.97        67.95881
773.39        68.33878
773.80        68.41281
774.22        68.17107
774.63         68.0592
775.05        68.10648
775.46        68.10133
775.88        68.03288
776.29        68.10216
776.70        68.27287
777.12        68.38471
777.53         68.4325
777.95        68.45896
778.36         68.4636
778.77        68.41829
779.19        68.32918
779.60        68.20801
780.02        68.10777
780.43        68.12749
780.84        68.25473
781.26        68.50518
781.67        68.86114
782.09        68.97348
782.50        68.74939
782.91        69.27917
783.33        68.77599
783.74        68.75107
784.15        68.67912
784.57        68.56046
784.98        68.45616
785.39        68.56208
785.81        68.86665
786.22        69.16505
786.63        69.36497
787.04          69.489
787.46        69.51857
787.87        69.37858
788.28        69.16315
788.70        69.05024
789.11        69.05193
789.52        69.16009
789.93        69.30831
790.35        69.28311
790.76         69.1164
791.17        69.06421
791.58        69.13883
792.00        69.11064
792.41        68.98984
792.82        69.10982
793.23        69.05508
793.65        69.29574
794.06         69.6634
794.47        70.03953
794.88        70.32581
795.29        70.28339
795.71        70.33059
796.12        70.03935
796.53        69.63353
796.94         69.4683
797.35         69.5584
797.76        69.54921
798.18        69.43549
798.59        69.45161
799.00        69.59517
799.41        69.72109
799.82        69.80142
800.23        69.87694
800.64        69.93643
801.06        69.92695
801.47        69.91189
801.88        69.92992
802.29        69.99039
802.70         70.0893
803.11        70.16645
803.52        70.11578
803.93        69.92773
804.34        69.64346
804.75        69.37433
805.17        69.30762
805.58        69.51347
805.99         69.8576
806.40         70.2343
806.81        70.57457
807.22        70.75205
807.63        70.57833
808.04        70.16225
808.45        69.91685
808.86        69.92024
809.27        69.96642
809.68        70.01645
810.09        70.08504
810.50        70.15154
810.91        70.22204
811.32        70.28915
811.73        70.34563
812.14        70.38826
812.55        70.36749
812.96        70.29731
813.37        70.31488
813.78        70.38441
814.19        70.27361
814.60         70.0285
815.01        69.91713
815.42        69.96352
815.83        70.02803
816.24        70.10848
816.65         70.2652
817.05         70.4867
817.46         70.7047
817.87        70.90742
818.28        71.03688
818.69        71.08015
819.10        71.05173
819.51         70.9716
819.92        70.88084
820.33        70.80406
820.74        70.73756
821.14          70.688
821.55        70.69562
821.96        70.74564
822.37        70.83803
822.78        70.94933
823.19        71.02922
823.60        71.06308
824.00        71.08382
824.41        71.06536
824.82        71.05745
825.23        71.07254
825.64          71.098
826.04        71.16559
826.45        71.29242
826.86        71.47988
827.27        71.71175
827.68        71.92751
828.08        72.05655
828.49        72.01072
828.90        71.85258
829.31        71.63408
829.72         71.4482
830.12        71.35332
830.53        71.28726
830.94        71.25927
831.35        71.24499
831.75        71.25471
832.16        71.25818
832.57        71.27107
832.97        71.27894
833.38        71.27245
833.79        71.25861
834.20        71.24435
834.60        71.24087
835.01        71.26275
835.42        71.29483
835.82        71.36193
836.23        71.42977
836.64        71.51372
837.04          71.637
837.45        71.72629
837.86        71.75905
838.26        71.74156
838.67        71.66972
839.08        71.59929
839.48        71.60571
839.89        71.70513
840.29        71.86917
840.70        72.05768
841.11        72.20932
841.51        72.31941
841.92        72.36851
842.33        72.37144
842.73        72.34863
843.14        72.26492
843.54        72.14588
843.95        72.01377
844.35        71.92602
844.76        71.88605
845.17        71.88401
845.57        71.90537
845.98         71.8807
846.38         71.8203
846.79        71.73104
847.19        71.63482
847.60        71.51836
848.00        71.41045
848.41         71.2709
848.81        71.18256
849.22        71.20808
849.62        71.38614
850.03        71.67306
850.43        71.96362
850.84        72.00845
851.24        71.80415
851.65        71.34875
852.05         70.8876
852.46        70.76691
852.86        71.06791
853.27        71.67987
853.67        72.27092
854.07        72.57016
854.48        72.48715
854.88        72.14498
855.29        71.63699
855.69        71.34802
856.10        71.31017
856.50        71.49244
856.90        71.71564
857.31        71.72437
857.71        71.50629
858.12         71.1115
858.52        70.70518
858.92        70.41879
859.33         70.2915
859.73        70.30424
860.13        70.40951
860.54        70.54945
860.94        70.71815
861.34         70.8973
861.75        71.01733
862.15        71.03158
862.55        70.90955
862.96        70.68481
863.36        70.40403
863.76        70.14669
864.17        69.94003
864.57        69.77232
864.97        69.68594
865.38        69.72195
865.78        69.91585
866.18        70.24016
866.58        70.53581
866.99        70.53307
867.39        70.20771
867.79        69.61598
868.19        68.98636
868.60        68.62547
869.00        68.59119
869.40        68.83025
869.80        69.18855
870.21         69.3774
870.61        69.37373
871.01        69.21368
871.41        69.01488
871.81        68.94265
872.22        69.00906
872.62        69.17319
873.02        69.38023
873.42        69.52761
873.82         69.5756
874.22        69.57689
874.63        69.55991
875.03        69.53307
875.43        69.51868
875.83        69.50031
876.23        69.52246
876.63          69.666
877.03        69.92787
877.44        70.26355
877.84        70.57916
878.24        70.68468
878.64        70.54462
879.04        70.24021
879.44          69.869
879.84        69.56636
880.24        69.37146
880.64          69.237
881.04        69.18128
881.44        69.23533
881.84        69.37806
882.24        69.59019
882.65        69.73558
883.05        69.68481
883.45        69.37845
883.85        68.89855
884.25        68.36312
884.65        67.94253
885.05        67.69294
885.45        67.56828
885.85        67.58698
886.25        67.77496
886.65        68.10463
887.05         68.5521
887.45        68.98958
887.85        69.22647
888.25        69.21256
888.65        68.97449
889.04        68.61279
889.44        68.35551
889.84        68.25518
890.24        68.27701
890.64        68.32259
891.04        68.23056
891.44        67.97935
891.84        67.63722
892.24        67.35056
892.64        67.33605
893.04         67.6305
893.44        68.15366
893.83        68.75139
894.23        69.11584
894.63        69.18887
895.03        69.03577
895.43        68.79343
895.83        68.69106
896.23        68.78918
896.63        69.01576
897.02        69.24046
897.42        69.30858
897.82        69.17741
898.22        68.91553
898.62        68.64216
899.01        68.55534
899.41          68.688
899.81        68.98785
900.21        69.33512
900.61        69.53698
901.00         69.5274
901.40        69.37663
901.80        69.17728
902.20        69.08905
902.59        69.16223
902.99        69.33276
903.39        69.52106
903.79        69.58797
904.18        69.50411
904.58        69.33729
904.98        69.17599
905.38        69.14919
905.77        69.27299
906.17         69.5037
906.57        69.76981
906.96        69.97601
907.36        70.05663
907.76        70.05083
908.15        69.97912
908.55        69.80627
908.95        69.57983
909.34        69.29895
909.74        69.05042
910.14        68.90799
910.53        68.89763
910.93        68.98554
911.33        69.14781
911.72        69.33366
912.12        69.48705
912.52        69.61837
912.91        69.68483
913.31        69.65897
913.70        69.53887
914.10        69.31889
914.49        69.06887
914.89         68.8679
915.29        68.76936
915.68        68.75954
916.08        68.80295
916.47        68.82395
916.87        68.82246
917.26        68.81145
917.66        68.83281
918.05        68.91453
918.45        69.05055
918.84        69.23582
919.24        69.42679
919.64        69.63934
920.03        69.87644
920.42        70.12492
920.82        70.33694
921.21        70.43382
921.61        70.38719
922.00        70.21066
922.40        70.00622
922.79        70.02782
923.19        70.28252
923.58        70.73917
923.98        71.12045
924.37        71.05988
924.77        70.48265
925.16         69.4869
925.55        68.41147
925.95        67.84248
926.34        67.93756
926.74        68.51913
927.13        69.26096
927.52        69.53687
927.92        69.22552
928.31        68.51973
928.70        67.75108
929.10        67.41451
929.49        67.63243
929.89        68.21296
930.28        68.96821
930.67        69.46499
931.07        69.54383
931.46        69.35817
931.85        69.03878
932.24        68.81848
932.64        68.76984
933.03        68.81461
933.42        68.89325
933.82        68.91836
934.21        68.87317
934.60        68.81602
934.99        68.79195
935.39        68.84045
935.78         68.9971
936.17        69.21091
936.56        69.46752
936.96         69.7313
937.35        70.02012
937.74        70.31641
938.13        70.53516
938.53        70.56273
938.92        70.39719
939.31        70.04411
939.70        69.68004
940.09        69.61453
940.49        69.88378
940.88        70.43281
941.27        70.97538
941.66        71.07332
942.05        70.65269
942.44        69.86481
942.84        69.02197
943.23        68.57766
943.62        68.68752
944.01        69.20527
944.40        69.90759
944.79        70.38938
945.18        70.49894
945.57        70.35448
945.97        70.03823
946.36        69.75069
946.75        69.52002
947.14        69.27296
947.53        69.01805
947.92        68.79106
948.31        68.60838
948.70        68.50977
949.09        68.44347
949.48        68.30252
949.87         68.0776
950.26        67.79607
950.65        67.58236
951.04        67.63599
951.43        67.99092
951.82         68.5846
952.21        69.22691
952.60        69.59332
952.99        69.57919
953.38        69.24857
953.77        68.79848
954.16        68.54275
954.55        68.54628
954.94        68.71763
955.33        68.84819
955.72        68.59608
956.11        67.88541
956.50        66.83766
956.89        65.72097
957.28        64.98476
957.66         64.8175
958.05        65.12064
958.44        65.65759
958.83        66.03368
959.22        66.11926
959.61        65.95996
960.00        65.80582
960.39        66.06346
960.78        66.78008
961.16        67.84203
961.55        68.71843
961.94        68.62022
962.33        67.42094
962.72        65.47626
963.11         63.4762
963.49         62.4074
963.88        62.49735
964.27        63.46702
964.66        64.91118
965.04        66.08289
965.43        66.59778
965.82        66.69852
966.21        66.55424
966.60        66.44586
966.98        66.47462
967.37        66.46638
967.76        66.40912
968.15        66.31247
968.53        66.19467
968.92        66.13094
969.31        66.08907
969.69        65.95377
970.08        65.73162
970.47        65.49373
970.86         65.4402
971.24        65.92486
971.63        66.90159
972.02        68.16806
972.40         69.5136
972.79        70.53907
973.17        71.23607
973.56         71.6362
973.95        71.73447
974.33        71.48945
974.72        70.92753
975.11        70.05173
975.49        69.05719
975.88        68.31615
976.26        67.95845
976.65        67.95826
977.04        68.11499
977.42        68.02355
977.81        67.52519
978.19        66.67891
978.58        65.91088
978.96        65.88035
979.35        66.70908
979.74        68.23225
980.12        69.83097
980.51        70.30935
980.89        69.51859
981.28        67.65702
981.66        65.59184
982.05        64.96322
982.43        66.15614
982.82        68.58014
983.20        71.20552
983.59        72.28059
983.97        71.51173
984.35        69.44181
984.74        66.79898
985.12         64.8894
985.51        64.19876
985.89        64.28671
986.28        64.97554
986.66        66.11909
987.04        67.49199
987.43        69.16586
987.81        70.63836
988.20        70.89008
988.58        69.78214
988.96         67.5908
989.35        65.03513
989.73        63.36601
990.12        62.91327
990.50        63.38712
990.88        64.56551
991.27        65.75647
991.65        66.50205
992.03        67.01885
992.42        67.13397
992.80        66.90105
993.18        66.23415
993.56         65.0005
993.95        63.54864
994.33        62.69329
994.71         62.9331
995.10        63.91887
995.48        65.08926
995.86        65.67624
996.24         65.5913
996.63        64.95187
997.01        64.18867
997.39        64.15805
997.77        65.12434
998.15         66.7615
998.54        68.22295
998.92        68.40351
999.30         67.1283
999.68        64.74413
1000.06        62.13965
1000.45        60.93679
1000.83        61.69844
1001.21        63.84178
1001.59        66.46014
1001.97        68.24574
1002.35        68.85817
1002.73        68.68921
1003.12        68.02032
1003.50         67.3084
1003.88        66.90157
1004.26        66.56838
1004.64        66.42039
1005.02        66.64534
1005.40        67.21964
1005.78         68.1813
1006.16        69.16312
1006.54        69.44239
1006.92        68.83521
1007.30        67.51169
1007.69        66.06824
1008.07        65.40071
1008.45         65.8158
1008.83        67.03163
1009.21        68.42367
1009.59        69.07925
1009.97        68.75491
1010.35        67.60924
1010.73         66.1063
1011.11        65.43919
1011.49        66.10555
1011.86         67.7244
1012.24        69.38504
1012.62        70.10906
1013.00        69.75399
1013.38        68.82433
1013.76        67.58953
1014.14        66.47668
1014.52        65.70408
1014.90        64.97459
1015.28        64.86426
1015.66        66.42423
1016.04        69.65398
1016.41         74.2537
1016.79        78.27116
1017.17        79.24155
1017.55        76.86647
1017.93        71.96758
1018.31        66.55659
1018.69        63.83795
1019.06        64.75919
1019.44        68.67522
1019.82        74.08459
1020.20        77.60625
1020.58         77.8035
1020.95        75.59538
1021.33        72.57022
1021.71        70.73473
1022.09        70.44302
1022.46        70.97311
1022.84        71.37872
1023.22        69.89555
1023.60        65.94622
1023.97        59.77936
1024.35        52.90049
1024.73        48.44576
