SpectraSmart Spectrum 2.9.0.0
--------- Device Information -----------
Spectrum Name :  反射率_0
Saving Time :  2024/04/27 23:58:18
Spectro-Module Model Name : SE2030-DUVN
Spectro-Module Serial Number : OS361AC55029948
Wavelength Start : 200
Wavelength End : 1025
Wavelength Unit : Wavelength(nm)
Spectrum Unit : Reflectance(%)
-----------Spectrum Setting ------------
Integration Time : 20ms
Average : 10
Boxcar : 0
Background removal :  enabled
linearity correction :  enabled
SC :  disabled
Intensity correction :  disabled
DWT denoise :  enabled
savitzky-golay :  disabled
FFT :  disabled
Running average :  disabled
Kalman :  disabled
High pass :  disabled
---------------BEGIN--------------------
Wavelength(nm)             Reflectance(%)
200.29               0
200.75        46.80004
201.21        60.78085
201.67        72.61996
202.13        76.19891
202.58        74.02075
203.04        69.22832
203.50        65.59936
203.96        68.19231
204.42        75.96385
204.88        85.28493
205.34        92.89617
205.80         96.2965
206.26        95.22305
206.72        89.35581
207.18        77.36725
207.64        64.82294
208.10        60.87726
208.55         64.5056
209.01        67.57081
209.47        65.87185
209.93        57.66287
210.39        34.52818
210.85       -32.32813
211.31         -89.991
211.77        24.57945
212.23        85.22184
212.69        103.0022
213.14        105.0885
213.60        97.97389
214.06        80.63438
214.52        48.47902
214.98        19.04273
215.44        19.43194
215.90        34.80926
216.36        50.20853
216.81        60.09383
217.27        65.81972
217.73        70.49266
218.19        73.75501
218.65        74.03276
219.11        70.97109
219.57        64.21395
220.02        55.07944
220.48        49.32483
220.94        49.05535
221.40        52.55572
221.86        57.40967
222.32        60.96012
222.77        62.72812
223.23        63.39071
223.69        63.10542
224.15        61.81428
224.61        59.58135
225.06        56.18583
225.52        52.26657
225.98        49.18192
226.44        47.62085
226.90        47.08989
227.36        46.95014
227.81        46.51134
228.27        45.59644
228.73        44.32915
229.19        42.65572
229.65        40.63017
230.10        38.47691
230.56         36.6304
231.02        35.24383
231.48        34.60671
231.93        34.63983
232.39        35.17197
232.85        36.26391
233.31        38.02957
233.77        40.28901
234.22        43.01424
234.68         45.3483
235.14        46.27239
235.60        45.72373
236.05        43.83701
236.51        41.89643
236.97        42.61501
237.43        46.83221
237.88        53.70189
238.34        60.85366
238.80         66.2439
239.26        69.76797
239.71        72.16879
240.17        73.74653
240.63        75.46672
241.08        77.36897
241.54        78.13668
242.00        78.26119
242.46        78.39986
242.91        78.87526
243.37        79.87307
243.83        82.88042
244.28        90.48072
244.74        99.46896
245.20        104.0162
245.66        103.9199
246.11        102.2476
246.57        99.64774
247.03        94.22765
247.48        85.96657
247.94        80.87107
248.40        84.86401
248.85         95.0359
249.31        104.8707
249.77        108.4655
250.22         107.012
250.68        103.6645
251.14        100.7667
251.59        100.4265
252.05        103.0248
252.51        108.1383
252.96        115.0667
253.42        119.6129
253.88        118.3607
254.33        113.6581
254.79        108.9966
255.25        105.1568
255.70         101.761
256.16         99.0902
256.62         97.2598
257.07         96.6427
257.53         97.3024
257.99        98.13198
258.44        98.13631
258.90        97.11271
259.35        94.77055
259.81        92.16974
260.27        89.43976
260.72        86.86376
261.18         84.9895
261.63        83.23429
262.09        81.89282
262.55        80.70422
263.00        79.46604
263.46         78.4082
263.91        77.22509
264.37        76.01385
264.83        74.69547
265.28         73.2467
265.74        71.87372
266.19        70.50297
266.65        69.23064
267.11        67.98514
267.56        66.69156
268.02        65.37498
268.47         63.9925
268.93        62.57669
269.38        61.20238
269.84        60.02566
270.30        59.05242
270.75        58.23713
271.21        57.40661
271.66           56.23
272.12        54.69024
272.57        52.84676
273.03        51.01735
273.48        49.59293
273.94         48.7148
274.39        48.19303
274.85        47.80095
275.31        47.09647
275.76        45.98943
276.22        44.69262
276.67        43.38506
277.13        42.45337
277.58        41.88383
278.04        41.58204
278.49        41.30741
278.95        40.86625
279.40         40.1501
279.86        39.33017
280.31        38.45527
280.77        37.73858
281.22        37.17677
281.68        36.76244
282.13        36.42506
282.59        36.14897
283.04        35.88596
283.50        35.67782
283.95        35.49778
284.41        35.35571
284.86        35.23216
285.32        35.15418
285.77        35.10077
286.22        35.10345
286.68        35.17681
287.13         35.2581
287.59        35.38176
288.04        35.51066
288.50        35.66535
288.95        35.81604
289.41        35.94759
289.86        35.97163
290.32        35.92594
290.77         35.8479
291.22        35.84139
291.68        36.04656
292.13        36.49384
292.59        37.17948
293.04        38.06748
293.50        39.12481
293.95        40.31576
294.40        41.65801
294.86        43.13942
295.31        44.73058
295.77        46.42795
296.22        48.19932
296.68        50.04394
297.13        51.93193
297.58        53.84081
298.04        55.76435
298.49        57.67085
298.95        59.58756
299.40        61.52003
299.85        63.48478
300.31        65.52761
300.76        67.64568
301.21        69.82353
301.67        72.06148
302.12        74.24589
302.58        76.32724
303.03        78.25928
303.48        80.10642
303.94        81.99155
304.39        83.99181
304.84        86.15739
305.30        88.45543
305.75        90.75672
306.20        92.98479
306.66         95.1216
307.11        97.12142
307.57        99.02066
308.02        100.7346
308.47        102.2772
308.93        103.6709
309.38        104.8956
309.83        106.0471
310.29        107.1874
310.74         108.302
311.19        109.4017
311.65        110.4616
312.10        111.4406
312.55         112.343
313.00        113.2363
313.46         114.235
313.91        115.3204
314.36        116.4618
314.82        117.4947
315.27        118.1537
315.72        118.3983
316.18        118.3441
316.63        118.1805
317.08        118.2519
317.53        118.6522
317.99        119.2775
318.44        120.0164
318.89        120.6503
319.35        121.1023
319.80        121.4513
320.25        121.7234
320.70        121.9666
321.16        122.1932
321.61        122.3938
322.06        122.5872
322.51        122.8315
322.97        123.1138
323.42        123.4634
323.87        123.8163
324.32         124.084
324.78         124.227
325.23        124.3212
325.68        124.3858
326.13         124.488
326.59        124.6277
327.04        124.8453
327.49        125.1251
327.94        125.4824
328.39         125.914
328.85        126.3776
329.30        126.9184
329.75         127.414
330.20        127.8345
330.66        128.1581
331.11        128.4889
331.56        128.8709
332.01        129.3309
332.46        129.8423
332.92        130.3262
333.37        130.8311
333.82        131.2801
334.27        131.6867
334.72        132.0526
335.17         132.381
335.63        132.6523
336.08         132.935
336.53        133.2211
336.98         133.551
337.43        133.9375
337.88        134.3738
338.34        134.8293
338.79        135.3167
339.24        135.8017
339.69        136.2827
340.14        136.7484
340.59        137.1805
341.05        137.5846
341.50        137.9888
341.95        138.3885
342.40        138.7964
342.85        139.2218
343.30        139.6435
343.75        140.1193
344.20        140.7405
344.66        141.5026
345.11         142.361
345.56        143.1409
346.01        143.5647
346.46        143.5892
346.91        143.3082
347.36        142.9534
347.81        142.8831
348.26        143.1797
348.72        143.7425
349.17        144.3716
349.62         144.771
350.07        144.8506
350.52        144.6955
350.97         144.438
351.42        144.2857
351.87        144.2912
352.32        144.3822
352.77        144.4337
353.22        144.2655
353.67        143.8372
354.13        143.2187
354.58         142.518
355.03        141.9697
355.48        141.6191
355.93        141.3952
356.38        141.1302
356.83        140.5622
357.28        139.6473
357.73        138.4913
358.18        137.2766
358.63        136.2761
359.08        135.5617
359.53        135.0534
359.98        134.6222
360.43        134.0664
360.88        133.3228
361.33        132.4416
361.78         131.518
362.23        130.6916
362.68        129.9885
363.13         129.377
363.58        128.7454
364.03        127.7942
364.48        126.7103
364.93        125.4143
365.38        124.0969
365.83        122.9491
366.28        122.0225
366.73        121.2433
367.18        120.5561
367.63        119.8734
368.08        119.1571
368.53        118.4487
368.98        117.7035
369.43        116.8428
369.88         115.873
370.33         114.817
370.78        113.8043
371.23         113.055
371.68        112.6042
372.13         112.366
372.58        112.1953
373.03        111.8527
373.48        111.2588
373.93        110.4824
374.38        109.5696
374.83        108.5939
375.28         107.608
375.72        106.5913
376.17        105.6385
376.62        104.8238
377.07        104.1622
377.52        103.6211
377.97        103.1735
378.42        102.7647
378.87         102.362
379.32        101.9816
379.77        101.5452
380.22        100.9338
380.67          100.14
381.11        99.19971
381.56        98.26769
382.01        97.62071
382.46          97.327
382.91        97.31237
383.36        97.39071
383.81        97.26286
384.26        96.85292
384.71        96.24432
385.15        95.57089
385.60        95.11087
386.05        94.89892
386.50        94.84071
386.95        94.79917
387.40        94.57468
387.85        94.13222
388.29        93.50755
388.74        92.91236
389.19         92.4137
389.64        92.02985
390.09         91.7048
390.54        91.41124
390.98        91.07252
391.43        90.72261
391.88        90.41628
392.33        90.14264
392.78        89.69706
393.23        89.30979
393.67        88.88212
394.12        88.62483
394.57        88.27592
395.02        88.06396
395.47        88.01991
395.91        88.12537
396.36        88.05186
396.81        87.77631
397.26        87.46176
397.71        87.15803
398.15        86.84335
398.60        86.62115
399.05        86.41939
399.50        86.25253
399.95        86.12019
400.39        86.01537
400.84        85.96963
401.29        85.93015
401.74        85.55358
402.18        84.96262
402.63        84.75471
403.08        84.90565
403.53        84.81121
403.97        84.45084
404.42        84.21844
404.87        84.09754
405.32        83.94456
405.76        83.74654
406.21        83.45226
406.66        83.14147
407.11        83.13666
407.55         83.3604
408.00        83.34293
408.45        83.05965
408.90        82.55144
409.34        82.01373
409.79        82.04631
410.24        82.50639
410.68        82.61773
411.13        82.32755
411.58        82.01484
412.03        81.93721
412.47        81.84415
412.92        81.78438
413.37        81.79229
413.81        81.81807
414.26        81.84683
414.71         81.8409
415.15        81.82806
415.60        81.76425
416.05        81.65154
416.49        81.50665
416.94        81.32568
417.39        81.14964
417.83        81.04152
418.28        81.00117
418.73        80.98158
419.17        80.97913
419.62        80.99123
420.07        81.01839
420.51         81.0709
420.96        81.06978
421.41        80.91654
421.85        80.60276
422.30        79.99369
422.74        79.31785
423.19        79.57677
423.64        80.54153
424.08        80.80399
424.53        80.28185
424.98        80.20837
425.42        80.62797
425.87        80.78395
426.31        80.64136
426.76        80.50392
427.21        80.37002
427.65        80.21048
428.10        80.11098
428.54        80.06139
428.99        80.10382
429.44        80.54724
429.88         81.1115
430.33        80.73285
430.77        79.68311
431.22        79.52293
431.66        80.19006
432.11         80.5613
432.56        80.58011
433.00        80.75542
433.45        80.85351
433.89        80.87585
434.34        80.85805
434.78        79.82174
435.23        79.05295
435.67        79.59358
436.12         80.6641
436.57        80.89511
437.01        80.07462
437.46        80.45992
437.90        80.21735
438.35        81.46768
438.79        80.81647
439.24        80.98467
439.68        80.94189
440.13        80.81375
440.57        80.65174
441.02        81.06027
441.46        81.78795
441.91        81.73423
442.35        80.98879
442.80        80.77491
443.24        81.03874
443.69        81.09332
444.13        80.92052
444.58        80.90255
445.02        81.00561
445.47        81.16405
445.91        81.36353
446.36        81.45609
446.80        81.37185
447.24        81.67786
447.69        81.69156
448.13        81.41091
448.58        82.01943
449.02         81.8539
449.47        81.45018
449.91         81.2939
450.36        81.45538
450.80        81.59885
451.25        81.67952
451.69        81.76941
452.13        81.83293
452.58         81.7878
453.02         81.6594
453.47        81.53024
453.91        81.40633
454.36        81.38308
454.80        81.38268
455.24        81.05156
455.69        80.53591
456.13        80.27999
456.58        80.41642
457.02        80.34674
457.46        81.07695
457.91        80.69437
458.35        79.96326
458.79        79.56893
459.24        79.66288
459.68        79.52425
460.13        79.11964
460.57        79.35556
461.01        78.84138
461.46        79.01669
461.90        78.75351
462.34        78.88641
462.79        78.79342
463.23        78.81497
463.68        78.83907
464.12        78.81229
464.56        78.74689
465.01        78.81934
465.45        78.82388
465.89        78.53449
466.34        78.08265
466.78        77.56319
467.22        77.07521
467.67        77.73712
468.11        77.46947
468.55        77.94956
468.99        77.73108
469.44        77.83527
469.88        77.99021
470.32        77.96034
470.77        77.76524
471.21        77.57719
471.65        77.43343
472.10        77.30064
472.54         77.1423
472.98        77.00324
473.42        76.90091
473.87        76.68382
474.31        76.39795
474.75        76.62448
475.20        77.15535
475.64        76.97421
476.08        76.19403
476.52        75.91815
476.97        76.19426
477.41        76.31103
477.85        76.13682
478.29        76.42097
478.74        76.36131
479.18        75.73742
479.62        76.29361
480.06        76.18703
480.50         75.9979
480.95        75.88018
481.39        75.84286
481.83        75.72051
482.27        75.75065
482.72        75.72234
483.16        75.80083
483.60        75.78766
484.04        75.66338
484.48        75.59917
484.93        75.81175
485.37        75.40837
485.81        75.73978
486.25        76.14372
486.69         75.6088
487.14        74.94862
487.58        75.21971
488.02        75.92495
488.46         75.5997
488.90        76.07146
489.34        75.46128
489.79        74.41245
490.23        75.34676
490.67         75.3729
491.11        75.27193
491.55        75.05407
491.99        74.83774
492.43        74.80872
492.88        74.95994
493.32        75.17326
493.76        75.32359
494.20        75.40993
494.64        75.43051
495.08        75.19765
495.52        74.87196
495.96        75.11378
496.41        75.73702
496.85        75.70786
497.29         75.1447
497.73        74.73772
498.17        75.26584
498.61        75.44874
499.05        75.39242
499.49        75.11234
499.93        74.73566
500.37        74.56216
500.82        74.61049
501.26        74.57567
501.70        75.22024
502.14        74.44852
502.58        74.95509
503.02         74.9858
503.46        74.95635
503.90        74.93942
504.34        74.85542
504.78        74.83121
505.22        74.83194
505.66        74.72075
506.10        74.55359
506.54        74.53333
506.98        74.67577
507.42        74.70092
507.86        75.19616
508.30        74.90392
508.74        75.23679
509.18        75.17863
509.62        75.12336
510.06        75.06287
510.50        75.01189
510.94        74.95601
511.38        74.88737
511.82        74.83025
512.26        74.78487
512.70        74.75219
513.14        74.72321
513.58        74.68861
514.02        74.65193
514.46        74.60195
514.90        74.53548
515.34        74.57928
515.78        74.53609
516.22        74.55012
516.66        74.58183
517.10        74.66685
517.54        74.79893
517.98        74.96912
518.42        75.10942
518.86        75.10635
519.30        74.94639
519.74        74.66958
520.18        74.37886
520.62        74.23471
521.06        74.27573
521.50         74.4577
521.93         74.6968
522.37        74.83807
522.81        74.84388
523.25        74.75513
523.69        74.63561
524.13        74.58557
524.57         74.6293
525.01        74.72968
525.45        74.83143
525.89        74.85367
526.32        74.77251
526.76        74.63038
527.20        74.47695
527.64        74.40301
528.08        74.42999
528.52        74.50854
528.96        74.58796
529.40        74.64214
529.83        74.62205
530.27        74.45264
530.71        74.20697
531.15        74.11141
531.59        74.19298
532.03        74.34317
532.46         74.4889
532.90        74.56986
533.34        74.55303
533.78        74.46408
534.22        74.33939
534.66        74.23332
535.09        74.15414
535.53        74.10696
535.97        74.07212
536.41        74.03574
536.85        73.99684
537.28        73.97301
537.72        73.96759
538.16        73.97163
538.60        73.98507
539.04        74.01345
539.47         74.0471
539.91        74.11722
540.35        74.20152
540.79        74.30622
541.22        74.37715
541.66        74.33873
542.10        74.18182
542.54        73.93736
542.97         73.6805
543.41        73.57029
543.85        73.62116
544.29        73.79083
544.72         73.9838
545.16        74.08717
545.60         74.0545
546.04        73.91933
546.47        73.74184
546.91        73.64336
547.35        73.64473
547.79         73.6788
548.22        73.68575
548.66        73.68349
549.10        73.63203
549.53        73.49936
549.97        73.34537
550.41        73.28554
550.84        73.31946
551.28        73.46488
551.72        73.67345
552.15        73.65569
552.59        73.35453
553.03         73.6615
553.46        73.19573
553.90         73.1754
554.34        73.15829
554.77        73.57487
555.21        73.60122
555.65        73.67888
556.08        73.51225
556.52        73.33065
556.96        73.16899
557.39        73.19125
557.83        73.36537
558.27         73.3317
558.70        73.12753
559.14        73.09034
559.57        73.20936
560.01        73.37826
560.45        73.50305
560.88        73.40779
561.32        73.20658
561.75        73.11433
562.19        73.18275
562.63        73.33409
563.06        73.47465
563.50        73.37521
563.93        73.06937
564.37        72.94097
564.80        72.98728
565.24        73.03164
565.68        73.06201
566.11         73.1347
566.55        73.26987
566.98         73.4308
567.42        73.54888
567.85        73.52199
568.29        73.46353
568.72         73.0466
569.16        72.90532
569.60        73.14323
570.03        73.07956
570.47        72.87418
570.90        72.90386
571.34        73.37115
571.77        73.37521
572.21        72.95364
572.64        73.33997
573.08        72.92046
573.51        72.91253
573.95        73.02493
574.38         72.9561
574.82        72.78535
575.25        72.55607
575.69        72.56776
576.12        72.50233
576.56        72.95848
576.99        72.95683
577.42        72.54765
577.86         72.8804
578.29        72.82731
578.73        72.51673
579.16        72.63745
579.60        72.96706
580.03        73.07568
580.47        72.78258
580.90         72.9333
581.33        73.06538
581.77        73.08074
582.20        72.41135
582.64        72.48774
583.07        72.61168
583.51        72.72732
583.94        72.83352
584.37        72.82991
584.81        72.80146
585.24        72.70183
585.68        72.62939
586.11        72.81297
586.54         72.7978
586.98        72.61787
587.41        73.20682
587.85        72.96307
588.28        72.54246
588.71        72.58258
589.15        72.87899
589.58        72.42299
590.01         72.7232
590.45        72.97674
590.88        72.50716
591.31        72.59213
591.75        72.83614
592.18        72.66064
592.61        72.29678
593.05        72.47957
593.48        73.02377
593.91        72.70153
594.35        72.44711
594.78        72.79213
595.21        72.71053
595.65        72.69129
596.08        72.36269
596.51        72.60885
596.94        72.41561
597.38        72.51003
597.81        72.67598
598.24        72.41764
598.68         72.6605
599.11        72.66116
599.54        72.71205
599.97        72.61504
600.41        72.55343
600.84        72.53146
601.27        72.63062
601.70        72.08059
602.14        71.94999
602.57        72.20209
603.00        72.30099
603.43        72.29285
603.87         72.4128
604.30        71.96241
604.73        71.96526
605.16        72.40868
605.60        72.08705
606.03        72.37515
606.46        72.69616
606.89        72.78954
607.32         72.3798
607.76        72.68701
608.19        72.45918
608.62        72.43913
609.05        72.34256
609.48        72.34998
609.92        72.38789
610.35        72.57976
610.78         72.6534
611.21        72.02794
611.64        72.64536
612.07        72.41903
612.50        72.03492
612.94        71.93073
613.37        72.20499
613.80        72.24992
614.23        72.71111
614.66        72.66813
615.09        72.35771
615.52        72.29941
615.96        72.56371
616.39        72.11296
616.82        72.24433
617.25        72.19593
617.68        72.36548
618.11        72.24962
618.54        71.95309
618.97         72.0714
619.40        72.51815
619.84        72.38227
620.27        72.45395
620.70        72.12776
621.13        71.68262
621.56        72.13286
621.99        72.11049
622.42        72.04331
622.85        72.14119
623.28        72.25057
623.71         72.3767
624.14        71.74969
624.57        72.17676
625.00        72.32133
625.43        71.86301
625.86        71.90435
626.29        72.26302
626.72        71.82254
627.15        72.05918
627.58        72.07312
628.01        72.37392
628.44        71.88097
628.87        71.69623
629.30        72.01633
629.73        71.98433
630.16        71.42873
630.59        71.77264
631.02        71.88742
631.45        72.20246
631.88         72.3368
632.31        72.26515
632.74        72.21461
633.17        72.05457
633.60        72.00547
634.03        72.03457
634.46        72.12187
634.89        72.21696
635.32        72.22599
635.75        72.12928
636.18        72.00742
636.61        71.90076
637.04        71.72816
637.47        71.60251
637.89        71.70808
638.32        72.01704
638.75        72.10934
639.18        71.90725
639.61        72.38814
640.04        72.08533
640.47        72.15268
640.90        72.16061
641.33        72.11877
641.76        72.01527
642.18        72.04523
642.61         71.9417
643.04        71.91087
643.47        71.87466
643.90        71.83951
644.33        71.80354
644.76        71.77547
645.18        71.75063
645.61        71.70403
646.04        71.63492
646.47         71.5419
646.90        71.45928
647.33        71.43985
647.75        71.49625
648.18        71.63078
648.61        71.77487
649.04        71.81395
649.47        71.74654
649.89        71.58172
650.32        71.40654
650.75        71.49486
651.18        71.78519
651.61        71.83739
652.03        71.60772
652.46         71.4943
652.89        71.63787
653.32        71.48882
653.74        71.35001
654.17        72.13934
654.60        72.01247
655.03        71.54772
655.46        71.51485
655.88        72.20086
656.31         73.0107
656.74        72.38261
657.16        71.14698
657.59         70.9215
658.02        71.45611
658.45        72.13885
658.87        72.35789
659.30        72.04376
659.73        72.13976
660.15         71.8703
660.58        71.62043
661.01        71.79388
661.44        72.25539
661.86        72.17271
662.29         71.5955
662.72        71.32043
663.14        71.41433
663.57        71.46191
664.00        71.44931
664.42        71.45851
664.85        71.48309
665.27        71.57938
665.70        71.73466
666.13        71.62191
666.55        71.69662
666.98        71.59801
667.41        71.51263
667.83        71.50468
668.26        71.58524
668.69        71.74119
669.11        71.89833
669.54        71.96316
669.96        71.92732
670.39        71.73197
670.82        71.47685
671.24        71.51517
671.67        71.82522
672.09         71.7821
672.52        71.86012
672.94        71.76377
673.37        71.68134
673.80        71.64456
674.22        71.67854
674.65        71.67751
675.07        71.65711
675.50        71.68645
675.92        71.75499
676.35        71.78107
676.77        71.76176
677.20         71.7274
677.62        71.69087
678.05        71.65032
678.47        71.61105
678.90        71.58125
679.32        71.58273
679.75        71.63222
680.17        71.72129
680.60         71.9125
681.02        72.14931
681.45        72.02712
681.87        72.00874
682.30        71.75539
682.72        71.50533
683.15        71.51936
683.57        71.77479
684.00        71.82585
684.42        71.67014
684.85        71.79652
685.27        71.95045
685.70        72.10638
686.12         72.1595
686.54        72.19583
686.97        72.18833
687.39        72.12404
687.82        72.02702
688.24        71.79864
688.66        71.80221
689.09        71.72912
689.51        71.70315
689.94        71.70899
690.36        71.75143
690.78        71.82504
691.21        71.89614
691.63         71.9061
692.06        71.84745
692.48        71.73441
692.90         71.6077
693.33        71.52187
693.75        71.50083
694.17        71.53599
694.60         71.5883
695.02         71.6571
695.44        71.72502
695.87        71.69762
696.29         71.6202
696.71        71.80083
697.14        72.11988
697.56        72.03008
697.98        71.60446
698.41         71.4738
698.83        71.64627
699.25        71.80546
699.68        71.89619
700.10        72.03368
700.52        72.18764
700.94        72.32974
701.37        72.41728
701.79        72.42188
702.21        72.32325
702.64        72.15376
703.06        71.96631
703.48        71.86598
703.90        71.88074
704.33        71.97269
704.75        72.10307
705.17        72.18093
705.59        72.18098
706.01        72.10792
706.44        71.98836
706.86        72.00636
707.28        71.98029
707.70        72.02023
708.12        72.06408
708.55        72.14993
708.97        72.23618
709.39        72.21574
709.81        72.11442
710.23         72.0896
710.66        72.15539
711.08        72.24416
711.50        72.30706
711.92        72.32266
712.34        72.28317
712.76        72.20628
713.19        72.12982
713.61        72.11078
714.03        72.23435
714.45        72.39972
714.87        72.58247
715.29        72.70129
715.71        72.73634
716.13        72.71317
716.56        72.63824
716.98        72.60587
717.40        72.61402
717.82        72.64382
718.24        72.69555
718.66        72.77182
719.08        72.86302
719.50        72.96346
719.92        73.04845
720.34        73.07589
720.76        73.03648
721.19        72.93564
721.61        72.80373
722.03        72.66024
722.45        72.52208
722.87        72.38998
723.29        72.28853
723.71        72.25228
724.13        72.28909
724.55        72.39587
724.97        72.53857
725.39        72.65667
725.81        72.73137
726.23        72.76959
726.65        72.80164
727.07        72.88328
727.49        73.02045
727.91         73.1849
728.33        73.33216
728.75        73.39098
729.17        73.34521
729.59        73.22715
730.01        73.06678
730.43        72.91326
730.85        72.78831
731.27        72.67586
731.69        72.60762
732.10        72.63055
732.52        72.73209
732.94        72.95745
733.36        73.23181
733.78         73.3102
734.20         73.1349
734.62        73.26006
735.04         72.6422
735.46        72.84265
735.88        73.37732
736.30        73.36927
736.72        72.84078
737.13        72.62559
737.55        72.77518
737.97        72.86482
738.39        72.86662
738.81        72.96123
739.23        73.10145
739.65        73.11358
740.06        73.00078
740.48        72.98666
740.90         73.0471
741.32        73.15353
741.74        73.17474
742.16        73.22963
742.57        73.28564
742.99          73.325
743.41        73.35233
743.83        73.35587
744.25        73.33627
744.67        73.29075
745.08        73.26574
745.50        73.29157
745.92        73.39194
746.34        73.55877
746.75        73.72165
747.17        73.77854
747.59        73.70559
748.01        73.47192
748.42        73.19321
748.84        73.13753
749.26        73.27142
749.68        73.39624
750.09        73.42843
750.51        73.18736
750.93        72.81883
751.35        72.93797
751.76        73.46303
752.18         73.6637
752.60        73.49602
753.01        73.40051
753.43        73.39287
753.85        73.33221
754.27        73.23247
754.68        73.15652
755.10         73.0983
755.52        73.12144
755.93        73.22971
756.35        73.40563
756.77         73.5873
757.18        73.79252
757.60        74.02337
758.02        74.00318
758.43        73.76871
758.85        74.29513
759.26        74.35432
759.68        74.26208
760.10        73.92024
760.51        72.85583
760.93        73.42895
761.34        73.61292
761.76        73.57832
762.18        73.66811
762.59        73.78516
763.01        73.96628
763.42        74.19445
763.84        74.22924
764.26        74.10821
764.67        73.99472
765.09        73.95311
765.50        73.90788
765.92        73.87377
766.33        73.78927
766.75        73.67219
767.16        73.71795
767.58        73.87979
768.00        74.28934
768.41          74.785
768.83        74.63995
769.24         74.0402
769.66        73.94705
770.07        74.33438
770.49        74.67804
770.90        74.84074
771.32        74.68235
771.73        74.33109
772.15        74.22765
772.56        74.41528
772.97        74.65627
773.39        74.81685
773.80        74.75458
774.22        74.49561
774.63         74.4641
775.05        74.64558
775.46        74.73784
775.88        74.70035
776.29        74.78576
776.70        74.95363
777.12        75.02488
777.53         75.0056
777.95        74.93724
778.36        74.87345
778.77        74.87542
779.19        74.95865
779.60        75.10088
780.02        75.27126
780.43        75.43658
780.84        75.54704
781.26        75.65437
781.67        75.80399
782.09        75.74888
782.50         75.4249
782.91        75.95182
783.33        75.34969
783.74         75.3013
784.15        75.22864
784.57        75.08157
784.98        74.93652
785.39        75.13734
785.81        75.61712
786.22        75.88773
786.63        75.91225
787.04        76.02305
787.46        76.22433
787.87        76.29227
788.28        76.21287
788.70        76.11025
789.11        75.99003
789.52        75.71876
789.93        75.42168
790.35        75.55819
790.76        76.05891
791.17        76.23061
791.58        76.04232
792.00        76.03793
792.41        76.24316
792.82        76.20599
793.23        76.00938
793.65        76.14008
794.06        76.55048
794.47        76.77946
794.88        76.78003
795.29        76.59486
795.71        76.69403
796.12        76.41987
796.53        76.02959
796.94        76.12457
797.35        76.65077
797.76        76.86555
798.18         76.7294
798.59        76.75626
799.00        76.94532
799.41        76.96371
799.82        76.81209
800.23        76.68263
800.64        76.59874
801.06        76.49064
801.47        76.41637
801.88        76.38257
802.29        76.40166
802.70        76.49655
803.11        76.63921
803.52        76.76759
803.93        76.85038
804.34        76.87344
804.75        76.90115
805.17        76.97271
805.58        77.11232
805.99        77.46594
806.40          77.853
806.81         77.5257
807.22        76.66476
807.63         76.3441
808.04        76.61196
808.45        76.66981
808.86        76.50095
809.27         76.6479
809.68        77.03851
810.09        77.24908
810.50        77.21901
810.91        77.05618
811.32        76.85526
811.73        76.79296
812.14        76.91648
812.55        77.11533
812.96        77.29133
813.37        77.40474
813.78        77.36749
814.19        76.99097
814.60        76.44804
815.01        76.21396
815.42        76.35557
815.83        76.65736
816.24          77.034
816.65        77.39792
817.05        77.67286
817.46        77.83259
817.87        77.90147
818.28        77.86887
818.69        77.74943
819.10        77.54745
819.51        77.30916
819.92        77.12991
820.33        77.05087
820.74         77.0573
821.14        77.13692
821.55        77.29396
821.96        77.49193
822.37        77.73009
822.78        77.95016
823.19        78.04523
823.60        77.98959
824.00        77.83381
824.41        77.59563
824.82        77.41068
825.23        77.31964
825.64        77.29194
826.04        77.35399
826.45        77.49886
826.86        77.71883
827.27        78.01492
827.68        78.29555
828.08        78.43607
828.49        78.33917
828.90        78.07692
829.31        77.76877
829.72        77.62802
830.12        77.73351
830.53         77.9725
830.94        78.26264
831.35        78.42371
831.75        78.42107
832.16        78.26452
832.57        78.02308
832.97        77.77893
833.38        77.57172
833.79        77.39159
834.20        77.26319
834.60        77.21933
835.01        77.26908
835.42        77.39412
835.82        77.57967
836.23         77.7064
836.64        77.76771
837.04        77.80827
837.45        77.78175
837.86        77.72045
838.26        77.65686
838.67         77.5763
839.08        77.54052
839.48        77.63392
839.89        77.86212
840.29        78.18157
840.70        78.53944
841.11         78.8541
841.51        79.10662
841.92        79.27805
842.33        79.33957
842.73        79.24538
843.14        78.95761
843.54        78.53172
843.95        78.08879
844.35        77.84808
844.76        77.84952
845.17        78.04351
845.57        78.32226
845.98         78.4493
846.38        78.38874
846.79        78.19138
847.19        77.94657
847.60        77.74804
848.00        77.66258
848.41        77.61113
848.81        77.64259
849.22        77.76448
849.62         77.9964
850.03        78.30928
850.43        78.62229
850.84        78.71416
851.24        78.59702
851.65        78.25863
852.05        77.90871
852.46         77.8158
852.86        78.04401
853.27        78.49787
853.67        78.92751
854.07        79.18818
854.48        79.19653
854.88        79.05977
855.29        78.73175
855.69        78.35851
856.10        77.91409
856.50        77.46259
856.90        77.05169
857.31        76.79145
857.71        76.74963
858.12        76.85407
858.52        77.06406
858.92        77.16531
859.33        77.08311
859.73        76.90547
860.13        76.66454
860.54        76.45791
860.94        76.36601
861.34        76.31699
861.75          76.284
862.15        76.29213
862.55        76.30608
862.96        76.34862
863.36        76.36929
863.76        76.26167
864.17        76.00964
864.57        75.65907
864.97        75.33299
865.38        75.21035
865.78        75.37689
866.18        75.76017
866.58        76.20311
866.99        76.43195
867.39        76.39693
867.79        76.14528
868.19         75.8269
868.60        75.63162
869.00        75.60056
869.40        75.70238
869.80        75.85648
870.21        75.92867
870.61        75.94357
871.01        75.87803
871.41        75.79058
871.81        75.75352
872.22        75.75681
872.62        75.82134
873.02        75.88752
873.42        75.84414
873.82        75.68429
874.22        75.46535
874.63        75.33535
875.03        75.47329
875.43        75.90572
875.83        76.54381
876.23        77.23691
876.63         77.7362
877.03        77.94329
877.44        77.90019
877.84        77.66139
878.24        77.30104
878.64        76.88148
879.04        76.41255
879.44        75.95358
879.84        75.57116
880.24        75.28542
880.64        75.11064
881.04        75.04002
881.44        75.04469
881.84        75.10655
882.24        75.20493
882.65        75.32219
883.05        75.53857
883.45        75.80006
883.85        76.08337
884.25        76.28909
884.65        76.28175
885.05        76.05337
885.45        75.64681
885.85          75.225
886.25        75.07127
886.65         75.2551
887.05        75.69365
887.45        76.19619
887.85        76.46431
888.25        76.42439
888.65        76.16083
889.04        75.80808
889.44        75.63664
889.84        75.69347
890.24         75.8763
890.64        76.07417
891.04        76.11826
891.44        75.97193
891.84        75.73267
892.24         75.4381
892.64        75.13115
893.04        74.85834
893.44        74.60815
893.83        74.50923
894.23         74.7058
894.63        75.21424
895.03        75.94182
895.43        76.68136
895.83        77.09087
896.23         77.0828
896.63        76.77663
897.02        76.27827
897.42         75.7942
897.82         75.3955
898.22        75.04552
898.62        74.82355
899.01        74.87148
899.41        75.17798
899.81        75.71702
900.21        76.33585
900.61        76.76419
901.00         76.9096
901.40         76.8457
901.80        76.65096
902.20        76.48391
902.59         76.4121
902.99         76.3737
903.39        76.37727
903.79        76.42466
904.18        76.50274
904.58        76.63525
904.98        76.78201
905.38        76.88245
905.77        76.91003
906.17        76.86819
906.57         76.7865
906.96        76.74699
907.36        76.74235
907.76        76.78444
908.15        76.80651
908.55          76.618
908.95         76.2386
909.34        75.71954
909.74        75.28495
910.14        75.21925
910.53        75.57568
910.93        76.23099
911.33        76.97771
911.72        77.45292
912.12        77.53436
912.52        77.36327
912.91        77.04591
913.31        76.77599
913.70        76.60997
914.10        76.46307
914.49        76.42001
914.89        76.56482
915.29        76.91161
915.68          77.435
916.08        77.93187
916.47        78.07281
916.87        77.80877
917.26          77.201
917.66        76.50076
918.05        76.07586
918.45        76.01253
918.84        76.24823
919.24        76.54319
919.64        76.57933
920.03        76.30898
920.42        75.85426
920.82        75.44447
921.21        75.41763
921.61        75.82648
922.00        76.54182
922.40        77.38605
922.79        78.13409
923.19        78.62396
923.58         78.9558
923.98        79.04014
924.37        78.80664
924.77        78.27579
925.16        77.45364
925.55        76.61137
925.95        76.22584
926.34        76.41536
926.74         77.0509
927.13        77.83439
927.52        78.16102
927.92        77.92094
928.31        77.29069
928.70        76.57545
929.10        76.23992
929.49        76.39568
929.89        76.83549
930.28        77.43029
930.67        77.83432
931.07        77.90673
931.46        77.79803
931.85        77.50986
932.24         77.0713
932.64        76.54015
933.03        75.91479
933.42        75.36111
933.82        75.14974
934.21        75.33939
934.60        75.87428
934.99        76.55825
935.39        77.02086
935.78        77.17937
936.17        77.09158
936.56        76.90903
936.96        76.89441
937.35        77.16679
937.74        77.60549
938.13        78.03859
938.53        78.23354
938.92        78.14647
939.31        77.83072
939.70        77.48059
940.09        77.42223
940.49        77.69862
940.88        78.23824
941.27        78.74209
941.66        78.76081
942.05         78.2293
942.44        77.32381
942.84        76.38268
943.23        75.90205
943.62        76.05072
944.01        76.66484
944.40         77.5276
944.79        78.24039
945.18        78.62147
945.57        78.75925
945.97        78.66483
946.36        78.43206
946.75        78.08357
947.14        77.59401
947.53        77.02586
947.92        76.52264
948.31        76.14577
948.70        75.89154
949.09        75.76204
949.48        75.72121
949.87        75.74935
950.26        75.87305
950.65        76.01263
951.04        76.04057
951.43        75.92992
951.82         75.6757
952.21        75.42091
952.60        75.43613
952.99        75.75275
953.38        76.26109
953.77        76.70695
954.16        76.69917
954.55        76.16976
954.94        75.26884
955.33        74.21803
955.72        73.38755
956.11        72.91148
956.50        72.69235
956.89        72.69332
957.28        72.82377
957.66        73.05328
958.05        73.41729
958.44        73.79991
958.83         74.0003
959.22        73.97097
959.61        73.69133
960.00        73.38849
960.39        73.45275
960.78        73.94469
961.16        74.80312
961.55        75.57418
961.94        75.58194
962.33        74.70508
962.72        73.22889
963.11        71.73161
963.49        71.04788
963.88        71.36916
964.27        72.46268
964.66        73.92175
965.04        75.01516
965.43        75.37493
965.82         75.2242
966.21         74.8498
966.60        74.71373
966.98        74.94517
967.37        75.34511
967.76        75.69069
968.15        75.57904
968.53        74.94458
968.92        74.00632
969.31        73.07041
969.69        72.52996
970.08        72.49723
970.47        72.87069
970.86         73.6094
971.24        74.63473
971.63        75.74213
972.02        76.87612
972.40        77.89969
972.79        78.52494
973.17         78.7937
973.56        78.69048
973.95        78.31591
974.33           77.84
974.72        77.34305
975.11        76.81522
975.49        76.29932
975.88        75.86817
976.26        75.57671
976.65         75.4578
977.04        75.47192
977.42        75.50074
977.81         75.4537
978.19        75.29866
978.58        75.27317
978.96         75.7481
979.35        76.70864
979.74        78.03007
980.12        79.24387
980.51        79.38518
980.89        78.39516
981.28         76.4743
981.66        74.29865
982.05        73.14453
982.43        73.39693
982.82        74.61799
983.20        76.29634
983.59        77.45126
983.97        77.87137
984.35        77.79667
984.74        77.28025
985.12        76.43485
985.51        75.40667
985.89        74.19817
986.28        73.12473
986.66        72.72999
987.04         73.0422
987.43        73.90968
987.81        74.99946
988.20        75.58141
988.58        75.49667
988.96        74.95966
989.35        74.14567
989.73        73.44304
990.12        72.94244
990.50        72.45496
990.88        72.17142
991.27        72.49742
991.65         73.4213
992.03        74.79766
992.42        75.88301
992.80        75.98312
993.18         74.8904
993.56        72.68542
993.95        69.97624
994.33        68.37553
994.71        68.72314
995.10        70.31387
995.48        72.22691
995.86        73.40549
996.24        73.73038
996.63        73.47036
997.01        72.97204
997.39        72.82082
997.77        73.24651
998.15        73.99636
998.54        74.66073
998.92        74.74714
999.30        74.17958
999.68        73.17105
1000.06         72.1396
1000.45        71.78265
1000.83        72.35187
1001.21        73.48791
1001.59        74.81423
1001.97        75.79223
1002.35         76.2956
1002.73        76.59819
1003.12        76.53902
1003.50        75.74269
1003.88        74.34639
1004.26        72.44324
1004.64        70.95869
1005.02        71.08232
1005.40        72.84465
1005.78        75.95767
1006.16        79.13407
1006.54        79.98448
1006.92        77.90847
1007.30        73.65857
1007.69        68.91874
1008.07        66.47624
1008.45        67.17961
1008.83        70.07715
1009.21        73.84866
1009.59        76.64281
1009.97         77.9147
1010.35        78.17507
1010.73         77.6627
1011.11        76.94968
1011.49        76.43269
1011.86        75.94592
1012.24        75.40562
1012.62         75.0139
1013.00        74.84221
1013.38        75.06113
1013.76        75.69345
1014.14        76.67667
1014.52        77.95438
1014.90        79.39919
1015.28        81.05526
1015.66        82.93732
1016.04        84.85387
1016.41        86.80196
1016.79        87.91199
1017.17        87.38943
1017.55        85.24352
1017.93        81.76414
1018.31        78.25185
1018.69        76.73186
1019.06        77.75817
1019.44        81.03396
1019.82        85.09027
1020.20         86.7208
1020.58        84.91626
1020.95        80.73278
1021.33        76.33101
1021.71        74.40511
1022.09        75.33098
1022.46        78.20088
1022.84        81.63956
1023.22        83.07005
1023.60        81.54655
1023.97        77.44231
1024.35        72.11829
1024.73        68.58204
