SpectraSmart Spectrum 2.9.0.0
--------- Device Information -----------
Spectrum Name :  反射率_0
Saving Time :  2024/04/28 00:00:19
Spectro-Module Model Name : SE2030-DUVN
Spectro-Module Serial Number : OS361AC55029948
Wavelength Start : 200
Wavelength End : 1025
Wavelength Unit : Wavelength(nm)
Spectrum Unit : Reflectance(%)
-----------Spectrum Setting ------------
Integration Time : 20ms
Average : 10
Boxcar : 0
Background removal :  enabled
linearity correction :  enabled
SC :  disabled
Intensity correction :  disabled
DWT denoise :  enabled
savitzky-golay :  disabled
FFT :  disabled
Running average :  disabled
Kalman :  disabled
High pass :  disabled
---------------BEGIN--------------------
Wavelength(nm)             Reflectance(%)
200.29               0
200.75        27.91918
201.21        45.06772
201.67        59.13152
202.13        66.36094
202.58        69.19337
203.04        70.35114
203.50        70.36687
203.96        69.69381
204.42        68.91238
204.88        68.06243
205.34        67.70502
205.80         68.7048
206.26        71.10133
206.72        74.83063
207.18        79.92937
207.64        82.29098
208.10        79.43433
208.55        75.91989
209.01        71.61908
209.47         64.8773
209.93        52.42788
210.39        21.74312
210.85       -66.44172
211.31        -154.694
211.77       -13.60349
212.23        68.56454
212.69        94.99203
213.14        100.4798
213.60        95.02824
214.06        78.85961
214.52        48.03031
214.98        20.85428
215.44        23.08978
215.90        38.81013
216.36        53.72871
216.81        62.76579
217.27        67.43929
217.73        71.10783
218.19        73.06898
218.65        71.19225
219.11        65.10799
219.57         54.3104
220.02        41.90903
220.48        37.63992
220.94         43.8683
221.40        56.30529
221.86        68.48107
222.32        74.04716
222.77        73.25671
223.23        69.07164
223.69        63.95304
224.15        60.15474
224.61        57.96058
225.06         56.3083
225.52        55.19675
225.98        54.47293
226.44        54.05174
226.90        53.92889
227.36        53.87294
227.81        53.55642
228.27        52.87551
228.73        51.74434
229.19        49.93406
229.65        47.26652
230.10        43.94791
230.56        40.63456
231.02        37.69735
231.48        35.62167
231.93        34.43952
232.39        34.01682
232.85        34.46571
233.31        35.95305
233.77        38.24317
234.22        41.19707
234.68        43.85673
235.14        45.09629
235.60        44.79907
236.05        43.11335
236.51        41.18235
236.97         41.4639
237.43        44.77766
237.88        50.42261
238.34        56.35006
238.80        60.80715
239.26         63.7137
239.71        65.78475
240.17        67.53158
240.63        70.08804
241.08        73.21323
241.54        75.02334
242.00        76.01966
242.46        77.42212
242.91        80.05189
243.37         84.9868
243.83        95.38017
244.28        111.6274
244.74        119.5006
245.20        113.8835
245.66        104.5032
246.11        97.11272
246.57        90.18797
247.03         80.3641
247.48        66.64951
247.94        55.93779
248.40        57.23664
248.85        67.67381
249.31        80.41841
249.77        89.11524
250.22        93.38046
250.68        95.27574
251.14        96.11281
251.59        97.28329
252.05        99.37205
252.51         102.039
252.96        104.7785
253.42        105.9718
253.88         104.359
254.33        101.3629
254.79        98.63656
255.25        95.86453
255.70        92.82348
256.16        90.19675
256.62        88.44955
257.07        88.23035
257.53         89.4618
257.99        90.88685
258.44         91.3326
258.90        90.40897
259.35        87.93769
259.81        85.05407
260.27        82.11339
260.72        79.63193
261.18        78.09475
261.63        76.84202
262.09        75.92991
262.55        74.88885
263.00        73.54325
263.46        72.19956
263.91        70.77908
264.37        69.64543
264.83        68.71644
265.28        67.82969
265.74        66.94262
266.19        65.69542
266.65        64.15691
267.11        62.38634
267.56        60.50345
268.02         58.8229
268.47        57.38483
268.93        56.13209
269.38        55.01786
269.84         54.0028
270.30         53.0394
270.75        52.14427
271.21        51.23161
271.66        50.10094
272.12        48.76018
272.57        47.22622
273.03        45.70865
273.48        44.44985
273.94        43.56277
274.39        42.91372
274.85        42.40588
275.31        41.79286
275.76        41.00132
276.22         40.1558
276.67        39.28733
277.13        38.55786
277.58        37.93717
278.04        37.42392
278.49        36.91465
278.95        36.40131
279.40        35.81236
279.86        35.22487
280.31        34.62608
280.77        34.13078
281.22         33.7049
281.68        33.37642
282.13        33.05391
282.59        32.67485
283.04        32.21304
283.50        31.72855
283.95        31.29451
284.41        31.06997
284.86        31.05892
285.32        31.22722
285.77        31.45866
286.22        31.63425
286.68        31.73818
287.13        31.76497
287.59        31.79435
288.04        31.86576
288.50        32.01887
288.95        32.18936
289.41        32.36311
289.86        32.46478
290.32        32.51743
290.77        32.55789
291.22        32.63353
291.68        32.79733
292.13        33.07293
292.59        33.48448
293.04        34.07267
293.50        34.92335
293.95        36.03197
294.40        37.38456
294.86        38.90723
295.31        40.47155
295.77        42.04935
296.22        43.64191
296.68        45.30016
297.13        47.07727
297.58        48.96842
298.04        50.93218
298.49         52.8938
298.95        54.81043
299.40        56.67841
299.85        58.54673
300.31        60.48812
300.76        62.54285
301.21         64.7089
301.67        66.95898
302.12        69.19118
302.58        71.37023
303.03        73.43645
303.48        75.43369
303.94        77.42537
304.39        79.40298
304.84        81.41353
305.30        83.47604
305.75        85.52408
306.20        87.56632
306.66         89.6189
307.11        91.61716
307.57        93.61465
308.02        95.55579
308.47        97.43079
308.93        99.22948
309.38        100.8485
309.83        102.2588
310.29        103.4885
310.74        104.5459
311.19         105.493
311.65        106.3974
312.10        107.2555
312.55        108.0647
313.00        108.8687
313.46        109.7375
313.91        110.6582
314.36        111.6333
314.82        112.5617
315.27        113.2703
315.72        113.7251
316.18        113.9869
316.63        114.1687
317.08        114.4993
317.53        115.0303
317.99        115.6845
318.44         116.356
318.89        116.8415
319.35        117.0908
319.80        117.1912
320.25        117.2246
320.70        117.3277
321.16        117.5353
321.61        117.8178
322.06        118.1592
322.51        118.5479
322.97        118.9439
323.42        119.3924
323.87        119.8138
324.32        120.0968
324.78        120.2041
325.23        120.2068
325.68        120.1739
326.13        120.2628
326.59        120.4882
327.04        120.8589
327.49        121.2951
327.94        121.6994
328.39          122.04
328.85        122.3181
329.30        122.6124
329.75        122.8705
330.20        123.0984
330.66         123.254
331.11        123.4714
331.56         123.846
332.01           124.4
332.46        125.0947
332.92        125.7607
333.37        126.2768
333.82        126.5278
334.27        126.5744
334.72        126.5228
335.17        126.5552
335.63        126.7136
336.08        127.0213
336.53        127.4202
336.98        127.8588
337.43        128.3102
337.88        128.7879
338.34        129.2749
338.79        129.7988
339.24         130.329
339.69        130.8512
340.14        131.3183
340.59        131.6677
341.05        131.8993
341.50        132.0502
341.95        132.1915
342.40        132.4527
342.85        132.8617
343.30        133.3687
343.75        133.9153
344.20        134.4021
344.66        134.7939
345.11        135.1154
345.56        135.3438
346.01         135.442
346.46        135.4225
346.91        135.2986
347.36        135.1688
347.81        135.1893
348.26        135.3805
348.72        135.6924
349.17        136.0058
349.62        136.1485
350.07        136.0735
350.52         135.844
350.97        135.5197
351.42        135.1975
351.87        134.9205
352.32        134.6581
352.77        134.4285
353.22        134.2621
353.67        134.1432
354.13        134.0639
354.58        133.9216
355.03        133.6169
355.48        133.1156
355.93        132.4379
356.38        131.6283
356.83        130.7614
357.28        129.8723
357.73        128.9668
358.18        128.0372
358.63        127.0617
359.08        126.0528
359.53        125.0388
359.98         124.079
360.43        123.2586
360.88        122.5806
361.33        121.9967
361.78        121.4343
362.23        120.7711
362.68        119.9695
363.13        119.0843
363.58        118.1303
364.03        117.0564
364.48        116.0192
364.93        114.9165
365.38        113.8468
365.83        112.9013
366.28        112.0936
366.73        111.3994
367.18        110.7397
367.63        109.9832
368.08        109.1002
368.53        108.1314
368.98        107.1427
369.43         106.242
369.88        105.4605
370.33        104.7623
370.78        104.1106
371.23        103.4466
371.68        102.7468
372.13        102.0269
372.58        101.2979
373.03        100.5778
373.48        99.87461
373.93        99.18153
374.38        98.48994
374.83        97.78548
375.28        97.06767
375.72        96.33042
376.17        95.62556
376.62        94.95987
377.07        94.33722
377.52        93.74133
377.97        93.17163
378.42        92.62951
378.87         92.1096
379.32        91.61697
379.77        91.11353
380.22        90.53456
380.67        89.87343
381.11        89.15553
381.56        88.44759
382.01        87.87659
382.46        87.47807
382.91        87.21502
383.36        87.01471
383.81        86.75864
384.26        86.40864
384.71        85.99557
385.15        85.53899
385.60        85.13114
386.05        84.77393
386.50        84.44411
386.95        84.12376
387.40         83.7942
387.85        83.45611
388.29        83.07565
388.74        82.75652
389.19        82.44696
389.64        82.13211
390.09        81.79101
390.54        81.43176
390.98        81.05234
391.43        80.71122
391.88        80.41339
392.33        80.09544
392.78        79.72359
393.23        79.32513
393.67        78.77248
394.12        78.22629
394.57        78.38949
395.02        78.09588
395.47        78.25836
395.91        78.41127
396.36        78.36272
396.81         78.0819
397.26        77.67554
397.71        77.24056
398.15        76.89017
398.60        76.73872
399.05        76.53188
399.50        76.31711
399.95         76.4464
400.39         76.7542
400.84        76.58277
401.29        75.95154
401.74         75.2217
402.18        74.62997
402.63        74.55412
403.08        74.89178
403.53        74.91564
403.97        74.57334
404.42        74.36223
404.87        74.29604
405.32        74.22997
405.76        74.15971
406.21        73.98065
406.66        73.74844
407.11        73.87037
407.55        74.20954
408.00        74.02239
408.45        73.36463
408.90        72.74062
409.34        72.35284
409.79        72.44825
410.24        72.86912
410.68        72.99673
411.13        72.76331
411.58        72.56127
412.03        72.45121
412.47        72.36054
412.92        72.28641
413.37        72.25996
413.81         72.2523
414.26        72.27673
414.71        72.30733
415.15        72.36415
415.60        72.39266
416.05        72.36284
416.49        72.27541
416.94        72.12984
417.39         71.9815
417.83        71.91084
418.28        71.93156
418.73        72.01624
419.17          72.119
419.62        72.16521
420.07        72.13583
420.51        72.05127
420.96        71.95934
421.41        71.87285
421.85        71.77477
422.30        71.72378
422.74        71.71073
423.19         71.7597
423.64        71.85121
424.08        72.16415
424.53         72.5811
424.98        72.44258
425.42        72.59852
425.87        72.35745
426.31        72.10124
426.76         72.0491
427.21        72.20607
427.65        72.36692
428.10        72.44556
428.54        72.48944
428.99        72.51913
429.44        72.55053
429.88        72.54268
430.33        72.35822
430.77        72.04298
431.22        72.02872
431.66        72.28935
432.11        72.46678
432.56        72.55521
433.00        72.80618
433.45        73.03632
433.89        72.92559
434.34        72.77102
434.78        72.30015
435.23        72.03816
435.67         72.3512
436.12        73.76432
436.57        74.00081
437.01         73.3724
437.46        72.99715
437.90        73.42449
438.35        73.75826
438.79        73.37522
439.24        73.28463
439.68        73.33009
440.13         73.3633
440.57        73.40933
441.02        73.87644
441.46        74.50214
441.91         74.3511
442.35        73.58904
442.80        73.47949
443.24        73.96651
443.69        74.22646
444.13        74.18005
444.58        74.28053
445.02        74.44832
445.47        74.50344
445.91        74.47552
446.36        74.35891
446.80        74.10641
447.24        74.64234
447.69        74.17034
448.13        74.43684
448.58        74.81339
449.02        74.88053
449.47        74.68391
449.91        74.66161
450.36        74.86739
450.80        75.01127
451.25        75.06903
451.69         75.1039
452.13        75.09419
452.58        74.95424
453.02        74.75573
453.47        74.65366
453.91        74.66443
454.36        74.85088
454.80        75.02213
455.24        74.75567
455.69         74.1795
456.13        73.56079
456.58        73.12744
457.02        73.34692
457.46        73.89494
457.91        73.76395
458.35        73.23431
458.79        72.95695
459.24        73.02865
459.68        72.92914
460.13        72.70662
460.57        72.43903
461.01        72.48367
461.46        72.56721
461.90         72.1808
462.34        72.76071
462.79         72.5564
463.23        72.53418
463.68        72.26927
464.12        71.97073
464.56        71.75966
465.01         71.9001
465.45        72.17652
465.89        72.22391
466.34        72.06513
466.78         71.6641
467.22        71.12045
467.67        71.57004
468.11        71.40544
468.55        71.49348
468.99        71.34368
469.44        71.30392
469.88        71.36339
470.32        71.33282
470.77        71.21811
471.21        71.10899
471.65        71.01173
472.10        70.91113
472.54          70.804
472.98        70.74688
473.42         70.7488
473.87        70.74697
474.31        70.68983
474.75          70.772
475.20        70.89865
475.64         70.6284
476.08        70.06215
476.52        69.87125
476.97        70.12672
477.41        70.01545
477.85        70.21542
478.29        70.32277
478.74          70.494
479.18        69.61221
479.62        70.22121
480.06        70.10558
480.50        70.02285
480.95        70.00449
481.39         69.9911
481.83        70.05946
482.27        69.97096
482.72        69.73864
483.16         69.7448
483.60        69.64203
484.04        69.51199
484.48        69.49805
484.93        69.80817
485.37        69.53471
485.81        69.59188
486.25        70.30811
486.69        70.06184
487.14        69.02205
487.58        69.43668
488.02        69.97613
488.46        69.70926
488.90        69.92491
489.34        69.72324
489.79        68.71957
490.23        69.65318
490.67        69.49489
491.11        69.15835
491.55        69.04765
491.99        69.18219
492.43        69.21735
492.88         69.1083
493.32        69.05034
493.76         69.0338
494.20        69.06682
494.64        69.15918
495.08         69.1852
495.52        69.18839
495.96        69.46786
496.41        69.84238
496.85        69.92301
497.29        69.14813
497.73        68.94196
498.17        69.05932
498.61        69.27904
499.05         69.4345
499.49        69.39661
499.93        69.22903
500.37        69.11219
500.82        69.04182
501.26        69.14439
501.70        69.51487
502.14        68.73499
502.58        69.26869
503.02        69.28349
503.46        69.22885
503.90        69.01234
504.34        69.02629
504.78        68.98458
505.22        68.98409
505.66        68.89684
506.10        68.76262
506.54        68.73931
506.98         68.8319
507.42        68.79669
507.86        69.17603
508.30        68.81648
508.74        69.02834
509.18        68.87321
509.62        68.74186
510.06        68.67001
510.50        68.67635
510.94        68.73631
511.38        68.79594
511.82        68.80093
512.26         68.7378
512.70        68.62946
513.14        68.50913
513.58        68.46933
514.02        68.53612
514.46          68.606
514.90        68.62915
515.34        68.94315
515.78        68.87688
516.22        68.96446
516.66        69.01733
517.10        69.06131
517.54        69.09258
517.98        69.10449
518.42        69.10423
518.86        69.08881
519.30        69.06117
519.74         69.0308
520.18          68.984
520.62        68.89476
521.06        68.76898
521.50        68.62326
521.93        68.50646
522.37        68.48239
522.81        68.56497
523.25        68.71945
523.69         68.8969
524.13        69.02115
524.57        69.06599
525.01        69.05389
525.45        68.98673
525.89        68.86919
526.32        68.71255
526.76        68.53634
527.20        68.38031
527.64        68.31731
528.08        68.35851
528.52        68.47649
528.96        68.63171
529.40        68.75862
529.83        68.82913
530.27        68.86666
530.71        68.85026
531.15        68.78709
531.59        68.69012
532.03        68.45494
532.46        68.31879
532.90        68.24315
533.34        68.29532
533.78        68.44392
534.22        68.61147
534.66        68.67276
535.09        68.59216
535.53        68.42766
535.97        68.24028
536.41        68.14444
536.85        68.16724
537.28        68.27305
537.72        68.40067
538.16        68.44355
538.60        68.38044
539.04        68.26537
539.47        68.13116
539.91        68.06348
540.35        68.06432
540.79        68.11894
541.22        68.18923
541.66        68.22558
542.10        68.20993
542.54        68.15939
542.97        68.09137
543.41        68.06984
543.85        68.09335
544.29         68.1489
544.72        68.19397
545.16        68.19983
545.60         68.1444
546.04        68.03719
546.47         67.9213
546.91        67.87103
547.35        67.89174
547.79        67.97894
548.22        68.06146
548.66        68.02557
549.10        67.88303
549.53        67.83984
549.97        67.92173
550.41        67.96503
550.84        67.95777
551.28        68.07591
551.72        68.29931
552.15        68.18726
552.59        68.16628
553.03         68.1992
553.46        67.94971
553.90        67.92742
554.34        67.98804
554.77         68.1285
555.21        68.26436
555.65        68.28959
556.08        68.12206
556.52        67.95081
556.96        67.81024
557.39        67.84421
557.83        68.01553
558.27        68.00601
558.70        67.81861
559.14         67.7257
559.57        67.71604
560.01         67.6802
560.45        67.61002
560.88        67.50681
561.32        67.46696
561.75        67.56346
562.19        67.76353
562.63        67.94168
563.06        68.01357
563.50        67.77332
563.93        67.33666
564.37        67.28505
564.80         67.5633
565.24        67.66843
565.68        67.58746
566.11        67.64107
566.55        67.83714
566.98        67.98711
567.42        68.06526
567.85        68.01361
568.29        67.91104
568.72        67.77209
569.16        67.63239
569.60        67.62411
570.03        67.77005
570.47        67.39169
570.90        67.34772
571.34        67.88461
571.77        67.44778
572.21        67.66571
572.64        67.87108
573.08        67.40208
573.51        67.43839
573.95        67.53835
574.38        67.99427
574.82        67.57407
575.25        68.01601
575.69        67.52708
576.12        67.06028
576.56        67.45779
576.99        67.73782
577.42          67.519
577.86        67.71395
578.29        67.77091
578.73        67.65895
579.16        67.63001
579.60        67.48876
580.03        67.41066
580.47        67.35312
580.90        67.37833
581.33        67.76277
581.77        67.86053
582.20        67.33972
582.64        67.49317
583.07        67.26307
583.51        67.30048
583.94         67.5019
584.37        67.55414
584.81        67.48909
585.24        67.41543
585.68        67.45447
586.11        67.48994
586.54         67.5442
586.98         67.2374
587.41        68.01395
587.85        66.96297
588.28         67.7654
588.71        67.06694
589.15        68.01615
589.58        67.30323
590.01        67.86153
590.45        68.10638
590.88         67.1749
591.31        67.07464
591.75        67.30004
592.18        67.24363
592.61        67.06246
593.05        67.43301
593.48         67.7366
593.91        67.75742
594.35        67.24693
594.78        67.35746
595.21         66.9438
595.65        67.02551
596.08        67.16572
596.51         67.4789
596.94        67.16585
597.38          67.231
597.81        67.52585
598.24        67.15524
598.68        67.29195
599.11        67.21698
599.54        67.60401
599.97        67.68185
600.41        67.46898
600.84        67.36176
601.27        67.30016
601.70         67.3341
602.14        66.81046
602.57        67.08243
603.00        67.35371
603.43        67.39753
603.87        67.48534
604.30        67.02982
604.73         67.0168
605.16        67.42975
605.60        67.32104
606.03        67.39649
606.46        67.29715
606.89        67.43201
607.32        67.49246
607.76        67.79408
608.19        67.51803
608.62        67.37703
609.05        67.25352
609.48        67.24979
609.92        67.22833
610.35        67.31776
610.78         67.4917
611.21        66.72581
611.64        67.48607
612.07        67.40822
612.50        67.13912
612.94         67.0596
613.37         67.2094
613.80        67.11784
614.23        67.18594
614.66         67.2088
615.09        67.24702
615.52         67.2364
615.96        67.24744
616.39          66.784
616.82         67.0513
617.25         67.0922
617.68        67.07601
618.11        67.06274
618.54        67.05591
618.97        67.18185
619.40        67.27729
619.84        67.46754
620.27        67.24407
620.70        66.98332
621.13        66.58432
621.56        66.78511
621.99        66.75655
622.42        66.76759
622.85         66.9261
623.28        67.30245
623.71        67.06447
624.14        66.59137
624.57        66.73226
625.00        66.89027
625.43        66.72704
625.86         66.8293
626.29        67.00691
626.72        66.82365
627.15        66.86528
627.58        66.73071
628.01        66.71198
628.44        66.37257
628.87        66.73581
629.30        66.94212
629.73        66.69967
630.16        66.83625
630.59        66.77116
631.02        66.82392
631.45        66.83772
631.88        66.87325
632.31        66.94971
632.74        66.73437
633.17        66.88781
633.60        66.83646
634.03        66.77399
634.46        66.71699
634.89         66.6823
635.32        66.62751
635.75        66.56811
636.18        66.63502
636.61        66.78397
637.04        66.78555
637.47        66.66037
637.89          66.662
638.32        66.77095
638.75        66.81422
639.18        66.78704
639.61        66.79124
640.04        66.81271
640.47        66.79805
640.90        66.74647
641.33        66.64443
641.76        66.50783
642.18        66.52811
642.61        66.44999
643.04        66.47131
643.47         66.4903
643.90        66.47002
644.33         66.4006
644.76         66.3008
645.18        66.20406
645.61        66.15066
646.04        66.16167
646.47        66.20085
646.90        66.24239
647.33        66.31663
647.75        66.42583
648.18        66.28973
648.61        66.40703
649.04        66.39365
649.47        66.40061
649.89        66.40468
650.32        66.40376
650.75        66.42124
651.18        66.45389
651.61        66.42097
652.03        66.32578
652.46        66.38079
652.89        66.63884
653.32        66.50897
653.74        66.32536
654.17        66.72702
654.60        66.94802
655.03         66.2281
655.46        66.29554
655.88        66.85513
656.31        67.82111
656.74        67.84879
657.16         66.5286
657.59        65.76558
658.02         65.9454
658.45        66.71648
658.87        67.31902
659.30        66.89915
659.73        66.13998
660.15        66.27599
660.58        66.14004
661.01        66.33576
661.44        66.36012
661.86        66.49297
662.29        66.63207
662.72        66.42589
663.14        66.01925
663.57        66.00771
664.00         66.3655
664.42        66.48043
664.85        66.33737
665.27        66.30485
665.70        66.38402
666.13        66.40302
666.55        66.35999
666.98        66.29527
667.41        66.23424
667.83        66.21549
668.26        66.24384
668.69         66.3171
669.11        66.40144
669.54        66.46194
669.96        66.49615
670.39        66.42812
670.82        66.32711
671.24        66.46626
671.67        66.77284
672.09        66.83749
672.52         66.6736
672.94         66.5368
673.37        66.47452
673.80        66.42648
674.22        66.40218
674.65        66.35004
675.07        66.29007
675.50        66.26263
675.92        66.27923
676.35        66.30372
676.77        66.33636
677.20         66.3926
677.62        66.45095
678.05        66.45503
678.47         66.3989
678.90        66.31041
679.32        66.24657
679.75        66.26991
680.17        66.38284
680.60        66.64079
681.02        66.97958
681.45        66.87717
681.87        66.97398
682.30        66.73075
682.72        66.44665
683.15        66.39236
683.57        66.55683
684.00        66.54376
684.42        66.37009
684.85        66.37133
685.27        66.53493
685.70        66.69456
686.12        66.79121
686.54        66.79884
686.97        66.71037
687.39        66.63061
687.82        66.59846
688.24        66.46256
688.66        66.55765
689.09        66.62969
689.51        66.77259
689.94        66.88587
690.36        66.96052
690.78        67.01205
691.21        67.02142
691.63        66.95501
692.06        66.82035
692.48        66.62949
692.90         66.4338
693.33        66.30405
693.75        66.26536
694.17        66.30723
694.60        66.38348
695.02        66.46252
695.44        66.51877
695.87        66.49741
696.29         66.4388
696.71        66.56277
697.14        66.79013
697.56        66.75763
697.98        66.50237
698.41         66.4407
698.83        66.57032
699.25        66.68591
699.68        66.75356
700.10        66.86989
700.52        67.01202
700.94        67.15446
701.37        67.24701
701.79        67.24589
702.21         67.1293
702.64        66.93641
703.06        66.72322
703.48        66.59627
703.90        66.58674
704.33        66.65757
704.75        66.77863
705.17        66.87406
705.59        66.91705
706.01        66.90779
706.44        66.85825
706.86        66.90097
707.28        66.85718
707.70        66.88884
708.12        66.94095
708.55        66.93296
708.97        66.88717
709.39        66.97798
709.81        67.16888
710.23        67.24327
710.66        67.17783
711.08         67.1048
711.50        67.03556
711.92        66.96419
712.34        66.90571
712.76        66.85997
713.19        66.83507
713.61        66.88944
714.03        67.00482
714.45        67.16566
714.87        67.32582
715.29          67.414
715.71        67.41339
716.13        67.34126
716.56        67.21823
716.98        67.15818
717.40        67.16603
717.82        67.22139
718.24        67.29869
718.66        67.36151
719.08        67.40459
719.50        67.40815
719.92        67.37643
720.34        67.41549
720.76        67.55076
721.19        67.35212
721.61        67.52846
722.03        67.46983
722.45        67.38621
722.87        67.27471
723.29        67.17461
723.71         67.1322
724.13        67.15522
724.55        67.23795
724.97        67.35064
725.39        67.44432
725.81        67.50093
726.23        67.52783
726.65        67.54018
727.07        67.56464
727.49        67.60631
727.91        67.65405
728.33         67.6866
728.75        67.67102
729.17        67.60501
729.59        67.50806
730.01        67.41022
730.43         67.3584
730.85        67.36353
731.27        67.40415
731.69        67.47299
732.10        67.56648
732.52        67.66983
732.94        67.79704
733.36        67.90852
733.78        67.94262
734.20        67.89792
734.62         67.8219
735.04        67.54884
735.46        67.68593
735.88         68.0547
736.30        67.97217
736.72           67.52
737.13        67.44531
737.55        67.72507
737.97        67.95078
738.39         68.0262
738.81        67.82964
739.23         67.4711
739.65        67.54418
740.06        67.94994
740.48        68.07586
740.90        67.86882
741.32        67.77053
741.74        67.73108
742.16        67.74014
742.57         67.7869
742.99        67.88914
743.41        68.01162
743.83           68.08
744.25        68.07749
744.67        68.00909
745.08        67.94144
745.50        67.94827
745.92         68.0629
746.34         68.2635
746.75         68.4579
747.17        68.51162
747.59        68.39734
748.01         68.1032
748.42        67.77582
748.84        67.72607
749.26        67.93257
749.68        68.18351
750.09        68.35943
750.51        68.22629
750.93        67.90225
751.35        67.98586
751.76        68.41341
752.18        68.52267
752.60        68.28429
753.01         68.1114
753.43        68.05294
753.85        67.98376
754.27        67.90809
754.68        68.03233
755.10        68.11235
755.52        68.06824
755.93        68.20908
756.35        68.25908
756.77        68.31077
757.18        68.39181
757.60        68.51745
758.02        68.47922
758.43         68.3626
758.85        68.69762
759.26        69.14404
759.68        69.20959
760.10        68.96323
760.51         67.9086
760.93        68.37902
761.34        68.19379
761.76        68.64091
762.18        68.76361
762.59        68.77612
763.01           68.77
763.42        68.81139
763.84        68.86655
764.26        68.93362
764.67        68.90908
765.09        68.83602
765.50        68.78849
765.92        68.79137
766.33         68.7527
766.75        68.64204
767.16        68.59555
767.58        68.57287
768.00        68.62406
768.41        68.73401
768.83        68.67879
769.24        68.52936
769.66         68.6176
770.07        68.88348
770.49        69.08947
770.90         69.1826
771.32        69.14619
771.73         69.0451
772.15        69.01202
772.56        69.07284
772.97        69.19347
773.39        69.30021
773.80        69.23306
774.22         69.0283
774.63        69.09875
775.05        69.37364
775.46         69.4661
775.88        69.31843
776.29         69.1937
776.70          69.133
777.12        69.10484
777.53        69.14477
777.95        69.24489
778.36         69.3745
778.77        69.46224
779.19        69.48896
779.60        69.47838
780.02        69.45586
780.43        69.48573
780.84        69.55617
781.26        69.65897
781.67        69.82439
782.09        69.88435
782.50        69.72647
782.91        70.22056
783.33        69.58263
783.74        69.59029
784.15        69.71976
784.57        69.79691
784.98        69.82732
785.39         70.0462
785.81         70.4161
786.22        70.47593
786.63        70.26319
787.04        70.17327
787.46        70.24037
787.87        70.23634
788.28        70.14479
788.70        70.07137
789.11        70.00932
789.52        69.84017
789.93         69.6489
790.35        69.80618
790.76        70.23872
791.17        70.32074
791.58        70.06042
792.00        70.02235
792.41        70.25088
792.82        70.30718
793.23        70.24622
793.65        70.50056
794.06         70.9918
794.47        71.24259
794.88        71.23196
795.29        71.04663
795.71        71.11986
796.12        70.90707
796.53        70.59586
796.94         70.4244
797.35        70.43967
797.76         70.5658
798.18        70.73672
798.59        70.84313
799.00        70.85531
799.41        70.79406
799.82        70.71082
800.23        70.70026
800.64        70.78205
801.06        70.90387
801.47        71.03499
801.88        71.04759
802.29        70.92294
802.70        70.71218
803.11        70.49457
803.52        70.39588
803.93        70.45248
804.34        70.61941
804.75        70.86503
805.17        71.10509
805.58        71.32454
805.99        71.57001
806.40        71.78644
806.81        71.75182
807.22         71.5127
807.63        71.37153
808.04        71.36253
808.45        71.29512
808.86        71.17669
809.27        71.15667
809.68         71.2098
810.09        71.20237
810.50        71.11839
810.91        71.00545
811.32        70.88676
811.73        70.81021
812.14        70.79461
812.55        70.77871
812.96        70.77137
813.37        70.89905
813.78        71.10572
814.19        71.13969
814.60        71.02641
815.01        71.01501
815.42        71.12022
815.83        71.20178
816.24        71.23568
816.65        71.25452
817.05        71.25854
817.46        71.20672
817.87        71.15762
818.28        71.14841
818.69        71.18864
819.10        71.27533
819.51        71.38382
819.92        71.46247
820.33        71.49748
820.74        71.50192
821.14        71.50063
821.55        71.57115
821.96        71.70672
822.37        71.88139
822.78        72.05878
823.19        72.17328
823.60        72.20192
824.00        72.18926
824.41        72.10156
824.82        71.97343
825.23        71.82385
825.64         71.6531
826.04        71.53655
826.45        71.55737
826.86         71.7397
827.27        72.06206
827.68        72.42078
828.08        72.67062
828.49        72.69563
828.90        72.55846
829.31        72.36311
829.72        72.29398
830.12        72.42096
830.53        72.65245
830.94        72.87933
831.35        72.88579
831.75        72.64521
832.16        72.18206
832.57        71.68883
832.97        71.45734
833.38        71.55692
833.79        71.89889
834.20        72.30945
834.60        72.52346
835.01         72.4928
835.42        72.29618
835.82        72.06638
836.23        71.95518
836.64        72.04308
837.04        72.28024
837.45        72.55715
837.86        72.80043
838.26        72.98132
838.67        73.11541
839.08        73.20498
839.48        73.23121
839.89        73.20088
840.29         73.1131
840.70        73.01958
841.11        73.01242
841.51        73.12776
841.92        73.30689
842.33        73.49822
842.73        73.60667
843.14        73.55072
843.54        73.37834
843.95        73.14519
844.35        72.96124
844.76        72.85171
845.17        72.80647
845.57        72.76713
845.98        72.59617
846.38        72.30344
846.79        71.91913
847.19         71.5956
847.60        71.52534
848.00        71.76755
848.41        72.21378
848.81        72.73688
849.22        73.05835
849.62        73.12604
850.03         72.9761
850.43        72.71839
850.84         72.4497
851.24        72.26955
851.65         72.1098
852.05        72.01667
852.46        71.96756
852.86        71.95744
853.27        72.00874
853.67        72.07695
854.07        72.26045
854.48        72.50968
854.88        72.83755
855.29        73.04116
855.69        72.94519
856.10        72.42664
856.50        71.65826
856.90        70.83496
857.31        70.30054
857.71        70.20275
858.12        70.38857
858.52         70.8084
858.92        71.24286
859.33        71.58144
859.73        71.91013
860.13        72.12495
860.54        72.07127
860.94        71.76414
861.34        71.19772
861.75        70.52403
862.15        70.06362
862.55        69.87173
862.96        69.91212
863.36        70.04008
863.76        69.98444
864.17        69.67621
864.57        69.21246
864.97        68.78055
865.38        68.65395
865.78         68.9352
866.18        69.51326
866.58        70.14491
866.99        70.41862
867.39        70.24776
867.79        69.72927
868.19        69.13081
868.60        68.81633
869.00        68.86463
869.40        69.20189
869.80        69.64689
870.21        69.86867
870.61        69.83582
871.01        69.60611
871.41        69.34422
871.81        69.27787
872.22         69.4304
872.62        69.74483
873.02        70.11801
873.42        70.35284
873.82        70.38282
874.22        70.29503
874.63        70.16864
875.03        70.08697
875.43        70.08734
875.83        70.11805
876.23        70.20637
876.63        70.40646
877.03        70.69776
877.44        71.04892
877.84        71.33199
878.24        71.30026
878.64        70.92785
879.04        70.33052
879.44        69.68933
879.84        69.25378
880.24         69.0829
880.64        69.10001
881.04        69.26619
881.44        69.50539
881.84        69.76405
882.24        70.05782
882.65         70.2816
883.05        70.36074
883.45        70.24488
883.85        69.97028
884.25        69.65036
884.65        69.46577
885.05        69.46064
885.45        69.58459
885.85        69.78961
886.25        69.98524
886.65        70.12943
887.05        70.24934
887.45        70.31911
887.85            70.3
888.25        70.18591
888.65        69.97001
889.04        69.70692
889.44        69.54065
889.84        69.48854
890.24        69.53158
890.64        69.58164
891.04        69.49434
891.44        69.24751
891.84         68.8922
892.24        68.54856
892.64        68.40138
893.04        68.48827
893.44        68.75129
893.83        69.08751
894.23        69.26183
894.63        69.24736
895.03        69.11134
895.43        68.95562
895.83         68.9474
896.23        69.12372
896.63        69.40652
897.02        69.72523
897.42         70.0192
897.82        70.25051
898.22        70.46159
898.62        70.62004
899.01        70.67834
899.41         70.6182
899.81        70.44742
900.21        70.28136
900.61        70.31912
901.00        70.57986
901.40        71.01914
901.80        71.44682
902.20        71.56815
902.59        71.33824
902.99        70.85149
903.39        70.29569
903.79        69.96978
904.18        69.95674
904.58        70.15783
904.98        70.47736
905.38        70.78277
905.77        71.00879
906.17        71.19992
906.57        71.31715
906.96        71.31249
907.36        71.15775
907.76         70.8745
908.15        70.53497
908.55        70.20017
908.95        69.94733
909.34        69.77048
909.74        69.70821
910.14         69.7456
910.53        69.87154
910.93        70.05122
911.33        70.28341
911.72        70.55636
912.12        70.82038
912.52         71.0827
912.91        71.23175
913.31        71.14822
913.70        70.83035
914.10        70.29783
914.49        69.77637
914.89        69.61746
915.29        69.92527
915.68        70.58713
916.08        71.32005
916.47        71.66342
916.87        71.52732
917.26        71.03937
917.66        70.44221
918.05        70.08529
918.45        70.05877
918.84        70.26781
919.24        70.56311
919.64        70.78705
920.03        70.89346
920.42        70.94315
920.82        70.96189
921.21        70.96709
921.61        70.96075
922.00         70.9257
922.40        70.91131
922.79        71.08965
923.19        71.43803
923.58        71.93952
923.98        72.38046
924.37        72.49461
924.77         72.2229
925.16        71.63045
925.55        70.94771
925.95        70.57639
926.34        70.62645
926.74        70.96993
927.13        71.41489
927.52        71.54931
927.92        71.30238
928.31        70.80482
928.70        70.26688
929.10         69.9893
929.49        70.05445
929.89        70.34087
930.28        70.77149
930.67        71.10126
931.07        71.22845
931.46        71.23293
931.85        71.16714
932.24        71.15122
932.64        71.20679
933.03        71.27995
933.42        71.30673
933.82        71.18677
934.21        70.92179
934.60        70.59566
934.99         70.2794
935.39        70.06018
935.78        70.00468
936.17        70.05022
936.56        70.25971
936.96         70.7135
937.35        71.40993
937.74        72.25953
938.13        72.97776
938.53         73.1663
938.92        72.77483
939.31        71.89598
939.70        70.86954
940.09        70.31434
940.49        70.38144
940.88        70.93167
941.27        71.60958
941.66        71.85793
942.05        71.55447
942.44        70.90174
942.84          70.173
943.23        69.74888
943.62        69.77305
944.01        70.08922
944.40        70.56846
944.79         70.9905
945.18        71.24461
945.57        71.40144
945.97        71.39845
946.36        71.20995
946.75        70.82545
947.14        70.24518
947.53        69.62669
947.92        69.26534
948.31        69.24343
948.70        69.50047
949.09        69.84969
949.48        69.97849
949.87        69.81378
950.26        69.44701
950.65        69.03937
951.04        68.85219
951.43        68.94351
951.82        69.21326
952.21        69.52048
952.60        69.62915
952.99        69.47702
953.38        69.17086
953.77        68.79943
954.16        68.48913
954.55        68.28252
954.94        68.11539
955.33        68.03132
955.72        68.10909
956.11        68.34171
956.50        68.72718
956.89        69.07939
957.28        69.05966
957.66          68.632
958.05        67.88878
958.44        67.12827
958.83        66.83049
959.22        67.09609
959.61        67.74051
960.00        68.54014
960.39        69.14306
960.78        69.41619
961.16        69.48584
961.55          69.283
961.94        68.81118
962.33        68.14017
962.72        67.32165
963.11        66.54636
963.49        66.09192
963.88        66.02142
964.27        66.28194
964.66        66.78849
965.04        67.36824
965.43        67.84976
965.82         68.2992
966.21        68.67912
966.60        68.97548
966.98        69.18845
967.37        69.22106
967.76        69.15547
968.15        69.14041
968.53        69.23319
968.92        69.45823
969.31        69.60464
969.69        69.31254
970.08         68.5516
970.47        67.44543
970.86        66.52747
971.24        66.72159
971.63        68.08154
972.02        70.20941
972.40         72.3971
972.79        73.54559
973.17        73.54656
973.56        72.66245
973.95        71.34517
974.33        70.37786
974.72        70.04787
975.11        70.10023
975.49        70.35571
975.88        70.55206
976.26        70.57988
976.65        70.57584
977.04        70.46774
977.42        70.06848
977.81        69.33411
978.19         68.2709
978.58          67.297
978.96        67.10094
979.35         67.8166
979.74        69.27798
980.12        70.99001
980.51        71.91933
980.89        71.91631
981.28        71.14511
981.66        70.09499
982.05        69.71555
982.43        70.25716
982.82        71.34783
983.20        72.55621
983.59        73.06599
983.97        72.76665
984.35         71.8838
984.74        70.69451
985.12        69.66606
985.51        69.02433
985.89        68.70421
986.28        68.66573
986.66         68.9281
987.04        69.41228
987.43        70.07378
987.81        70.88093
988.20        71.65812
988.58        72.33524
988.96        72.88025
989.35        73.08299
989.73        72.75394
990.12        71.82582
990.50        70.27954
990.88        68.47353
991.27         67.3322
991.65        67.22666
992.03        67.96463
992.42        68.83522
992.80        69.14815
993.18        68.62356
993.56         67.4203
993.95        65.89606
994.33        64.85946
994.71         64.8427
995.10        65.40075
995.48        66.17212
995.86        66.64268
996.24        66.74847
996.63        66.67274
997.01        66.57182
997.39        66.64336
997.77        66.97519
998.15        67.41272
998.54        67.91135
998.92        68.52274
999.30        69.21766
999.68        70.01715
1000.06         70.7346
1000.45        70.94511
1000.83        70.61079
1001.21         69.8035
1001.59        68.89091
1001.97        68.38058
1002.35         68.4335
1002.73        69.07453
1003.12        69.95683
1003.50        70.16973
1003.88        69.54916
1004.26        68.33089
1004.64        67.36945
1005.02        67.79343
1005.40        69.66413
1005.78        72.61134
1006.16        75.52622
1006.54        76.40161
1006.92        74.70188
1007.30        71.08868
1007.69        66.89112
1008.07        64.27118
1008.45        63.98392
1008.83          65.355
1009.21         67.4966
1009.59        69.11581
1009.97        69.80518
1010.35        69.94789
1010.73        69.67635
1011.11        69.28333
1011.49        68.97511
1011.86        68.61245
1012.24        68.14801
1012.62        67.85153
1013.00        67.79622
1013.38        68.11747
1013.76        68.65417
1014.14        69.05995
1014.52         69.2691
1014.90        69.26663
1015.28        69.53363
1015.66        70.95429
1016.04        73.54563
1016.41        76.91108
1016.79        79.68388
1017.17        80.33155
1017.55        78.64698
1017.93        75.23276
1018.31        71.22897
1018.69        68.37551
1019.06        67.27976
1019.44        67.64163
1019.82        68.99534
1020.20        70.26646
1020.58          70.883
1020.95        70.96727
1021.33        70.97228
1021.71        71.47293
1022.09        72.51311
1022.46        73.86806
1022.84        74.76557
1023.22        73.70855
1023.60        70.26638
1023.97        64.44134
1024.35        57.95678
1024.73        54.56377
