SpectraSmart Spectrum 2.9.0.0
--------- Device Information -----------
Spectrum Name :  反射率_0
Saving Time :  2024/04/28 00:07:15
Spectro-Module Model Name : SE2030-DUVN
Spectro-Module Serial Number : OS361AC55029948
Wavelength Start : 200
Wavelength End : 1025
Wavelength Unit : Wavelength(nm)
Spectrum Unit : Reflectance(%)
-----------Spectrum Setting ------------
Integration Time : 20ms
Average : 10
Boxcar : 0
Background removal :  enabled
linearity correction :  enabled
SC :  disabled
Intensity correction :  disabled
DWT denoise :  enabled
savitzky-golay :  disabled
FFT :  disabled
Running average :  disabled
Kalman :  disabled
High pass :  disabled
---------------BEGIN--------------------
Wavelength(nm)             Reflectance(%)
200.29               0
200.75        130.3603
201.21        140.4423
201.67         140.142
202.13        133.3734
202.58         122.835
203.04        109.7241
203.50        98.22045
203.96        95.64661
204.42        101.2895
204.88         110.433
205.34        119.0326
205.80         123.794
206.26        124.5338
206.72        122.2171
207.18        114.9088
207.64        103.0267
208.10        93.76797
208.55        89.79404
209.01        88.44844
209.47        87.29788
209.93        85.27354
210.39        81.44664
210.85        74.48177
211.31        85.00694
211.77        109.3905
212.23        113.6645
212.69        113.3477
213.14        113.5921
213.60        113.8528
214.06        113.8731
214.52        112.3292
214.98        106.6835
215.44        99.52497
215.90        94.71822
216.36        92.04179
216.81         89.9483
217.27        87.81654
217.73         85.7066
218.19        83.57146
218.65        81.35042
219.11        79.09528
219.57        76.65134
220.02        74.03245
220.48        72.66911
220.94        72.74352
221.40        73.82926
221.86        75.45667
222.32         77.1629
222.77        78.65076
223.23        79.81705
223.69        80.42709
224.15        80.17924
224.61        79.11657
225.06        77.27074
225.52        75.13438
225.98        73.43246
226.44        72.57635
226.90        72.23623
227.36        72.16843
227.81        72.08615
228.27        71.94508
228.73        71.67654
229.19        71.03945
229.65        69.65332
230.10        67.49971
230.56        65.14265
231.02        62.87062
231.48        61.12487
231.93        59.96584
232.39        59.38875
232.85        59.48117
233.31        60.42717
233.77        62.06229
234.22         64.2332
234.68        66.28986
235.14        67.45536
235.60        67.62062
236.05        66.89313
236.51         65.8793
236.97        65.95518
237.43        67.59805
237.88        70.54016
238.34        73.49628
238.80        75.45734
239.26        76.28467
239.71        76.21764
240.17        75.56672
240.63        76.66415
241.08        80.45383
241.54         84.4005
242.00        87.14148
242.46        88.82713
242.91         90.2136
243.37        91.58098
243.83        93.87476
244.28        98.18781
244.74        101.7107
245.20        102.5356
245.66        101.1335
246.11        98.43916
246.57        94.15628
247.03        86.42695
247.48        75.73684
247.94        71.04858
248.40        79.80533
248.85        96.40129
249.31         110.474
249.77        113.5811
250.22        108.4891
250.68        100.4137
251.14        93.54765
251.59        91.41405
252.05        94.22434
252.51        101.0029
252.96        110.6258
253.42        116.7017
253.88        114.3039
254.33         107.265
254.79        100.0251
255.25        93.66261
255.70        87.98696
256.16        83.27242
256.62        80.15721
257.07        79.59241
257.53        81.20515
257.99        83.38039
258.44        84.71011
258.90        84.57117
259.35        82.75571
259.81        80.38544
260.27         77.7718
260.72        75.35836
261.18        73.67912
261.63        72.21663
262.09        71.09235
262.55        69.93492
263.00        68.60939
263.46        67.38596
263.91        66.25639
264.37        65.64069
264.83        65.41991
265.28        65.36815
265.74        65.30813
266.19        64.73616
266.65        63.70499
267.11        62.31207
267.56        60.75805
268.02        59.48556
268.47        58.54514
268.93        57.82207
269.38        57.17468
269.84        56.42159
270.30        55.49612
270.75        54.48808
271.21        53.40099
271.66        52.16245
272.12        50.83023
272.57        49.38933
273.03        48.05069
273.48        47.04722
273.94        46.46913
274.39        46.17069
274.85        45.99368
275.31        45.60033
275.76        44.89605
276.22        44.02068
276.67        43.05848
277.13        42.26963
277.58        41.62984
278.04        41.11409
278.49        40.55692
278.95        39.86391
279.40        38.97116
279.86        38.03543
280.31        37.11251
280.77        36.41864
281.22        35.93889
281.68        35.64942
282.13        35.45742
282.59        35.31185
283.04        35.14762
283.50        35.00171
283.95        34.82077
284.41        34.58348
284.86        34.26877
285.32        33.90987
285.77        33.53695
286.22        33.24996
286.68        33.08019
287.13        32.96716
287.59          32.891
288.04        32.72998
288.50        32.50425
288.95        32.22482
289.41        31.97686
289.86         31.8268
290.32        31.81903
290.77        31.91802
291.22        32.09715
291.68        32.30705
292.13        32.52817
292.59        32.80418
293.04        33.16684
293.50        33.69181
293.95        34.38325
294.40        35.22993
294.86        36.19544
295.31        37.21475
295.77        38.27863
296.22        39.38272
296.68        40.56469
297.13         41.8516
297.58        43.23725
298.04        44.69672
298.49        46.16217
298.95        47.58314
299.40        48.95589
299.85        50.32275
300.31        51.76604
300.76        53.35343
301.21          55.091
301.67         56.9424
302.12        58.80141
302.58        60.60295
303.03        62.29263
303.48        63.92464
303.94        65.56185
304.39        67.21128
304.84         68.9174
305.30        70.68327
305.75        72.47017
306.20        74.31091
306.66         76.2175
307.11        78.12786
307.57        80.03609
308.02        81.81015
308.47        83.43438
308.93        84.92815
309.38        86.28126
309.83        87.58698
310.29        88.89025
310.74        90.15424
311.19        91.35685
311.65        92.43356
312.10        93.34306
312.55        94.12015
313.00        94.84858
313.46        95.66195
313.91        96.57427
314.36        97.56513
314.82        98.52758
315.27        99.28341
315.72        99.79246
316.18        100.1175
316.63        100.3733
317.08        100.7817
317.53        101.3938
317.99        102.1413
318.44        102.8991
318.89        103.4376
319.35        103.7066
319.80        103.7963
320.25        103.8441
320.70        104.0767
321.16        104.5378
321.61        105.1616
322.06        105.8397
322.51        106.4099
322.97        106.7987
323.42        107.0951
323.87        107.3043
324.32        107.4566
324.78         107.564
325.23        107.6538
325.68        107.7619
326.13        107.9831
326.59        108.3101
327.04        108.7723
327.49        109.2875
327.94         109.747
328.39        110.1163
328.85        110.3866
329.30        110.6557
329.75        110.9318
330.20        111.2362
330.66        111.5317
331.11        111.8824
331.56         112.276
332.01        112.7187
332.46        113.2003
332.92        113.6854
333.37        114.2641
333.82         114.872
334.27        115.4968
334.72        116.0613
335.17        116.4467
335.63        116.6147
336.08        116.6659
336.53        116.6976
336.98        116.9197
337.43        117.3938
337.88        118.0677
338.34        118.8326
338.79         119.558
339.24        120.1665
339.69        120.6929
340.14        121.1664
340.59        121.6367
341.05        122.1269
341.50        122.6312
341.95          123.12
342.40        123.5718
342.85        123.9899
343.30        124.3779
343.75        124.8067
344.20        125.3832
344.66        126.1132
345.11        126.9463
345.56        127.7286
346.01        128.2144
346.46        128.3601
346.91        128.2498
347.36        128.0639
347.81        128.0834
348.26        128.3746
348.72        128.8516
349.17        129.3803
349.62        129.7659
350.07        129.9459
350.52        129.9901
350.97        129.9487
351.42        129.8989
351.87        129.8696
352.32        129.8223
352.77        129.7627
353.22        129.7099
353.67        129.6566
354.13        129.6149
354.58        129.5075
355.03        129.2715
355.48        128.8918
355.93        128.3862
356.38        127.8114
356.83        127.2565
357.28        126.7467
357.73        126.2697
358.18        125.7757
358.63        125.1814
359.08        124.4775
359.53        123.6989
359.98        122.9234
360.43        122.2704
360.88        121.7597
361.33        121.3457
361.78        120.9437
362.23         120.413
362.68        119.7149
363.13        118.9054
363.58        118.0497
364.03        117.1708
364.48        116.4316
364.93        115.7091
365.38        114.9974
365.83         114.224
366.28        113.3781
366.73        112.4858
367.18        111.6146
367.63        110.8697
368.08        110.2719
368.53        109.7893
368.98        109.3346
369.43        108.7667
369.88        108.0536
370.33        107.2378
370.78        106.4078
371.23        105.7102
371.68        105.1777
372.13        104.7532
372.58        104.3609
373.03        103.8826
373.48        103.2808
373.93        102.5972
374.38        101.8612
374.83        101.1127
375.28         100.376
375.72        99.62843
376.17        98.92428
376.62        98.27628
377.07         97.6906
377.52        97.15861
377.97        96.67839
378.42        96.24199
378.87        95.83897
379.32        95.47099
379.77        95.09648
380.22        94.65007
380.67        94.12177
381.11        93.53085
381.56        92.93766
382.01        92.46074
382.46        92.13119
382.91        91.91389
383.36        91.73528
383.81        91.47627
384.26        91.10414
384.71        90.65539
385.15        90.16193
385.60        89.73708
386.05        89.38517
386.50        89.07494
386.95        88.78371
387.40        88.48108
387.85        88.16711
388.29          87.818
388.74        87.52636
389.19        87.21844
389.64        86.87584
390.09        86.46413
390.54        86.05025
390.98        85.72912
391.43        85.56983
391.88         85.5397
392.33        85.43929
392.78        85.09238
393.23        84.52727
393.67        83.53834
394.12        82.47807
394.57        82.66255
395.02        82.75905
395.47        82.91721
395.91        82.69292
396.36         82.6384
396.81        82.73253
397.26        82.63886
397.71         82.3713
398.15        82.12638
398.60        82.01465
399.05        81.72566
399.50        81.37163
399.95        81.49896
400.39        81.92779
400.84        81.73956
401.29        80.97752
401.74        80.31131
402.18        79.94162
402.63         79.9151
403.08        80.12084
403.53        80.07619
403.97        79.72775
404.42        79.41927
404.87        79.22934
405.32        79.12875
405.76        79.11762
406.21        79.21629
406.66        79.32449
407.11        79.27096
407.55        79.05036
408.00        78.73101
408.45        78.40187
408.90        78.04306
409.34        77.72691
409.79        77.67139
410.24         77.7945
410.68        77.81289
411.13        77.68859
411.58        77.56466
412.03        77.48153
412.47        77.46958
412.92        77.51623
413.37        77.61721
413.81        77.72064
414.26        77.82213
414.71        77.88914
415.15        77.93845
415.60        77.95281
416.05        77.97113
416.49          78.005
416.94         78.0376
417.39        78.04068
417.83         77.9645
418.28        77.80284
418.73         77.5665
419.17        77.33509
419.62        77.23822
420.07         77.3037
420.51        77.48491
420.96        77.68895
421.41        77.73796
421.85        77.57307
422.30        77.23987
422.74        76.86044
423.19        76.86407
423.64        77.18285
424.08         77.4967
424.53        77.65852
424.98        77.70051
425.42        77.57069
425.87        77.92873
426.31        77.19144
426.76        77.48727
427.21        78.16365
427.65        78.25349
428.10        77.79229
428.54        77.64355
428.99        77.86273
429.44        78.17347
429.88         78.3959
430.33        77.94427
430.77        77.05657
431.22        77.07379
431.66        77.84951
432.11        78.04517
432.56        77.75594
433.00        77.87341
433.45        78.11585
433.89        78.46328
434.34        79.05746
434.78        76.62083
435.23        77.24718
435.67        77.45625
436.12        79.08289
436.57        79.20491
437.01         78.1813
437.46        77.80173
437.90        78.63171
438.35        79.11218
438.79          79.078
439.24        79.07839
439.68        79.09903
440.13         78.9681
440.57        78.77228
441.02        79.07461
441.46        79.61631
441.91        79.31915
442.35        78.38536
442.80        78.24458
443.24        78.81821
443.69        79.15926
444.13        79.16225
444.58        79.32024
445.02        79.59152
445.47        79.76425
445.91        79.83078
446.36        79.89118
446.80        79.92856
447.24        79.94717
447.69        79.98815
448.13        79.92639
448.58        80.40018
449.02        80.34039
449.47        80.01705
449.91        79.84671
450.36        79.87923
450.80        79.82832
451.25        79.71188
451.69        79.67937
452.13        79.72066
452.58        79.72889
453.02        79.69779
453.47        79.65889
453.91        79.59531
454.36        79.60481
454.80        79.59632
455.24        79.25048
455.69        78.71492
456.13        78.37673
456.58        78.34301
457.02        78.45808
457.46        78.63095
457.91        78.61848
458.35        78.06792
458.79        77.86008
459.24        77.89173
459.68        77.83688
460.13         77.7253
460.57        77.47868
461.01        77.47649
461.46         77.4031
461.90         77.2478
462.34        77.27811
462.79        77.15349
463.23        76.97102
463.68        76.69625
464.12        76.68168
464.56        76.96296
465.01        76.87132
465.45        77.24232
465.89          77.105
466.34         76.8924
466.78        76.37139
467.22        75.59198
467.67        76.57441
468.11        76.02559
468.55        76.02094
468.99         75.6459
469.44        75.52748
469.88        75.66209
470.32        75.73587
470.77        75.71963
471.21        75.66401
471.65        75.55986
472.10         75.4072
472.54        75.22022
472.98          75.097
473.42        75.06349
473.87         75.0207
474.31        74.94608
474.75        75.12836
475.20        75.41602
475.64        75.28977
476.08         74.8509
476.52        74.60565
476.97        74.54033
477.41        74.89127
477.85        74.76824
478.29        74.49621
478.74        74.54944
479.18        73.98624
479.62        74.22475
480.06        74.16588
480.50        74.16927
480.95        74.27391
481.39        74.37553
481.83        74.54813
482.27        74.31815
482.72         74.2938
483.16        74.22629
483.60        74.04655
484.04        74.11977
484.48        74.03751
484.93        74.19288
485.37        74.38134
485.81         74.7396
486.25        75.54247
486.69        75.85176
487.14        74.38798
487.58        73.83842
488.02        74.51933
488.46        74.40186
488.90        74.50341
489.34        74.43837
489.79        73.57123
490.23        74.11256
490.67        73.94769
491.11        73.73909
491.55        73.64014
491.99        73.66203
492.43        73.66042
492.88        73.61049
493.32        73.63303
493.76        73.67592
494.20        73.71519
494.64        73.76086
495.08        73.63801
495.52        73.45362
495.96        73.77028
496.41        74.39882
496.85        74.38433
497.29        73.78946
497.73        73.49882
498.17        73.50846
498.61        73.82089
499.05        74.22163
499.49        74.23313
499.93        73.90754
500.37        73.65646
500.82         73.5475
501.26        73.53745
501.70        74.17659
502.14        73.28056
502.58        73.65186
503.02        73.54969
503.46        73.45464
503.90        73.37054
504.34        73.23354
504.78        73.20387
505.22        73.23845
505.66        73.20744
506.10        73.14516
506.54        73.18021
506.98        73.30685
507.42        73.50263
507.86        73.75519
508.30         73.6468
508.74        73.75278
509.18        73.61783
509.62        73.46665
510.06        73.36894
510.50        73.35316
510.94        73.39194
511.38        73.44728
511.82        73.47146
512.26        73.44692
512.70        73.39402
513.14        73.33836
513.58        73.29121
514.02        73.25609
514.46        73.27353
514.90         73.3389
515.34        73.18694
515.78        73.23622
516.22        73.15759
516.66        73.08695
517.10        73.05671
517.54        73.08076
517.98        73.08809
518.42        73.05277
518.86        73.23361
519.30        73.16489
519.74        73.21581
520.18         73.2435
520.62        73.24771
521.06        73.22758
521.50        73.19419
521.93        73.16829
522.37        73.15791
522.81        73.17267
523.25        73.20082
523.69        73.23937
524.13        73.28307
524.57        73.32542
525.01        73.36923
525.45        73.38904
525.89        73.34509
526.32        73.22945
526.76        73.06917
527.20        72.90984
527.64        72.83324
528.08        72.85557
528.52        72.95095
528.96        73.06699
529.40        73.11986
529.83        73.08105
530.27        72.98917
530.71        72.87273
531.15        72.78727
531.59        72.74982
532.03        72.74385
532.46        72.74333
532.90        72.73164
533.34        72.69688
533.78         72.6503
534.22        72.60959
534.66         72.5985
535.09        72.61154
535.53        72.66021
535.97        72.71016
536.41        72.72577
536.85         72.6999
537.28         72.6451
537.72        72.58939
538.16        72.56879
538.60        72.59211
539.04        72.65767
539.47         72.7168
539.91        72.73674
540.35        72.69184
540.79        72.61669
541.22        72.51936
541.66        72.42236
542.10        72.33464
542.54        72.24738
542.97        72.17951
543.41        72.20091
543.85        72.30077
544.29        72.46812
544.72        72.62018
545.16        72.66278
545.60        72.56241
546.04        72.34589
546.47        72.10783
546.91        72.00578
547.35        72.06129
547.79        72.25454
548.22        72.46639
548.66        72.47385
549.10        72.28936
549.53        72.23327
549.97        72.32851
550.41         72.3298
550.84        72.19984
551.28        72.22806
551.72        72.43967
552.15        72.31847
552.59        71.83603
553.03        72.73769
553.46        72.00098
553.90        72.12714
554.34        72.21059
554.77        72.31566
555.21        72.37143
555.65        72.36794
556.08        72.24075
556.52        72.07566
556.96        71.91128
557.39        71.96314
557.83        72.18871
558.27        72.21327
558.70        72.04374
559.14        71.99517
559.57         72.0716
560.01        72.13161
560.45        72.12739
560.88        72.12744
561.32        72.16555
561.75        71.99026
562.19        71.73389
562.63         71.9053
563.06        72.37097
563.50        72.36636
563.93        71.93452
564.37        71.80031
564.80        71.98624
565.24        72.12217
565.68        72.16988
566.11        72.16159
566.55        72.13726
566.98         72.1992
567.42        72.33266
567.85        72.30169
568.29        72.19086
568.72        72.11153
569.16        72.12684
569.60        72.28589
570.03        72.59159
570.47         72.4619
570.90        72.76405
571.34        73.05545
571.77        72.95718
572.21        72.84975
572.64        72.65942
573.08        72.56568
573.51        72.09542
573.95        72.53459
574.38        72.76847
574.82        72.90762
575.25        72.47672
575.69        72.37354
576.12        72.12417
576.56        72.65932
576.99        72.98513
577.42        72.70718
577.86        72.50382
578.29         73.0895
578.73        72.86052
579.16        72.79049
579.60        72.69918
580.03        72.58894
580.47        72.45065
580.90        72.82364
581.33        73.17088
581.77        72.66594
582.20        73.15199
582.64        73.08422
583.07        72.90369
583.51        72.40687
583.94        72.24611
584.37        72.53236
584.81        72.76168
585.24        72.87805
585.68        72.71017
586.11        72.85429
586.54          72.909
586.98        72.56567
587.41        72.45862
587.85        72.53999
588.28        72.64797
588.71        72.07719
589.15        72.57684
589.58        72.31154
590.01        72.60461
590.45        72.44473
590.88        71.86482
591.31        71.74052
591.75        71.91827
592.18        72.05123
592.61        71.88141
593.05         72.0948
593.48        72.63705
593.91        72.42584
594.35        72.49409
594.78        72.38921
595.21        72.16759
595.65        72.03583
596.08        71.87698
596.51        72.40862
596.94        71.95179
597.38        72.03228
597.81        72.24237
598.24        71.91733
598.68        71.97578
599.11         72.0099
599.54        72.48539
599.97        72.27776
600.41        72.38368
600.84        72.29138
601.27        72.25112
601.70        72.18858
602.14        71.67953
602.57        71.97697
603.00        72.14031
603.43        72.18897
603.87        72.22773
604.30        72.30851
604.73         71.6981
605.16        72.13369
605.60        72.02605
606.03        72.23954
606.46        72.25636
606.89        72.41572
607.32        72.17101
607.76        72.39236
608.19        72.17138
608.62        72.09745
609.05        71.93414
609.48        71.95301
609.92        72.03224
610.35        72.31656
610.78        72.29542
611.21        71.77108
611.64        72.18382
612.07        72.23515
612.50        71.98386
612.94          71.885
613.37        71.83303
613.80        72.15646
614.23        72.06326
614.66        72.10272
615.09        72.03686
615.52        72.06897
615.96        72.20724
616.39        71.82941
616.82        71.91994
617.25        71.76027
617.68        71.75076
618.11        71.73184
618.54         71.7668
618.97         71.8054
619.40        71.77193
619.84        72.05244
620.27        71.84243
620.70          71.814
621.13        71.73828
621.56        71.69395
621.99        71.70914
622.42        71.62604
622.85        71.59788
623.28        71.72147
623.71        71.96139
624.14         71.6563
624.57        71.48466
625.00        71.73917
625.43        71.43324
625.86        71.53461
626.29        71.64746
626.72          71.749
627.15        71.73242
627.58         71.7607
628.01        71.83925
628.44        71.79939
628.87        71.33244
629.30        71.67254
629.73        71.54148
630.16        70.96138
630.59        71.25507
631.02        71.31619
631.45        71.55438
631.88        71.68065
632.31        71.69312
632.74        71.46329
633.17        71.45679
633.60        71.39678
634.03        71.42604
634.46        71.51141
634.89        71.60944
635.32        71.63048
635.75        71.55075
636.18         71.4432
636.61        71.33613
637.04        71.19016
637.47        71.06139
637.89        71.12917
638.32        71.33076
638.75        71.43839
639.18        71.42413
639.61        71.41423
640.04        71.40628
640.47        71.36059
640.90        71.28532
641.33        71.15852
641.76        71.00311
642.18        71.03618
642.61        70.98634
643.04         71.0626
643.47        71.14651
643.90        71.17967
644.33        71.14552
644.76        71.06805
645.18        70.98393
645.61        70.93708
646.04        70.94051
646.47        70.96875
646.90        71.01185
647.33        71.04814
647.75        71.07367
648.18        71.12419
648.61        71.16388
649.04        71.11874
649.47        70.99795
649.89        70.81847
650.32        70.67451
650.75         70.7582
651.18        71.03202
651.61        71.29803
652.03        71.43249
652.46        71.31274
652.89        71.11025
653.32        70.88308
653.74        71.08546
654.17        71.49073
654.60        71.90868
655.03        71.34278
655.46        70.80222
655.88        71.64949
656.31         73.8075
656.74        75.98743
657.16        73.76657
657.59        72.04448
658.02        71.21189
658.45        72.07604
658.87        72.23965
659.30        71.99911
659.73        71.39635
660.15        71.09658
660.58        71.02547
661.01        71.20617
661.44        71.42844
661.86        71.65238
662.29        71.75241
662.72        71.55278
663.14        71.17614
663.57        71.09045
664.00        71.30071
664.42        71.32964
664.85         71.1786
665.27        71.16576
665.70        71.26896
666.13        71.29354
666.55        71.23146
666.98        71.13303
667.41        71.05035
667.83         71.0653
668.26        71.18211
668.69        71.37292
669.11        71.57778
669.54        71.69922
669.96        71.71769
670.39        71.64857
670.82        71.54767
671.24        71.50522
671.67        71.54047
672.09        71.60839
672.52        71.68487
672.94        71.68842
673.37        71.62041
673.80         71.5202
674.22        71.42645
674.65        71.33887
675.07        71.29071
675.50         71.2649
675.92        71.26797
676.35        71.29078
676.77         71.3343
677.20        71.40639
677.62         71.4825
678.05        71.50233
678.47        71.45804
678.90         71.3725
679.32        71.30304
679.75        71.35042
680.17        71.52605
680.60        71.82008
681.02        72.12292
681.45        72.21784
681.87        72.10236
682.30        71.84585
682.72        71.57767
683.15        71.57606
683.57         71.8198
684.00        71.88989
684.42        71.77921
684.85        71.81234
685.27        71.96954
685.70        72.04435
686.12         72.0263
686.54        72.03288
686.97         72.0455
687.39        72.03561
687.82        72.00372
688.24        71.81883
688.66        71.83246
689.09        71.74569
689.51        71.69481
689.94        71.68449
690.36        71.72722
690.78        71.81258
691.21          71.903
691.63        71.93385
692.06        71.89587
692.48        71.80583
692.90        71.70745
693.33        71.65904
693.75        71.68097
694.17         71.7588
694.60        71.84637
695.02         71.9216
695.44        71.96387
695.87        71.92024
696.29        71.83138
696.71        71.93372
697.14        72.14717
697.56        72.07381
697.98        71.76526
698.41        71.76713
698.83        71.92434
699.25         72.1353
699.68        72.27945
700.10        72.39694
700.52         72.4522
700.94        72.44531
701.37        72.37373
701.79        72.27316
702.21         72.1445
702.64        72.00048
703.06        71.87739
703.48          71.852
703.90        71.93938
704.33         72.1116
704.75        72.31417
705.17        72.43003
705.59        72.43048
706.01         72.3215
706.44        72.16395
706.86        72.20222
707.28        72.26373
707.70         72.4386
708.12        72.61919
708.55        72.77573
708.97        72.85181
709.39        72.75951
709.81         72.5608
710.23        72.47752
710.66         72.5432
711.08         72.6691
711.50        72.77708
711.92        72.80539
712.34        72.73605
712.76        72.59445
713.19        72.43266
713.61        72.38541
714.03        72.46115
714.45         72.6208
714.87        72.81178
715.29        72.95352
715.71        73.02203
716.13        73.04313
716.56        73.01559
716.98        73.01991
717.40        73.04921
717.82        73.07859
718.24        73.11295
718.66        73.18417
719.08        73.27936
719.50         73.3486
719.92        73.38251
720.34        73.40465
720.76        73.40974
721.19        73.36533
721.61        73.29344
722.03        73.21014
722.45        73.12604
722.87        73.04819
723.29        72.98009
723.71        72.92336
724.13        72.88618
724.55        72.87308
724.97        72.91013
725.39        73.03573
725.81        73.24453
726.23        73.50883
726.65        73.77367
727.07        73.95731
727.49        74.03574
727.91        74.02743
728.33        73.95679
728.75        73.87119
729.17         73.7942
729.59        73.71819
730.01        73.65137
730.43        73.60739
730.85        73.58497
731.27        73.57925
731.69        73.59026
732.10        73.61279
732.52        73.62825
732.94        73.69349
733.36        73.78592
733.78        73.75347
734.20        73.57132
734.62        73.78208
735.04        73.28391
735.46         73.5743
735.88        74.14134
736.30        74.09077
736.72        73.50332
737.13        73.33927
737.55        73.63005
737.97        73.89352
738.39        74.03458
738.81        73.99336
739.23        73.82667
739.65        73.93208
740.06        74.23559
740.48        74.35078
740.90        74.23035
741.32        74.19189
741.74        74.14748
742.16        74.11425
742.57        74.07439
742.99        74.05923
743.41         74.0676
743.83        74.03382
744.25        73.97121
744.67        73.96592
745.08         74.0346
745.50          74.078
745.92        74.10712
746.34        74.18002
746.75        74.25779
747.17        74.25927
747.59        74.17404
748.01        73.98454
748.42        73.79443
748.84        73.80132
749.26        73.98382
749.68        74.25195
750.09        74.47793
750.51        74.32533
750.93        73.91959
751.35        73.92831
751.76        74.31194
752.18        74.41236
752.60        74.19656
753.01        74.10902
753.43        74.19456
753.85        74.21403
754.27        74.13678
754.68         74.6424
755.10        74.56062
755.52         74.6923
755.93        74.69652
756.35          74.632
756.77        74.54375
757.18        74.56519
757.60        74.74389
758.02        74.89172
758.43        74.97574
758.85        75.22413
759.26        75.51472
759.68        75.15388
760.10        75.11638
760.51        74.13619
760.93        74.18197
761.34        74.39099
761.76        75.32254
762.18        75.54921
762.59        75.16151
763.01        74.95436
763.42        75.07845
763.84        75.07088
764.26        74.99706
764.67        75.15308
765.09        75.46487
765.50        75.54619
765.92        75.39976
766.33        75.15987
766.75        74.87405
767.16        74.73077
767.58        74.72586
768.00        74.93104
768.41          75.255
768.83        75.25218
769.24        74.99604
769.66        75.03964
770.07        75.33802
770.49        75.52758
770.90        75.56911
771.32        75.54549
771.73        75.51322
772.15        75.52221
772.56        75.59134
772.97        75.72879
773.39        75.84943
773.80        75.75471
774.22        75.48663
774.63        75.50191
775.05        75.74676
775.46        75.84244
775.88        75.73359
776.29         75.6934
776.70        75.73876
777.12          75.785
777.53        75.85838
777.95        75.97052
778.36        76.09832
778.77        76.17965
779.19        76.19836
779.60        76.16891
780.02         76.1442
780.43        76.20376
780.84        76.32739
781.26        76.59364
781.67        76.96836
782.09        76.91781
782.50        76.41512
782.91        76.95496
783.33        76.53374
783.74        76.56657
784.15        76.45355
784.57        76.32647
784.98         76.2334
785.39        76.38556
785.81        76.71348
786.22        76.77693
786.63        76.60977
787.04        76.65215
787.46        76.92609
787.87        77.15894
788.28        77.28579
788.70        77.35374
789.11        77.34032
789.52        77.13772
789.93        76.85659
790.35        76.93776
790.76        77.31364
791.17        77.28606
791.58        76.90932
792.00        76.83436
792.41        77.10664
792.82        77.35125
793.23        77.53568
793.65        77.70856
794.06        77.89439
794.47        78.22638
794.88        78.59299
795.29        78.57402
795.71        78.44533
796.12        78.03191
796.53         77.5565
796.94         77.4435
797.35        77.67666
797.76        77.70791
798.18        77.51655
798.59        77.49219
799.00        77.62836
799.41        77.66219
799.82        77.58534
800.23        77.53506
800.64        77.51888
801.06        77.47179
801.47        77.42741
801.88         77.3629
802.29        77.28413
802.70        77.21098
803.11        77.16917
803.52        77.19052
803.93        77.28242
804.34        77.42902
804.75        77.61525
805.17        77.80203
805.58        77.99847
805.99        78.18271
806.40        78.32302
806.81        78.36968
807.22        78.30828
807.63        78.14862
808.04        77.95812
808.45        77.85821
808.86        77.88036
809.27          77.992
809.68        78.13596
810.09        78.20889
810.50        78.18365
810.91        78.09657
811.32        77.99275
811.73        77.96165
812.14        78.02928
812.55        78.11434
812.96        78.20263
813.37        78.38947
813.78        78.60303
814.19        78.58891
814.60        78.38605
815.01        78.28295
815.42        78.30344
815.83        78.28209
816.24        78.22866
816.65        78.24445
817.05        78.33992
817.46        78.45599
817.87        78.56851
818.28         78.5825
818.69        78.48224
819.10        78.29485
819.51        78.10084
819.92        78.04295
820.33        78.16245
820.74        78.41553
821.14        78.70426
821.55         78.9156
821.96        78.99306
822.37        78.96138
822.78        78.88224
823.19        78.86548
823.60        78.94495
824.00        79.11636
824.41        79.24584
824.82        79.21432
825.23        79.00101
825.64        78.65847
826.04        78.35719
826.45        78.32726
826.86        78.63297
827.27        79.19975
827.68        79.83845
828.08        80.26671
828.49        80.32365
828.90        80.11752
829.31        79.80476
829.72         79.6601
830.12        79.78078
830.53        80.02759
830.94        80.27991
831.35        80.30031
831.75        80.05675
832.16        79.60284
832.57        79.08762
832.97        78.71918
833.38        78.57072
833.79        78.58169
834.20        78.72517
834.60        78.95944
835.01        79.25751
835.42        79.61429
835.82        79.96599
836.23        80.11071
836.64         80.0305
837.04        79.78614
837.45        79.42655
837.86        79.14912
838.26        79.03176
838.67         79.0272
839.08        79.11573
839.48        79.23433
839.89        79.35303
840.29        79.48299
840.70        79.64137
841.11        79.85542
841.51        80.13483
841.92        80.41657
842.33        80.63371
842.73         80.6804
843.14        80.49323
843.54        80.15054
843.95        79.76706
844.35        79.55211
844.76        79.54907
845.17        79.70166
845.57        79.94051
845.98        80.09831
846.38        80.14773
846.79        80.11561
847.19        80.02821
847.60        79.86868
848.00        79.68208
848.41        79.43255
848.81         79.2242
849.22        79.15495
849.62        79.27957
850.03        79.54095
850.43        79.86198
850.84        80.02443
851.24        80.02958
851.65        79.86712
852.05         79.6872
852.46        79.63927
852.86        79.76469
853.27         80.0104
853.67        80.21246
854.07        80.34482
854.48        80.34293
854.88        80.28133
855.29        80.07364
855.69        79.78781
856.10        79.36739
856.50        78.91135
856.90        78.48324
857.31        78.21735
857.71         78.1943
858.12        78.32289
858.52        78.58468
858.92        78.80788
859.33        78.91588
859.73        78.98352
860.13        78.97494
860.54        78.86657
860.94        78.70545
861.34        78.44926
861.75        78.14581
862.15        77.93941
862.55        77.83437
862.96          77.833
863.36          77.843
863.76        77.68478
864.17          77.323
864.57        76.82479
864.97        76.36799
865.38        76.21323
865.78        76.45991
866.18        77.01151
866.58        77.62209
866.99        77.86308
867.39        77.65733
867.79        77.11192
868.19        76.49903
868.60        76.19109
869.00        76.26414
869.40        76.61915
869.80        77.10086
870.21        77.42421
870.61        77.55257
871.01        77.52405
871.41        77.38602
871.81        77.19385
872.22         76.9534
872.62        76.66759
873.02        76.42239
873.42        76.38074
873.82        76.58257
874.22        76.99674
874.63        77.49954
875.03        77.87014
875.43        78.07018
875.83        78.12825
876.23        78.15018
876.63        78.32281
877.03        78.67103
877.44        79.10867
877.84        79.46763
878.24        79.44613
878.64        78.99686
879.04        78.25378
879.44        77.44926
879.84         76.8886
880.24        76.64526
880.64        76.65392
881.04        76.78825
881.44        76.82586
881.84        76.70256
882.24        76.47563
882.65        76.26199
883.05        76.35717
883.45        76.75796
883.85        77.35293
884.25        77.92391
884.65        78.16845
885.05        78.02699
885.45        77.58881
885.85        77.04705
886.25        76.73766
886.65        76.76306
887.05        77.03047
887.45        77.36061
887.85        77.47681
888.25        77.30737
888.65        76.93353
889.04        76.50725
889.44        76.31138
889.84        76.39977
890.24        76.69109
890.64        77.00269
891.04        77.05494
891.44        76.79593
891.84        76.32827
892.24        75.86047
892.64         75.7114
893.04        75.95355
893.44        76.48453
893.83        77.13198
894.23        77.55357
894.63        77.68118
895.03        77.59718
895.43        77.44324
895.83         77.4513
896.23         77.6735
896.63        78.01674
897.02        78.34201
897.42        78.49784
897.82        78.43873
898.22         78.2449
898.62        78.00955
899.01        77.89175
899.41          77.918
899.81        78.04162
900.21        78.22567
900.61         78.4124
901.00        78.55638
901.40        78.68956
901.80        78.76334
902.20        78.70942
902.59        78.53886
902.99        78.26291
903.39         77.9688
903.79        77.79448
904.18        77.77107
904.58        77.86536
904.98        78.02758
905.38        78.18794
905.77        78.30704
906.17        78.41025
906.57        78.46537
906.96        78.44135
907.36        78.31302
907.76        78.11408
908.15        77.90379
908.55        77.71128
908.95        77.59154
909.34        77.50967
909.74        77.52364
910.14        77.65716
910.53        77.90255
910.93        78.23269
911.33        78.54016
911.72        78.63641
912.12        78.48396
912.52        78.17928
912.91         77.8455
913.31        77.70486
913.70        77.79227
914.10        78.00868
914.49        78.35033
914.89        78.72346
915.29        79.08238
915.68         79.4448
916.08        79.66533
916.47         79.5195
916.87        79.01416
917.26        78.20193
917.66        77.37399
918.05        76.95451
918.45        77.03202
918.84        77.52426
919.24        78.13994
919.64        78.46752
920.03        78.41115
920.42        78.09274
920.82        77.73292
921.21        77.66666
921.61        77.96171
922.00        78.51193
922.40        79.16432
922.79        79.74194
923.19        80.12164
923.58        80.40857
923.98        80.56606
924.37        80.59969
924.77        80.51557
925.16        80.26302
925.55         79.9923
925.95        79.96828
926.34        80.23481
926.74        80.72217
927.13        81.16705
927.52        81.03372
927.92        80.28138
928.31        79.09921
928.70        77.92046
929.10        77.39455
929.49        77.66886
929.89        78.50531
930.28        79.63717
930.67        80.44637
931.07        80.69539
931.46         80.5856
931.85        80.22118
932.24         79.8156
932.64          79.465
933.03        79.08614
933.42        78.75909
933.82        78.62912
934.21        78.71973
934.60         79.0288
934.99        79.41324
935.39        79.57479
935.78        79.48071
936.17        79.19608
936.56        78.87397
936.96        78.78219
937.35        79.02998
937.74        79.46296
938.13        79.95406
938.53        80.33441
938.92        80.54886
939.31        80.64727
939.70        80.61467
940.09          80.422
940.49        80.07278
940.88        79.62482
941.27        79.17348
941.66        78.87131
942.05        78.75993
942.44          78.825
942.84        79.01427
943.23        79.16979
943.62        79.26722
944.01        79.32942
944.40        79.39637
944.79        79.54213
945.18        79.76446
945.57        80.00011
945.97        80.14741
946.36         80.1416
946.75        79.93707
947.14        79.56782
947.53        79.09239
947.92        78.61845
948.31        78.20812
948.70        77.86845
949.09        77.59956
949.48        77.37833
949.87        77.21172
950.26        77.13466
950.65        77.16711
951.04        77.33517
951.43        77.62531
951.82        77.97726
952.21        78.36938
952.60        78.77495
952.99        79.13954
953.38        79.44611
953.77        79.56737
954.16        79.31914
954.55        78.70396
954.94        77.80443
955.33        76.84779
955.72        76.21529
956.11        76.01672
956.50        76.15903
956.89        76.49802
957.28        76.74062
957.66        76.81403
958.05        76.81516
958.44        76.75878
958.83        76.66316
959.22        76.55186
959.61        76.34457
960.00        76.23434
960.39         76.5516
960.78          77.318
961.16        78.48796
961.55        79.53803
961.94        79.67413
962.33        78.73809
962.72        77.02474
963.11        75.19933
963.49        74.23582
963.88        74.36108
964.27        75.32625
964.66        76.65837
965.04        77.50424
965.43        77.49669
965.82         76.9409
966.21         76.2493
966.60        76.05895
966.98        76.52966
967.37        77.38803
967.76        78.32499
968.15        78.76091
968.53         78.5259
968.92        77.85831
969.31        77.01634
969.69         76.3457
970.08        75.97025
970.47        75.78631
970.86        75.91252
971.24        76.55862
971.63        77.60839
972.02        78.96534
972.40        80.28354
972.79        80.96577
973.17        80.99941
973.56        80.43958
973.95        79.62336
974.33        79.14005
974.72         79.1624
975.11         79.5423
975.49        79.96727
975.88        79.92291
976.26        79.30369
976.65        78.28401
977.04        77.18647
977.42        76.52084
977.81        76.39693
978.19        76.64008
978.58        77.19384
978.96        77.88858
979.35        78.56983
979.74        79.33694
980.12        80.00926
980.51        80.06675
980.89        79.56249
981.28        78.49045
981.66          77.392
982.05        77.28738
982.43        78.39247
982.82        80.33309
983.20        82.41014
983.59        83.37373
983.97        83.02603
984.35        81.66985
984.74        79.82725
985.12        78.45917
985.51        77.92412
985.89        77.98872
986.28        78.39017
986.66        78.80931
987.04        79.09109
987.43        79.30314
987.81        79.53637
988.20        79.80263
988.58        80.13763
988.96        80.49074
989.35        80.59879
989.73        80.18263
990.12         79.1565
990.50        77.55474
990.88         75.8945
991.27        75.37252
991.65        76.33223
992.03        78.30024
992.42        80.27665
992.80        81.29573
993.18        81.10376
993.56         79.9875
993.95        78.22334
994.33        76.62984
994.71         75.8793
995.10        75.67873
995.48        76.00177
995.86        76.73883
996.24        77.81567
996.63        79.31303
997.01        81.02014
997.39        82.08452
997.77        82.10995
998.15        81.26823
998.54        80.00628
998.92        79.02652
999.30         78.5118
999.68         78.3192
1000.06        78.36327
1000.45        78.40525
1000.83        78.44064
1001.21        78.52851
1001.59        78.72402
1001.97        79.07276
1002.35        79.59248
1002.73        80.27202
1003.12        80.93256
1003.50        81.12672
1003.88        80.77262
1004.26        79.99216
1004.64        79.20105
1005.02        78.92635
1005.40        79.22584
1005.78        79.97526
1006.16        80.76208
1006.54        80.84258
1006.92        80.03454
1007.30        78.58274
1007.69        77.07736
1008.07        76.37688
1008.45        76.77864
1008.83        77.98028
1009.21        79.42433
1009.59        80.33183
1009.97        80.47134
1010.35        79.97032
1010.73        79.12809
1011.11        78.68954
1011.49        79.01346
1011.86        79.98206
1012.24        80.91779
1012.62        81.14397
1013.00        80.61798
1013.38        79.66416
1013.76        78.87075
1014.14        79.21307
1014.52        80.91491
1014.90        83.56831
1015.28        86.67561
1015.66        89.17175
1016.04        90.48176
1016.41        90.98804
1016.79        90.33451
1017.17        88.42327
1017.55         85.5155
1017.93        81.78606
1018.31        78.37569
1018.69        77.05471
1019.06        78.34305
1019.44        82.06168
1019.82        87.06889
1020.20        90.62045
1020.58        91.52394
1020.95        90.27288
1021.33        88.35477
1021.71        87.80622
1022.09        88.93888
1022.46        91.03909
1022.84         92.9957
1023.22        92.71227
1023.60        89.47427
1023.97        83.64306
1024.35        76.53166
1024.73        71.24278
