SpectraSmart Spectrum 2.9.0.0
--------- Device Information -----------
Spectrum Name :  反射率_0
Saving Time :  2024/04/27 23:35:41
Spectro-Module Model Name : SE2030-DUVN
Spectro-Module Serial Number : OS361AC55029948
Wavelength Start : 200
Wavelength End : 1025
Wavelength Unit : Wavelength(nm)
Spectrum Unit : Reflectance(%)
-----------Spectrum Setting ------------
Integration Time : 20ms
Average : 10
Boxcar : 0
Background removal :  enabled
linearity correction :  enabled
SC :  disabled
Intensity correction :  disabled
DWT denoise :  enabled
savitzky-golay :  disabled
FFT :  disabled
Running average :  disabled
Kalman :  disabled
High pass :  disabled
---------------BEGIN--------------------
Wavelength(nm)             Reflectance(%)
200.29               0
200.75        107.5817
201.21        102.4107
201.67        94.11505
202.13        86.68315
202.58        79.94984
203.04        73.54508
203.50        69.47304
203.96        71.20296
204.42        77.56132
204.88        85.52993
205.34        92.92644
205.80        98.45961
206.26        102.4865
206.72        106.2788
207.18        107.9508
207.64        101.2733
208.10        88.46289
208.55         77.5999
209.01        70.55574
209.47        65.53426
209.93        60.01833
210.39        50.16656
210.85         27.8102
211.31        23.80402
211.77        72.51092
212.23         90.6151
212.69        94.91165
213.14        96.55615
213.60         96.8517
214.06        96.26481
214.52        92.33932
214.98        81.37776
215.44        69.36545
215.90        61.73613
216.36        59.25876
216.81        60.88066
217.27        64.96819
217.73        71.26125
218.19        77.67281
218.65        80.23474
219.11        77.66669
219.57        70.59212
220.02        60.52145
220.48        53.54058
220.94        52.13663
221.40        54.17477
221.86        57.82499
222.32        61.11034
222.77        63.39555
223.23        65.23589
223.69        65.91478
224.15        64.32827
224.61        60.61535
225.06        54.89773
225.52        49.10868
225.98        46.94432
226.44        48.70169
226.90        52.05236
227.36        55.03466
227.81        56.13861
228.27        55.43159
228.73        53.50736
229.19        50.45106
229.65        46.66599
230.10        42.72883
230.56        39.05156
231.02        36.22895
231.48        35.09431
231.93        35.50212
232.39        37.07467
232.85        39.25177
233.31        41.23354
233.77        42.74833
234.22        44.12257
234.68        44.92388
235.14         44.7024
235.60        43.47403
236.05        41.07325
236.51        38.70465
236.97        38.98795
237.43        42.70649
237.88        49.20476
238.34         55.7528
238.80        59.51204
239.26        59.87645
239.71        56.63176
240.17        49.92263
240.63        46.08144
241.08        50.69919
241.54        59.05652
242.00        66.05145
242.46        70.00822
242.91        72.00447
243.37        73.10543
243.83        73.52293
244.28        72.93908
244.74        71.25509
245.20        69.29935
245.66        67.93066
246.11        66.68153
246.57        65.07738
247.03         63.4419
247.48          62.778
247.94        66.77534
248.40        75.81468
248.85        85.56876
249.31        93.04811
249.77        96.77398
250.22        97.60871
250.68         96.8856
251.14        95.25835
251.59        93.08685
252.05        90.29475
252.51        85.89709
252.96        79.95016
253.42        76.31091
253.88        76.98193
254.33        80.13962
254.79        82.65706
255.25        81.71002
255.70        77.93588
256.16        73.46851
256.62        69.77962
257.07        68.55595
257.53        69.58463
257.99        71.07627
258.44        71.83453
258.90        71.32231
259.35         69.3786
259.81        67.05612
260.27        64.49545
260.72        61.92144
261.18        59.85398
261.63        57.93537
262.09         56.4823
262.55        55.44836
263.00         54.6572
263.46        54.16193
263.91        53.67302
264.37        53.15657
264.83         52.4972
265.28        51.69554
265.74        50.83475
266.19        49.79643
266.65        48.67127
267.11        47.46708
267.56        46.21876
268.02        45.09927
268.47        44.11209
268.93        43.21499
269.38        42.45609
269.84        41.92812
270.30         41.5913
270.75        41.40414
271.21         41.1007
271.66        40.22705
272.12        38.76421
272.57        36.84743
273.03        34.91738
273.48        33.57761
273.94        33.00812
274.39        32.96265
274.85        33.14599
275.31        33.05561
275.76        32.55599
276.22        31.83483
276.67        31.02855
277.13        30.41983
277.58         30.0135
278.04        29.74926
278.49        29.45328
278.95        28.99983
279.40        28.32665
279.86        27.56763
280.31         26.8247
280.77        26.34917
281.22        26.13337
281.68        26.12513
282.13        26.15965
282.59        26.05409
283.04        25.76112
283.50        25.36827
283.95        24.97028
284.41        24.74375
284.86        24.71356
285.32        24.83441
285.77        25.01002
286.22        25.14343
286.68         25.2165
287.13        25.21583
287.59        25.21594
288.04        25.25381
288.50        25.36272
288.95         25.5007
289.41        25.61308
289.86        25.57208
290.32        25.40422
290.77        25.17412
291.22        25.02249
291.68        25.14826
292.13        25.58406
292.59        26.27541
293.04        27.13973
293.50        28.06575
293.95        28.99949
294.40        29.99207
294.86         31.0266
295.31        32.06955
295.77         33.1409
296.22        34.22668
296.68        35.42591
297.13        36.87025
297.58        38.56673
298.04        40.45803
298.49          42.399
298.95        44.21315
299.40        45.87038
299.85        47.44687
300.31        49.07073
300.76        50.88422
301.21        52.91087
301.67        55.08356
302.12        57.27228
302.58        59.37807
303.03         61.3419
303.48        63.23618
303.94        65.13541
304.39        67.06052
304.84        69.05937
305.30        71.12486
305.75        73.21803
306.20        75.37566
306.66        77.60249
307.11        79.82758
307.57        82.02632
308.02        84.03393
308.47        85.83194
308.93        87.45862
309.38        88.91515
309.83        90.31786
310.29        91.72283
310.74        93.08228
311.19        94.39988
311.65        95.64789
312.10        96.78117
312.55        97.82262
313.00        98.78461
313.46        99.69357
313.91        100.5428
314.36        101.3366
314.82        102.0635
315.27        102.7009
315.72        103.2468
316.18        103.7313
316.63         104.157
317.08        104.5647
317.53        104.9747
317.99        105.3796
318.44        105.8024
318.89        106.2491
319.35        106.7165
319.80        107.2112
320.25        107.7098
320.70        108.1822
321.16        108.6063
321.61             109
322.06        109.3723
322.51        109.7549
322.97        110.1327
323.42        110.5249
323.87        110.8866
324.32        111.1682
324.78        111.3461
325.23         111.487
325.68        111.6041
326.13        111.7471
326.59        111.9133
327.04        112.1432
327.49        112.4335
327.94        112.8134
328.39        113.2807
328.85        113.7919
329.30         114.361
329.75        114.8372
330.20         115.184
330.66        115.3944
331.11        115.5956
331.56        115.8797
332.01        116.2894
332.46        116.7932
332.92        117.3021
333.37        117.8224
333.82        118.2743
334.27        118.6819
334.72        119.0668
335.17        119.4642
335.63        119.8619
336.08        120.3054
336.53        120.7594
336.98        121.2181
337.43        121.6782
337.88        122.1423
338.34        122.6031
338.79        123.1044
339.24        123.6298
339.69        124.1766
340.14        124.7169
340.59        125.2054
341.05         125.641
341.50        126.0518
341.95        126.4715
342.40         126.973
342.85        127.5654
343.30        128.2007
343.75        128.8538
344.20        129.4843
344.66        130.0695
345.11        130.6227
345.56        131.0677
346.01        131.2821
346.46        131.2718
346.91        131.0871
347.36        130.9171
347.81        131.0538
348.26        131.5421
348.72        132.2832
349.17        133.0662
349.62         133.572
350.07        133.7077
350.52        133.5724
350.97        133.2819
351.42        133.0258
351.87        132.8763
352.32        132.7786
352.77        132.7105
353.22        132.6452
353.67        132.5583
354.13         132.465
354.58        132.3267
355.03        132.1367
355.48        131.8786
355.93        131.5485
356.38        131.0975
356.83        130.4565
357.28        129.6367
357.73        128.6875
358.18        127.7209
358.63        126.9028
359.08        126.2761
359.53        125.7984
359.98        125.3947
360.43        124.9407
360.88        124.3868
361.33        123.7493
361.78        123.0577
362.23        122.3546
362.68        121.6505
363.13        120.9506
363.58        120.2086
364.03        119.2663
364.48        118.2742
364.93        117.1617
365.38        116.0725
365.83        115.1555
366.28        114.4359
366.73        113.8516
367.18        113.3104
367.63         112.665
368.08        111.8737
368.53         110.994
368.98        110.0492
369.43        109.0766
369.88        108.1096
370.33        107.1391
370.78        106.2418
371.23        105.5426
371.68        105.0567
372.13        104.7485
372.58        104.4932
373.03        104.0826
373.48        103.4574
373.93        102.6628
374.38        101.8012
374.83        101.0406
375.28        100.4235
375.72         99.8849
376.17        99.37231
376.62        98.73194
377.07        97.94122
377.52        97.05273
377.97        96.18137
378.42         95.5009
378.87        95.04183
379.32         94.7438
379.77        94.47588
380.22        94.03455
380.67        93.37759
381.11        92.58031
381.56        91.75227
382.01        91.08971
382.46        90.65602
382.91        90.38732
383.36        90.21292
383.81          90.022
384.26        89.76802
384.71        89.47884
385.15        89.14057
385.60        88.79145
386.05        88.42021
386.50        88.01714
386.95        87.59326
387.40        87.17842
387.85        86.79251
388.29        86.39276
388.74        86.07108
389.19        85.75397
389.64        85.41517
390.09        85.03107
390.54        84.65402
390.98        84.29748
391.43        84.02664
391.88        83.93477
392.33        83.88583
392.78        83.33711
393.23         83.0704
393.67        82.21398
394.12        81.33183
394.57        81.71158
395.02        81.93383
395.47          82.368
395.91         81.6515
396.36         81.4176
396.81        81.38983
397.26        81.07335
397.71        80.55003
398.15        80.15154
398.60        79.99059
399.05        79.87794
399.50        79.79503
399.95        79.70543
400.39        79.56973
400.84        79.43999
401.29        79.29151
401.74        78.75233
402.18        78.02022
402.63        77.92451
403.08        78.36053
403.53         78.3676
403.97        77.89049
404.42        77.49981
404.87        77.26781
405.32        77.13107
405.76        77.10248
406.21        77.06049
406.66        76.97781
407.11        77.12616
407.55        77.35737
408.00        76.96928
408.45        76.10187
408.90        75.46508
409.34        75.23457
409.79        75.38208
410.24        75.74788
410.68        75.92561
411.13        75.84075
411.58        75.74459
412.03        75.69073
412.47        75.66307
412.92        75.65336
413.37         75.6731
413.81        75.68112
414.26        75.68037
414.71        75.64687
415.15        75.60983
415.60        75.54591
416.05        75.47987
416.49        75.42575
416.94        75.36481
417.39        75.31004
417.83        75.28012
418.28        75.26553
418.73        75.24303
419.17        75.20784
419.62        75.15528
420.07        75.10548
420.51        75.08068
420.96        75.06665
421.41        75.04734
421.85        75.00447
422.30        74.76926
422.74        74.50644
423.19        74.90881
423.64        76.16698
424.08        76.40067
424.53        75.67195
424.98        75.39873
425.42        75.67278
425.87        75.51514
426.31        75.02084
426.76        75.03589
427.21        75.45705
427.65        75.47636
428.10        75.14803
428.54        75.09084
428.99        75.33722
429.44        75.75535
429.88        76.11925
430.33        75.76558
430.77        74.90959
431.22        74.77461
431.66        75.31213
432.11        75.58916
432.56        75.62022
433.00        75.86765
433.45        76.05752
433.89        76.19625
434.34        76.42352
434.78        74.77806
435.23        75.19946
435.67         75.3624
436.12        76.29668
436.57        76.62762
437.01        76.38132
437.46        76.63694
437.90        76.67759
438.35        77.18405
438.79         76.7421
439.24        76.64676
439.68        76.61485
440.13        76.59024
440.57        76.58826
441.02        76.95734
441.46        77.49191
441.91        77.27733
442.35        76.49374
442.80        76.64789
443.24        77.57995
443.69        77.74646
444.13        77.12313
444.58         77.4659
445.02        77.62748
445.47        77.89874
445.91        77.90992
446.36        77.85658
446.80        77.68889
447.24        77.91243
447.69        77.53049
448.13        77.68446
448.58        78.01575
449.02        78.22167
449.47        78.26696
449.91        78.31816
450.36        78.39252
450.80        78.32289
451.25        78.17378
451.69        78.10447
452.13        78.12241
452.58        78.11779
453.02        78.06107
453.47        77.94697
453.91        77.76413
454.36        77.63882
454.80        77.52646
455.24        77.17586
455.69         76.7502
456.13        76.56118
456.58        76.70219
457.02        76.95992
457.46        77.64672
457.91        77.40599
458.35        76.80343
458.79         76.4709
459.24        76.54227
459.68        76.50418
460.13        76.36197
460.57        76.08128
461.01        76.02092
461.46        75.90341
461.90        75.61169
462.34        75.78174
462.79        75.69452
463.23        75.78661
463.68        75.81777
464.12        75.70193
464.56        75.49469
465.01        75.51218
465.45        75.61616
465.89        75.53506
466.34        75.31657
466.78        75.05939
467.22        74.74123
467.67         74.9424
468.11        74.91162
468.55        74.82082
468.99         74.5162
469.44        74.41129
469.88        74.52008
470.32        74.61041
470.77        74.61913
471.21        74.55427
471.65        74.39717
472.10        74.16872
472.54        73.91366
472.98        73.75549
473.42        73.72375
473.87        73.75179
474.31        73.76996
474.75        73.89864
475.20        74.02746
475.64        73.87146
476.08        73.51857
476.52        73.32193
476.97        73.26836
477.41        73.54715
477.85        73.53047
478.29         73.4381
478.74        73.16734
479.18        73.05597
479.62        73.41395
480.06        73.44511
480.50        73.23111
480.95        73.19557
481.39        73.33962
481.83        72.80314
482.27        73.28242
482.72         72.6754
483.16         72.9575
483.60        72.86254
484.04        72.79595
484.48        72.81725
484.93        73.12036
485.37        72.96066
485.81        73.28008
486.25        73.88231
486.69        74.25229
487.14        73.26434
487.58        73.04241
488.02        73.05151
488.46        73.01332
488.90        73.43307
489.34        73.13184
489.79        72.06522
490.23         72.6517
490.67         72.4212
491.11        72.19711
491.55        72.11588
491.99        72.19088
492.43        72.23219
492.88        72.20558
493.32        72.25266
493.76        72.30561
494.20        72.33935
494.64        72.37336
495.08        72.15826
495.52        71.84219
495.96        72.26322
496.41        73.16945
496.85        73.08043
497.29        72.12886
497.73        71.85043
498.17        72.16191
498.61        72.37963
499.05        72.21244
499.49        72.10136
499.93        72.04857
500.37        71.98177
500.82         71.9011
501.26        72.05078
501.70        72.42582
502.14         71.8924
502.58        71.99888
503.02        71.97758
503.46        71.98376
503.90        72.07323
504.34        72.13499
504.78        72.16417
505.22        72.11411
505.66        72.09017
506.10        72.14709
506.54        72.07323
506.98        71.81509
507.42        72.39569
507.86        72.20222
508.30        72.05527
508.74         72.1795
509.18        72.06457
509.62        71.94067
510.06        71.85256
510.50        71.83374
510.94        71.84073
511.38        71.85371
511.82         71.8578
512.26        71.84049
512.70        71.81368
513.14        71.77719
513.58        71.70426
514.02        71.59663
514.46        71.50848
514.90        71.47449
515.34        71.32259
515.78        71.43161
516.22        71.48419
516.66        71.57234
517.10        71.65517
517.54        71.71831
517.98        71.76292
518.42        71.76933
518.86        71.71829
519.30         71.6136
519.74        71.46902
520.18        71.32181
520.62        71.22945
521.06        71.20943
521.50        71.25022
521.93        71.33776
522.37        71.42974
522.81        71.51464
523.25        71.59532
523.69        71.66717
524.13        71.72508
524.57        71.76596
525.01        71.78422
525.45        71.77751
525.89        71.74718
526.32        71.68945
526.76         71.6205
527.20        71.54497
527.64        71.47662
528.08        71.42177
528.52        71.38229
528.96        71.35416
529.40        71.32824
529.83        71.29669
530.27         71.2751
530.71         71.2632
531.15        71.27097
531.59        71.29729
532.03        71.33411
532.46        71.36312
532.90        71.37917
533.34        71.37284
533.78        71.34991
534.22        71.31416
534.66        71.27179
535.09        71.21866
535.53        71.17461
535.97        71.13673
536.41        71.11693
536.85        71.11617
537.28        71.13303
537.72        71.15853
538.16        71.16513
538.60        71.14737
539.04        71.13707
539.47        71.12125
539.91        71.09355
540.35        71.03399
540.79        71.06625
541.22        70.99205
541.66        70.97713
542.10        70.96072
542.54        70.94614
542.97        70.92055
543.41        70.90899
543.85        70.90067
544.29        70.89391
544.72        70.87261
545.16        70.84927
545.60        70.81433
546.04        70.76472
546.47         70.7121
546.91        70.70817
547.35        70.75161
547.79        70.77016
548.22        70.73652
548.66        70.78078
549.10        70.83878
549.53        70.70733
549.97        70.45182
550.41        70.34694
550.84        70.41816
551.28        70.54255
551.72        70.65729
552.15        70.67844
552.59        70.59518
553.03        70.52517
553.46         70.3265
553.90         70.2953
554.34        70.37726
554.77        70.55895
555.21        70.74354
555.65        70.78642
556.08        70.59592
556.52        70.38457
556.96        70.20113
557.39         70.2158
557.83        70.39744
558.27        70.40564
558.70        70.24337
559.14        70.20723
559.57        70.28338
560.01        70.31249
560.45        70.26738
560.88        70.22511
561.32        70.23795
561.75        70.16042
562.19        70.05159
562.63        70.15675
563.06        70.39658
563.50        70.28654
563.93        69.90609
564.37        69.94505
564.80        70.32266
565.24        70.45941
565.68        70.33116
566.11        70.29002
566.55        70.35984
566.98         70.3412
567.42        70.25404
567.85        70.16693
568.29        70.17531
568.72        70.16595
569.16        70.13908
569.60        70.49197
570.03        70.58563
570.47        70.37077
570.90        70.55317
571.34        70.70199
571.77        70.88171
572.21        70.42352
572.64        70.78905
573.08        70.44834
573.51        70.48694
573.95        70.53742
574.38        70.70732
574.82        70.61583
575.25        70.66308
575.69        70.30009
576.12         70.3391
576.56        70.52979
576.99        70.41344
577.42        70.81029
577.86        70.81784
578.29        70.64145
578.73        70.58691
579.16        70.56499
579.60         70.6377
580.03        70.54099
580.47        70.16055
580.90        70.78635
581.33        70.71782
581.77        70.93669
582.20        70.70561
582.64         70.7897
583.07        70.72971
583.51        70.60227
583.94        70.55064
584.37        70.50275
584.81        70.52546
585.24        70.57727
585.68        70.74929
586.11        70.48401
586.54        70.87137
586.98        70.57063
587.41        70.73468
587.85        70.36555
588.28        70.39556
588.71         70.2161
589.15        70.63361
589.58        70.03828
590.01         70.4846
590.45        70.68189
590.88        69.91477
591.31        69.89319
591.75        70.12602
592.18        70.19357
592.61        70.36522
593.05        69.79784
593.48        71.00699
593.91        70.64443
594.35        70.31993
594.78        70.45357
595.21        70.14484
595.65        70.16978
596.08        70.05122
596.51        70.66541
596.94        70.18697
597.38        70.25172
597.81        70.42923
598.24        70.08614
598.68        70.13437
599.11        70.01802
599.54        70.69781
599.97        70.27848
600.41        70.52658
600.84        70.36459
601.27        70.22382
601.70         70.1474
602.14        69.48339
602.57        69.79111
603.00        70.04425
603.43        70.19154
603.87        70.29305
604.30         70.0396
604.73        70.12291
605.16         70.0632
605.60        70.17751
606.03        70.48717
606.46        70.95431
606.89        70.42351
607.32         70.4993
607.76        70.46815
608.19        70.27618
608.62        70.15176
609.05        70.01451
609.48        69.93463
609.92         69.8492
610.35        70.10114
610.78        70.23891
611.21        69.72408
611.64        70.28237
612.07        70.15117
612.50        69.90811
612.94        69.86343
613.37        70.11856
613.80        69.83566
614.23        70.18993
614.66        70.14773
615.09        70.04671
615.52        70.03362
615.96        70.16514
616.39        69.74895
616.82        70.04355
617.25        69.92506
617.68        69.97172
618.11         69.9779
618.54        69.77351
618.97         69.8097
619.40        69.87495
619.84        70.19637
620.27        70.00311
620.70        69.83494
621.13        69.42183
621.56        69.95545
621.99        69.74055
622.42        69.51315
622.85        69.44118
623.28        69.88322
623.71        69.36617
624.14         69.2707
624.57        69.72303
625.00        69.53423
625.43        69.55187
625.86        69.59619
626.29        69.87331
626.72        69.67174
627.15        69.75934
627.58        69.58558
628.01        69.45197
628.44         69.4225
628.87        69.40384
629.30        69.69709
629.73        69.51216
630.16        69.27728
630.59        69.46712
631.02        69.50599
631.45         69.6776
631.88        69.74368
632.31        69.76085
632.74        69.42317
633.17        69.46422
633.60        69.37866
634.03        69.38542
634.46        69.46165
634.89        69.55711
635.32        69.56203
635.75        69.45139
636.18        69.29355
636.61         69.1413
637.04        69.02452
637.47        69.00909
637.89        69.14868
638.32        69.53021
638.75        69.68748
639.18        69.62994
639.61        69.54555
640.04         69.4065
640.47        69.33991
640.90        69.34729
641.33        69.38361
641.76         69.4008
642.18        69.49819
642.61        69.38477
643.04        69.29899
643.47        69.19812
643.90        69.14438
644.33        69.14777
644.76        69.18767
645.18        69.23602
645.61        69.23506
646.04        69.17546
646.47        69.07397
646.90        68.95569
647.33        68.87749
647.75        68.86392
648.18        68.85863
648.61        68.85109
649.04        68.96512
649.47        69.14497
649.89        69.04268
650.32          68.745
650.75        68.84267
651.18        69.27028
651.61        69.31702
652.03        68.95995
652.46        68.86372
652.89         69.1194
653.32        68.95048
653.74        68.71082
654.17        69.44022
654.60        68.98905
655.03        69.10644
655.46        68.72741
655.88        69.46997
656.31        70.87574
656.74        72.03823
657.16        71.33965
657.59        70.27531
658.02        69.25001
658.45        70.09164
658.87        69.61382
659.30        69.38779
659.73        69.14886
660.15        68.68033
660.58        68.95221
661.01        69.15699
661.44         69.4052
661.86        69.36123
662.29        69.05634
662.72        68.87066
663.14        68.87531
663.57        68.96027
664.00        69.08976
664.42        69.15856
664.85        69.15543
665.27        69.16933
665.70        69.18421
666.13        69.13184
666.55         69.0159
666.98        68.84758
667.41        68.69115
667.83        68.64957
668.26        68.73271
668.69        68.93229
669.11        69.16544
669.54        69.27798
669.96        69.24164
670.39        69.15334
670.82        68.86906
671.24        68.94753
671.67        69.25811
672.09        69.32726
672.52        69.17558
672.94        69.13985
673.37        69.24461
673.80        69.31971
674.22        69.35735
674.65        69.35227
675.07        69.31944
675.50        69.26463
675.92        69.20517
676.35        69.14016
676.77         69.0829
677.20        69.03896
677.62        69.02268
678.05        69.03439
678.47        69.07136
678.90        69.13928
679.32        69.21797
679.75        69.28823
680.17        69.34216
680.60        69.39243
681.02        69.41803
681.45        69.39684
681.87        69.34655
682.30        69.17834
682.72         68.9803
683.15        69.09646
683.57         69.4602
684.00        69.51052
684.42        69.27885
684.85        69.27594
685.27        69.50063
685.70        69.65066
686.12        69.68711
686.54        69.73866
686.97        69.78471
687.39        69.76266
687.82         69.6703
688.24        69.59593
688.66        69.53223
689.09        69.46668
689.51        69.43346
689.94         69.4581
690.36        69.54796
690.78        69.69093
691.21        69.82742
691.63        69.84799
692.06        69.73673
692.48        69.52442
692.90         69.2879
693.33        69.13705
693.75        69.11171
694.17        69.19141
694.60        69.30573
695.02        69.40433
695.44        69.45983
695.87        69.37255
696.29        69.22433
696.71        69.43022
697.14        69.87633
697.56         69.8242
697.98        69.50055
698.41        69.37181
698.83        69.49548
699.25        69.54296
699.68        69.49683
700.10        69.54272
700.52        69.66886
700.94        69.82685
701.37         69.9622
701.79        70.02468
702.21        69.98035
702.64        69.86679
703.06        69.72128
703.48        69.62088
703.90        69.59373
704.33        69.61453
704.75          69.667
705.17        69.70106
705.59        69.70249
706.01        69.66136
706.44         69.6058
706.86        69.70552
707.28        69.77216
707.70        69.93853
708.12         70.1004
708.55        70.16613
708.97        70.11858
709.39        70.01498
709.81        69.90986
710.23        69.87638
710.66        69.93759
711.08        70.09396
711.50        70.26871
711.92         70.3576
712.34         70.3384
712.76        70.24303
713.19        70.11621
713.61        70.08244
714.03        70.14713
714.45        70.26945
714.87        70.40521
715.29        70.48792
715.71         70.4976
716.13        70.46197
716.56        70.37185
716.98        70.28729
717.40        70.20495
717.82        70.12062
718.24        70.06711
718.66        70.09813
719.08        70.21616
719.50        70.39864
719.92        70.59505
720.34        70.72112
720.76         70.7511
721.19        70.69871
721.61        70.59889
722.03        70.48107
722.45        70.36634
722.87        70.25082
723.29        70.15824
723.71        70.12437
724.13        70.15943
724.55        70.26349
724.97        70.40841
725.39        70.54189
725.81        70.64326
726.23        70.71106
726.65        70.76779
727.07        70.85684
727.49        70.98058
727.91        71.11905
728.33        71.21876
728.75        71.19648
729.17        71.04425
729.59        70.79285
730.01        70.49401
730.43        70.32853
730.85        70.34666
731.27         70.3235
731.69        70.18584
732.10        70.76836
732.52        70.51418
732.94        70.71259
733.36        70.89188
733.78        70.94918
734.20        70.85102
734.62        71.09793
735.04        70.62766
735.46        70.91696
735.88        71.49007
736.30          71.199
736.72        70.68097
737.13        70.35979
737.55        70.46555
737.97        70.66322
738.39        70.85477
738.81        70.82201
739.23         70.6075
739.65        70.71037
740.06        71.05112
740.48        71.18485
740.90        71.06467
741.32        71.01923
741.74        70.97742
742.16        70.97746
742.57         71.0084
742.99        71.07424
743.41        71.15894
743.83        71.21822
744.25        71.23923
744.67        71.21988
745.08        71.20488
745.50        71.22603
745.92        71.30867
746.34        71.44695
746.75        71.56782
747.17        71.56799
747.59        71.42931
748.01        71.12466
748.42        70.79964
748.84        70.76688
749.26        70.99616
749.68          71.271
750.09        71.45342
750.51          71.277
750.93         70.8679
751.35        70.86257
751.76        71.21852
752.18         71.2899
752.60        71.06104
753.01        70.93551
753.43        70.94495
753.85        70.98249
754.27        71.05419
754.68        71.19481
755.10        71.35799
755.52        71.46555
755.93        71.51333
756.35        71.50793
756.77        71.44004
757.18        71.53719
757.60        71.85013
758.02        71.85294
758.43         71.4713
758.85          72.625
759.26        72.08167
759.68        72.20804
760.10        72.21041
760.51        71.12851
760.93        71.32871
761.34        71.35018
761.76        71.41656
762.18        71.70168
762.59        72.01231
763.01        72.07828
763.42        71.96788
763.84         71.9828
764.26        72.18844
764.67        72.39978
765.09        72.56696
765.50        72.61312
765.92         72.5573
766.33        72.34053
766.75        71.96103
767.16        72.01707
767.58        71.79697
768.00        71.89389
768.41        72.04841
768.83        72.01631
769.24        71.82014
769.66        71.78049
770.07        71.88551
770.49        71.91264
770.90         71.8819
771.32        72.01957
771.73        72.21603
772.15        72.31213
772.56        72.27542
772.97        72.25974
773.39        72.25639
773.80        72.13329
774.22        71.95758
774.63        72.14238
775.05        72.57986
775.46        72.80921
775.88        72.74597
776.29        72.68083
776.70        72.65329
777.12        72.62708
777.53        72.64117
777.95        72.67843
778.36        72.73328
778.77        72.77869
779.19        72.80968
779.60        72.84801
780.02        72.87791
780.43        72.91664
780.84        72.94574
781.26        72.90524
781.67        72.89677
782.09        73.03468
782.50        73.13434
782.91        73.69633
783.33        72.85346
783.74        72.81112
784.15        73.03162
784.57        73.11964
784.98        73.07104
785.39        73.24844
785.81        73.57462
786.22          73.586
786.63        73.33031
787.04        73.25511
787.46        73.39837
787.87        73.51172
788.28        73.55436
788.70        73.59478
789.11        73.61263
789.52        73.49339
789.93        73.32373
790.35        73.49157
790.76        73.91693
791.17        73.93616
791.58        73.57959
792.00        73.44778
792.41        73.58639
792.82        73.62726
793.23        73.59529
793.65        73.66204
794.06        73.85082
794.47        74.19257
794.88        74.56525
795.29        74.51886
795.71        74.48929
796.12        74.10371
796.53         73.6387
796.94        73.58955
797.35        73.92981
797.76        74.00324
798.18        73.80111
798.59        73.83044
799.00        74.09277
799.41        74.25961
799.82        74.30978
800.23        74.36573
800.64        74.42628
801.06        74.42835
801.47        74.41186
801.88        74.36162
802.29        74.28487
802.70        74.22805
803.11        74.21979
803.52        74.22122
803.93        74.21456
804.34        74.48424
804.75        74.51628
805.17        74.70236
805.58        74.88918
805.99        75.18595
806.40        75.47735
806.81          75.306
807.22        74.78746
807.63        74.57308
808.04        74.71189
808.45        74.74148
808.86        74.65369
809.27        74.77666
809.68        75.03606
810.09        75.11349
810.50        74.96602
810.91        74.69232
811.32        74.38493
811.73        74.21155
812.14        74.22391
812.55        74.31674
812.96        74.44881
813.37         74.6656
813.78         74.8781
814.19        74.85636
814.60        74.64169
815.01        74.51358
815.42        74.50005
815.83        74.44227
816.24        74.35485
816.65        74.34972
817.05        74.44218
817.46         74.5684
817.87        74.71452
818.28        74.80257
818.69        74.81512
819.10        74.77635
819.51         74.7175
819.92        74.69485
820.33        74.72895
820.74        74.79753
821.14        74.88358
821.55        74.99812
821.96        75.11784
822.37        75.24906
822.78         75.3683
823.19        75.43074
823.60        75.42411
824.00        75.37257
824.41        75.26921
824.82        75.20068
825.23        75.18433
825.64        75.20728
826.04        75.25405
826.45        75.25321
826.86        75.20226
827.27        75.12753
827.68        75.05535
828.08        75.05733
828.49        75.08139
828.90        75.14212
829.31        75.23397
829.72         75.3525
830.12        75.50654
830.53        75.64284
830.94        75.74622
831.35        75.75764
831.75        75.68899
832.16        75.51305
832.57        75.29373
832.97         75.1086
833.38        74.98837
833.79        74.93503
834.20        74.94816
834.60        75.01475
835.01        75.13777
835.42        75.30812
835.82        75.53484
836.23        75.74765
836.64        75.94559
837.04         76.1449
837.45        76.27598
837.86        76.33689
838.26        76.34102
838.67        76.28073
839.08        76.20226
839.48        76.16454
839.89         76.1869
840.29         76.2561
840.70        76.36472
841.11        76.49989
841.51        76.66483
841.92        76.81916
842.33        76.94279
842.73        76.99788
843.14        76.92531
843.54        76.76565
843.95        76.55108
844.35        76.35953
844.76        76.20827
845.17         76.0909
845.57        76.00569
845.98        75.90186
846.38        75.79826
846.79        75.69499
847.19        75.62423
847.60        75.57949
848.00        75.58389
848.41        75.59167
848.81        75.63931
849.22        75.71135
849.62        75.83598
850.03        75.99124
850.43        76.14341
850.84         76.1572
851.24        76.06105
851.65        75.81528
852.05        75.60332
852.46         75.6404
852.86        75.95245
853.27        76.45679
853.67        76.86955
854.07        76.98887
854.48        76.73949
854.88        76.24769
855.29        75.55527
855.69        74.98129
856.10        74.56438
856.50        74.31197
856.90        74.20547
857.31        74.23289
857.71        74.41263
858.12         74.7119
858.52        75.04553
858.92        75.13679
859.33        74.90745
859.73        74.42953
860.13        73.87147
860.54        73.58376
860.94        73.69816
861.34        74.08591
861.75        74.48647
862.15        74.54507
862.55        74.15819
862.96         73.4747
863.36        72.71243
863.76        72.21456
864.17        72.08379
864.57        72.22086
864.97        72.52328
865.38        72.81132
865.78        73.05758
866.18        73.29314
866.58        73.46725
866.99        73.49915
867.39        73.40932
867.79        73.16887
868.19        72.88277
868.60        72.68795
869.00         72.6045
869.40        72.63726
869.80        72.71414
870.21        72.69709
870.61        72.63087
871.01        72.51508
871.41        72.41924
871.81        72.43818
872.22         72.5626
872.62        72.77626
873.02        73.05557
873.42        73.34074
873.82        73.58947
874.22        73.82375
874.63        74.01203
875.03        74.08203
875.43        74.05077
875.83        73.92649
876.23          73.819
876.63        73.92125
877.03        74.25357
877.44        74.72536
877.84        75.18048
878.24        75.32291
878.64        75.08394
879.04        74.58794
879.44        73.96298
879.84        73.37203
880.24        72.88542
880.64        72.48125
881.04        72.20685
881.44        72.14474
881.84        72.29928
882.24        72.62785
882.65        73.04542
883.05        73.49617
883.45        73.87498
883.85        74.18729
884.25        74.34283
884.65        74.22616
885.05        73.85101
885.45        73.25849
885.85        72.65218
886.25        72.39542
886.65        72.57218
887.05        73.06636
887.45        73.66001
887.85        74.00387
888.25        74.00414
888.65        73.77529
889.04        73.39728
889.44        73.05312
889.84        72.79911
890.24        72.56696
890.64        72.40908
891.04        72.41835
891.44        72.59349
891.84        72.93156
892.24        73.26991
892.64        73.33484
893.04        73.08399
893.44        72.59725
893.83        72.12164
894.23        71.99374
894.63        72.31486
895.03        72.96423
895.43        73.70998
895.83        74.17097
896.23        74.24182
896.63        74.04147
897.02        73.73296
897.42        73.59971
897.82        73.69958
898.22        73.95399
898.62        74.25376
899.01        74.43774
899.41         74.4339
899.81        74.30306
900.21        74.14967
900.61        74.13562
901.00        74.28539
901.40         74.5593
901.80        74.80722
902.20        74.81319
902.59        74.54541
902.99        74.06012
903.39        73.53839
903.79        73.26182
904.18        73.29435
904.58        73.55641
904.98        73.87576
905.38        74.00253
905.77        73.87115
906.17        73.56464
906.57        73.20963
906.96        73.04195
907.36        73.10645
907.76         73.3549
908.15          73.666
908.55        73.76537
908.95        73.62483
909.34        73.30785
909.74        73.01902
910.14        73.01653
910.53         73.3537
910.93        73.90923
911.33        74.49986
911.72        74.81956
912.12          74.766
912.52        74.46777
912.91        74.03657
913.31        73.65667
913.70        73.37852
914.10        73.13364
914.49        72.96629
914.89        72.89777
915.29        72.94651
915.68        73.11847
916.08        73.32457
916.47        73.40456
916.87        73.34151
917.26        73.15161
917.66        72.95348
918.05        72.90495
918.45        73.03558
918.84        73.32462
919.24        73.64138
919.64        73.85599
920.03         73.9447
920.42        73.93651
920.82        73.92633
921.21        74.05356
921.61        74.32991
922.00        74.71404
922.40          75.111
922.79        75.43578
923.19        75.61112
923.58        75.71355
923.98        75.70129
924.37        75.57378
924.77        75.33142
925.16        74.94166
925.55        74.55476
925.95        74.42301
926.34        74.59875
926.74        75.03164
927.13        75.47504
927.52        75.42296
927.92        74.83008
928.31         73.8492
928.70        72.91479
929.10        72.68956
929.49        73.30207
929.89        74.50555
930.28        75.91953
930.67        76.74332
931.07         76.7038
931.46         76.0565
931.85        75.09187
932.24        74.30756
932.64        73.87508
933.03        73.66162
933.42        73.58739
933.82        73.52538
934.21        73.44076
934.60        73.41637
934.99          73.495
935.39         73.6926
935.78        74.02757
936.17        74.42622
936.56        74.82422
936.96        75.12366
937.35        75.32816
937.74        75.43457
938.13        75.42214
938.53        75.26815
938.92        74.99605
939.31        74.60751
939.70        74.23714
940.09        74.11646
940.49        74.27155
940.88        74.67525
941.27        75.11985
941.66         75.2856
942.05        75.10808
942.44        74.68594
942.84        74.21639
943.23         73.9725
943.62        74.05834
944.01        74.37844
944.40         74.7936
944.79        75.05704
945.18        75.07933
945.57        74.93646
945.97        74.68222
946.36        74.46587
946.75        74.29845
947.14        74.13414
947.53        73.96543
947.92        73.79221
948.31        73.62075
948.70        73.48353
949.09        73.37035
949.48        73.24628
949.87        73.11563
950.26        72.99373
950.65        72.93312
951.04        73.01929
951.43        73.26151
951.82        73.61754
952.21        74.01022
952.60        74.31026
952.99        74.45583
953.38        74.45718
953.77        74.33847
954.16        74.14649
954.55        73.90094
954.94        73.59595
955.33        73.22038
955.72        72.76106
956.11        72.22673
956.50        71.63586
956.89         71.0658
957.28        70.63354
957.66        70.40913
958.05        70.37746
958.44        70.43932
958.83        70.41415
959.22         70.2575
959.61        69.98524
960.00        69.76695
960.39        69.88171
960.78        70.35835
961.16        71.12531
961.55         71.8269
961.94        71.96104
962.33        71.42511
962.72        70.43929
963.11        69.37188
963.49        68.75989
963.88        68.74096
964.27        69.15016
964.66        69.84595
965.04        70.57568
965.43        71.11856
965.82        71.58717
966.21        71.92049
966.60        72.04421
966.98        71.96896
967.37        71.61945
967.76        71.15537
968.15         70.8929
968.53         70.9357
968.92        71.23057
969.31        71.54537
969.69        71.46932
970.08        70.94926
970.47        70.18336
970.86        69.51862
971.24        69.56622
971.63        70.37668
972.02         71.6442
972.40        73.13794
972.79        74.44732
973.17        75.52101
973.56        76.40376
973.95        76.92908
974.33         76.7589
974.72        75.85246
975.11         74.2925
975.49        72.52826
975.88        71.37316
976.26        71.08759
976.65        71.52924
977.04        72.29896
977.42        72.63202
977.81         72.2334
978.19        71.26455
978.58        70.22308
978.96         69.9182
979.35        70.53252
979.74        71.84064
980.12        73.23272
980.51        73.53517
980.89        72.60656
981.28        70.68461
981.66        68.61388
982.05        67.94816
982.43        69.08921
982.82        71.49881
983.20        74.23347
983.59        75.69215
983.97        75.58177
984.35        74.31467
984.74        72.55657
985.12        71.49551
985.51        71.50234
985.89        72.16834
986.28         73.0867
986.66        73.77293
987.04        74.03757
987.43        74.07071
987.81        73.91869
988.20        73.52438
988.58        72.99361
988.96        72.32893
989.35        71.60769
989.73        71.07079
990.12        70.73824
990.50        70.53288
990.88        70.56223
991.27        70.97237
991.65        71.69111
992.03        72.64528
992.42        73.30466
992.80        73.27176
993.18        72.38364
993.56        70.65707
993.95        68.62901
994.33        67.60508
994.71        68.21778
995.10        69.83965
995.48        71.61501
995.86        72.55511
996.24        72.56149
996.63        71.85174
997.01        70.84348
997.39        70.34762
997.77         70.7113
998.15        71.66785
998.54         72.6278
998.92        72.82533
999.30        72.11291
999.68        70.72948
1000.06        69.28121
1000.45        68.82191
1000.83        69.68159
1001.21        71.39883
1001.59        73.24054
1001.97        74.14133
1002.35        73.87148
1002.73        72.81483
1003.12        71.29042
1003.50        69.92522
1003.88        69.16819
1004.26        68.72077
1004.64        68.84183
1005.02        69.89658
1005.40        71.81268
1005.78        74.60613
1006.16        77.27464
1006.54        77.94501
1006.92        76.17377
1007.30        72.42347
1007.69        68.34058
1008.07        66.67545
1008.45        68.13332
1008.83        71.78154
1009.21        75.88203
1009.59        77.90076
1009.97        77.16293
1010.35        74.23769
1010.73        69.98286
1011.11        66.80843
1011.49        66.08939
1011.86        67.21009
1012.24        69.24017
1012.62        71.11944
1013.00        72.48392
1013.38        73.81049
1013.76        74.94596
1014.14        75.51527
1014.52        75.49568
1014.90          74.797
1015.28        74.00673
1015.66        74.37627
1016.04        76.18329
1016.41        79.10866
1016.79        81.96463
1017.17        83.37589
1017.55        83.07452
1017.93        81.52208
1018.31        79.53083
1018.69        78.37054
1019.06         78.4434
1019.44        79.40781
1019.82        80.72828
1020.20        81.26964
1020.58        80.65738
1020.95        79.35654
1021.33        77.91369
1021.71        76.89584
1022.09        76.36352
1022.46        75.93793
1022.84        75.58067
1023.22        75.11939
1023.60        74.45113
1023.97        73.62291
1024.35        72.42613
1024.73        69.97051
