SpectraSmart Spectrum 2.9.0.0
--------- Device Information -----------
Spectrum Name :  反射率_0
Saving Time :  2024/04/27 23:40:03
Spectro-Module Model Name : SE2030-DUVN
Spectro-Module Serial Number : OS361AC55029948
Wavelength Start : 200
Wavelength End : 1025
Wavelength Unit : Wavelength(nm)
Spectrum Unit : Reflectance(%)
-----------Spectrum Setting ------------
Integration Time : 20ms
Average : 10
Boxcar : 0
Background removal :  enabled
linearity correction :  enabled
SC :  disabled
Intensity correction :  disabled
DWT denoise :  enabled
savitzky-golay :  disabled
FFT :  disabled
Running average :  disabled
Kalman :  disabled
High pass :  disabled
---------------BEGIN--------------------
Wavelength(nm)             Reflectance(%)
200.29               0
200.75        12.11395
201.21         15.5377
201.67        24.80482
202.13        34.50614
202.58        44.26105
203.04        54.79239
203.50        66.46047
203.96        77.94022
204.42        87.39964
204.88        94.72015
205.34        99.44742
205.80        101.5244
206.26        101.2261
206.72        97.73616
207.18        90.09993
207.64        81.92375
208.10         78.8755
208.55        80.68635
209.01        81.61565
209.47        77.88041
209.93        66.86366
210.39        38.01591
210.85       -50.54856
211.31       -165.7834
211.77       -44.05139
212.23        40.17701
212.69        70.25616
213.14        78.92117
213.60        77.13161
214.06        67.65999
214.52        47.76912
214.98        28.05087
215.44        26.33241
215.90        33.54801
216.36        41.82648
216.81        48.49496
217.27        53.69269
217.73        59.20293
218.19        63.50898
218.65        63.14055
219.11         57.2068
219.57        46.03204
220.02        31.97444
220.48        23.64294
220.94           24.22
221.40        30.43904
221.86        38.94893
222.32        46.22567
222.77        51.44062
223.23        55.53334
223.69        57.76204
224.15        57.03664
224.61         53.6838
225.06        47.82092
225.52        41.87202
225.98        40.34606
226.44        43.36599
226.90        48.06388
227.36        51.92327
227.81        53.00914
228.27        51.43082
228.73        47.92144
229.19        42.87482
229.65        37.44083
230.10        32.58059
230.56        28.61521
231.02        25.75715
231.48         24.2305
231.93         23.8708
232.39        24.58121
232.85        26.26767
233.31        28.73428
233.77        31.66604
234.22        34.97969
234.68        37.79152
235.14        39.15948
235.60        39.01145
236.05        37.39597
236.51        35.49844
236.97        35.83175
237.43        39.20531
237.88        44.95772
238.34        50.81824
238.80          54.616
239.26        56.02336
239.71        55.25305
240.17         52.6757
240.63        51.99801
241.08        55.84631
241.54        60.82962
242.00        64.66054
242.46        67.05148
242.91         68.7916
243.37        70.75342
243.83        73.42324
244.28        74.54994
244.74        69.92542
245.20        62.82641
245.66        57.98958
246.11        55.09333
246.57        52.59514
247.03        50.30543
247.48         48.9697
247.94         52.2335
248.40        60.66884
248.85        70.38347
249.31        77.65513
249.77        80.42591
250.22        79.94033
250.68        77.68761
251.14        75.21588
251.59        73.76466
252.05        73.37816
252.51        73.42725
252.96        73.38236
253.42        72.86781
253.88        71.70807
254.33        71.03956
254.79        70.76785
255.25        69.87731
255.70        68.41651
256.16        67.06712
256.62         66.8348
257.07        68.80991
257.53        72.38113
257.99        75.94595
258.44        77.96139
258.90        77.62865
259.35        75.05459
259.81        71.63427
260.27        68.08891
260.72        65.32481
261.18         63.7833
261.63        62.72124
262.09        61.99949
262.55        61.03024
263.00        59.67196
263.46        58.29771
263.91        56.93335
264.37        55.98443
264.83        55.39225
265.28        54.94635
265.74        54.57003
266.19        53.95392
266.65        53.11768
267.11        52.08796
267.56        50.89963
268.02        49.71737
268.47        48.55119
268.93        47.39622
269.38        46.24293
269.84        45.10828
270.30        43.99861
270.75        42.93763
271.21        41.93277
271.66        40.92901
272.12        39.94276
272.57        38.94729
273.03        38.01731
273.48        37.18381
273.94        36.50202
274.39        35.91331
274.85        35.38636
275.31        34.79731
275.76        34.10425
276.22        33.36411
276.67         32.6225
277.13        32.04413
277.58        31.59759
278.04        31.28933
278.49        30.94613
278.95        30.43129
279.40        29.68783
279.86        28.84213
280.31        28.03534
280.77        27.58804
281.22        27.49202
281.68        27.67044
282.13        27.89133
282.59        27.88383
283.04        27.58721
283.50        27.12029
283.95        26.63742
284.41        26.41095
284.86        26.47839
285.32         26.7586
285.77        27.09699
286.22        27.31545
286.68         27.3883
287.13        27.34366
287.59        27.29593
288.04        27.33644
288.50        27.51468
288.95        27.75512
289.41        28.00732
289.86        28.15203
290.32         28.1964
290.77        28.18695
291.22        28.20717
291.68        28.36485
292.13        28.69259
292.59        29.19696
293.04        29.85373
293.50        30.64629
293.95        31.55661
294.40        32.60035
294.86        33.80196
295.31        35.18794
295.77         36.7566
296.22        38.46104
296.68        40.23391
297.13        41.94125
297.58        43.54163
298.04        45.05984
298.49        46.53996
298.95        48.10644
299.40        49.79389
299.85        51.58857
300.31        53.48476
300.76        55.40417
301.21        57.31724
301.67        59.24842
302.12        61.14766
302.58        63.03423
303.03        64.87772
303.48        66.69876
303.94        68.55412
304.39        70.44268
304.84        72.39449
305.30        74.41021
305.75        76.41355
306.20        78.38557
306.66        80.32785
307.11        82.18686
307.57        83.99263
308.02        85.66646
308.47        87.21471
308.93        88.65729
309.38        89.95766
309.83        91.17002
310.29        92.33672
310.74        93.43361
311.19        94.49493
311.65        95.54121
312.10        96.54004
312.55        97.49383
313.00        98.39342
313.46        99.23313
313.91        99.99456
314.36        100.6918
314.82        101.3154
315.27        101.8465
315.72        102.2863
316.18        102.6599
316.63        102.9774
317.08        103.2947
317.53        103.6305
317.99        103.9693
318.44        104.3174
318.89        104.6543
319.35        104.9712
319.80        105.2865
320.25        105.5863
320.70         105.855
321.16        106.0818
321.61         106.286
322.06        106.4923
322.51        106.7541
322.97        107.0626
323.42        107.4346
323.87        107.8068
324.32        108.0961
324.78        108.2669
325.23         108.384
325.68        108.4773
326.13        108.6268
326.59        108.8319
327.04        109.1167
327.49        109.4417
327.94        109.7787
328.39        110.1133
328.85        110.4216
329.30        110.7573
329.75        111.0463
330.20        111.2787
330.66        111.4304
331.11        111.6002
331.56        111.8313
332.01        112.1495
332.46        112.5429
332.92         112.931
333.37        113.3278
333.82        113.6642
334.27        113.9558
334.72        114.2406
335.17        114.5839
335.63        114.9755
336.08        115.4502
336.53        115.9398
336.98        116.3768
337.43        116.7486
337.88        117.0867
338.34        117.4137
338.79        117.8249
339.24        118.3177
339.69        118.8534
340.14        119.4199
340.59        119.9991
341.05        120.5729
341.50        121.1615
341.95        121.6888
342.40        122.0515
342.85        122.2473
343.30        122.3025
343.75        122.3657
344.20        122.6785
344.66        123.2852
345.11        124.1024
345.56        124.9325
346.01        125.4517
346.46        125.5893
346.91        125.4544
347.36          125.23
347.81        125.1996
348.26        125.4325
348.72        125.8302
349.17        126.2736
349.62        126.6001
350.07        126.7472
350.52        126.7716
350.97        126.6977
351.42        126.5562
351.87        126.3747
352.32        126.1488
352.77        125.8985
353.22        125.6643
353.67         125.449
354.13        125.2435
354.58        125.0222
355.03        124.8046
355.48        124.5714
355.93        124.3129
356.38        123.9448
356.83        123.3353
357.28        122.4849
357.73         121.467
358.18        120.4171
358.63        119.5399
359.08        118.8936
359.53         118.421
359.98        118.0605
360.43        117.7109
360.88        117.3151
361.33        116.8756
361.78        116.3697
362.23        115.7593
362.68         115.036
363.13        114.2205
363.58        113.3125
364.03        112.2636
364.48        111.1985
364.93        110.0729
365.38        108.9949
365.83        108.0766
366.28         107.341
366.73        106.7569
367.18        106.2483
367.63        105.6885
368.08         105.036
368.53        104.3162
368.98        103.5637
369.43        102.8416
369.88         102.166
370.33        101.5111
370.78        100.8514
371.23         100.151
371.68        99.40426
372.13        98.63316
372.58        97.86797
373.03        97.15504
373.48        96.50829
373.93        95.91103
374.38        95.34759
374.83        94.78818
375.28        94.21953
375.72        93.63667
376.17        93.05852
376.62        92.44413
377.07        91.79562
377.52        91.11358
377.97        90.45351
378.42        89.90768
378.87        89.48548
379.32        89.15751
379.77         88.8362
380.22        88.37959
380.67        87.76302
381.11        87.04442
381.56         86.3047
382.01        85.69327
382.46        85.26236
382.91        84.96597
383.36        84.76733
383.81        84.60411
384.26        84.44202
384.71        84.29687
385.15        84.11813
385.60        83.88528
386.05        83.57497
386.50        83.19058
386.95        82.78638
387.40        82.46101
387.85        82.23441
388.29        82.02649
388.74        81.86678
389.19        81.60684
389.64        81.21427
390.09        80.70235
390.54         80.1422
390.98        79.63512
391.43         79.2745
391.88        79.03656
392.33        78.81145
392.78          78.516
393.23        78.16807
393.67        77.56573
394.12        76.94855
394.57        77.15729
395.02        77.45429
395.47        77.32069
395.91        76.64796
396.36        76.35856
396.81        76.50007
397.26        76.57041
397.71        76.45862
398.15        76.24715
398.60        76.01821
399.05         75.5062
399.50         74.9221
399.95        75.00639
400.39        75.58847
400.84        75.54266
401.29        74.87316
401.74        74.43036
402.18        74.32212
402.63        74.23754
403.08        74.14117
403.53        73.98135
403.97         73.7606
404.42        73.62027
404.87        73.54341
405.32        73.49125
405.76        73.44658
406.21          73.259
406.66        73.00206
407.11        73.12887
407.55        73.47015
408.00        73.25386
408.45        72.53019
408.90         71.6772
409.34        71.02871
409.79        71.28561
410.24        72.18658
410.68        72.52871
411.13        72.19356
411.58        71.89075
412.03        71.75636
412.47        71.69844
412.92        71.73479
413.37        71.89542
413.81        72.06801
414.26        72.14589
414.71        72.08332
415.15        71.93047
415.60         71.7262
416.05        71.60463
416.49        71.60796
416.94        71.68334
417.39         71.7737
417.83        71.79045
418.28        71.70316
418.73        71.52745
419.17        71.32743
419.62        71.20834
420.07        71.20846
420.51        71.30007
420.96        71.40698
421.41        71.42397
421.85        71.31322
422.30        70.97994
422.74        70.58939
423.19        70.86644
423.64        71.63925
424.08        71.94352
424.53        71.68027
424.98        71.42111
425.42        71.79752
425.87         71.6268
426.31        71.20072
426.76        71.31742
427.21        71.84887
427.65        71.81955
428.10        71.32132
428.54        71.21626
428.99        71.55009
429.44         72.0517
429.88         72.4614
430.33        72.16083
430.77        71.31534
431.22        71.03695
431.66        71.34911
432.11        71.47061
432.56        71.48794
433.00        72.00592
433.45        72.59617
433.89        72.70657
434.34        72.59044
434.78        70.62036
435.23        71.23707
435.67        71.70723
436.12        73.15142
436.57        73.34586
437.01        72.51649
437.46        72.23445
437.90        73.03925
438.35        73.20052
438.79        73.13472
439.24        73.00252
439.68        72.96511
440.13        72.82906
440.57        72.68951
441.02        73.03664
441.46        73.62659
441.91        73.56278
442.35        72.92527
442.80        72.78869
443.24        73.09834
443.69        73.20866
444.13        73.08527
444.58        73.09801
445.02        73.22052
445.47        73.33199
445.91        73.41993
446.36         73.5202
446.80        73.60499
447.24        73.74754
447.69        73.77361
448.13        73.84811
448.58        73.89539
449.02        73.76815
449.47        73.55209
449.91        73.47837
450.36         73.5918
450.80        73.74918
451.25        73.90047
451.69        73.99522
452.13        73.99466
452.58        73.85205
453.02        73.62454
453.47        73.44347
453.91        73.33646
454.36        73.37044
454.80        73.41771
455.24        73.18016
455.69        72.79726
456.13        72.43919
456.58        72.25758
457.02        72.71857
457.46        73.41697
457.91        73.12758
458.35        72.24464
458.79        71.80684
459.24        71.96373
459.68        71.96896
460.13        71.80124
460.57        71.62603
461.01        71.80758
461.46        71.40321
461.90        71.36428
462.34        71.53867
462.79        71.86324
463.23        71.67923
463.68        71.05461
464.12        70.68303
464.56        70.67937
465.01        71.03328
465.45        71.40005
465.89        71.32127
466.34        70.88866
466.78         70.2477
467.22        69.57645
467.67        70.21543
468.11        70.33055
468.55        70.45889
468.99        70.08784
469.44        70.03383
469.88        70.28801
470.32        70.33833
470.77         70.1946
471.21        70.11483
471.65        70.11629
472.10        70.14501
472.54        70.11151
472.98        69.98913
473.42        69.78873
473.87        69.36252
474.31        68.85818
474.75        69.03397
475.20        69.69415
475.64        69.71847
476.08        69.11163
476.52        68.91862
476.97        69.17329
477.41        69.17781
477.85        68.46803
478.29        69.13715
478.74        69.23186
479.18        68.63889
479.62        68.99728
480.06        68.86632
480.50        68.87206
480.95         68.9034
481.39        68.94609
481.83         68.7562
482.27        68.84567
482.72        68.63545
483.16        68.64867
483.60        68.56632
484.04        68.47113
484.48        68.43418
484.93        68.62557
485.37        68.46024
485.81        68.80921
486.25        69.19143
486.69        69.05354
487.14        68.42168
487.58        68.31752
488.02        68.83691
488.46        68.72295
488.90         69.0066
489.34        68.12836
489.79        68.21696
490.23        68.04853
490.67        67.90652
491.11        67.57735
491.55        67.47282
491.99        67.59252
492.43        67.65981
492.88        67.66611
493.32        67.75925
493.76        67.90442
494.20        68.05497
494.64         68.2111
495.08        68.24916
495.52          68.216
495.96        68.45317
496.41        68.81709
496.85        68.66445
497.29        68.10471
497.73        67.70054
498.17        67.73055
498.61        67.93151
499.05        68.19408
499.49        68.05641
499.93        67.60915
500.37        67.37333
500.82        67.36636
501.26        67.46919
501.70        67.79127
502.14        67.22345
502.58        68.09734
503.02        68.25944
503.46        68.10191
503.90        67.92014
504.34        67.71378
504.78        67.60437
505.22        67.58797
505.66        67.52682
506.10        67.43519
506.54        67.49001
506.98        67.69693
507.42        67.71735
507.86        68.04435
508.30        67.96612
508.74        67.98584
509.18        67.81824
509.62        67.62779
510.06          67.494
510.50        67.44253
510.94        67.44985
511.38        67.48888
511.82        67.52396
512.26        67.53691
512.70        67.54242
513.14        67.53975
513.58        67.50285
514.02        67.43098
514.46        67.36993
514.90        67.34088
515.34        67.18423
515.78        67.22959
516.22        67.21414
516.66         67.2401
517.10        67.30741
517.54        67.41067
517.98        67.53652
518.42        67.65154
518.86        67.71142
519.30        67.70456
519.74        67.64556
520.18        67.55585
520.62        67.47091
521.06        67.40662
521.50        67.35687
521.93        67.33072
522.37        67.32723
522.81        67.34747
523.25        67.38612
523.69        67.42706
524.13        67.44285
524.57        67.42565
525.01        67.38335
525.45        67.31775
525.89        67.23376
526.32        67.13357
526.76        67.03245
527.20        66.94695
527.64        66.91053
528.08        66.92822
528.52        66.98863
528.96        67.06886
529.40        67.13099
529.83        67.15681
530.27        67.16747
530.71        67.16162
531.15        67.14864
531.59        67.13377
532.03        67.11276
532.46        67.08706
532.90        67.08295
533.34        67.09634
533.78         67.1209
534.22        67.14384
534.66        67.14437
535.09        67.10948
535.53        67.06641
535.97        67.00954
536.41         66.9452
536.85        66.88052
537.28        66.81985
537.72        66.77525
538.16          66.757
538.60        66.76734
539.04        66.81152
539.47        66.86027
539.91        66.90644
540.35        66.92677
540.79        66.94033
541.22        66.92808
541.66        66.87013
542.10        66.76691
542.54        66.62571
542.97        66.48777
543.41        66.45506
543.85        66.52798
544.29        66.68314
544.72        66.83687
545.16        66.89099
545.60        66.80782
546.04        66.61733
546.47        66.39669
546.91        66.27277
547.35        66.26703
547.79         66.3698
548.22        66.49243
548.66        66.46391
549.10        66.30239
549.53        66.28781
549.97        66.42394
550.41        66.47827
550.84        66.43903
551.28        66.47445
551.72        66.57267
552.15        66.55678
552.59        66.41988
553.03        66.49557
553.46        66.29928
553.90        66.27425
554.34        66.39459
554.77        66.55087
555.21        66.69588
555.65        66.72247
556.08        66.54515
556.52        66.31984
556.96        66.10053
557.39        66.09295
557.83        66.27168
558.27        66.29681
558.70        66.16688
559.14         66.1608
559.57        66.26021
560.01        66.31378
560.45        66.29867
560.88        66.27821
561.32         66.3029
561.75        66.27045
562.19         66.2133
562.63        66.27112
563.06        66.38644
563.50        66.21462
563.93        65.83511
564.37        65.83772
564.80        66.14069
565.24        66.20369
565.68        66.02857
566.11        66.00113
566.55        66.15151
566.98         66.2482
567.42        66.26736
567.85        66.26971
568.29        66.29771
568.72        66.11012
569.16        65.76062
569.60        65.94671
570.03        66.18388
570.47        65.97613
570.90        65.90257
571.34        66.79486
571.77         66.2516
572.21         66.1084
572.64        66.20917
573.08        65.87923
573.51        65.99243
573.95        66.31419
574.38         66.3679
574.82        65.95372
575.25        66.18896
575.69        66.09577
576.12        66.02755
576.56        65.95444
576.99        66.12184
577.42        65.94779
577.86        66.14643
578.29        66.27005
578.73        65.91325
579.16         65.9735
579.60        66.12943
580.03        66.22457
580.47        66.14986
580.90         65.9919
581.33        66.31751
581.77        66.51295
582.20        65.87379
582.64        66.20907
583.07        66.04273
583.51        66.05848
583.94        66.07512
584.37        66.15072
584.81         66.0921
585.24        66.06374
585.68        66.15434
586.11        65.86491
586.54        66.18115
586.98        66.15437
587.41        65.84684
587.85        65.67789
588.28        66.00049
588.71        65.73796
589.15        66.02791
589.58        65.98147
590.01        66.12747
590.45        66.38706
590.88        65.46152
591.31         65.4212
591.75        65.77119
592.18        65.83763
592.61        65.77937
593.05        65.74471
593.48        66.36927
593.91        65.95683
594.35        65.92673
594.78        65.98993
595.21        66.10547
595.65         65.9438
596.08        65.45129
596.51        65.80632
596.94        65.66588
597.38         65.8081
597.81        65.89036
598.24        65.56059
598.68        65.58446
599.11        65.84552
599.54        65.62099
599.97        65.85713
600.41        65.85303
600.84        65.85073
601.27         65.6836
601.70        65.61485
602.14        65.06058
602.57        65.38895
603.00        65.56515
603.43        65.93786
603.87        65.63262
604.30         65.3288
604.73         65.3433
605.16        65.67766
605.60         65.6644
606.03        65.82668
606.46        65.91367
606.89        65.73698
607.32        65.93783
607.76        65.98679
608.19        65.88258
608.62        65.82081
609.05        65.76851
609.48        65.77087
609.92        65.46995
610.35        65.70809
610.78        65.53478
611.21        65.49634
611.64        65.61549
612.07        65.55077
612.50        65.38622
612.94        65.37163
613.37        65.59118
613.80        65.26625
614.23        65.55403
614.66        65.60265
615.09        65.67753
615.52        65.76791
615.96        65.93251
616.39         65.4669
616.82        65.50471
617.25        65.76128
617.68        65.51482
618.11        65.28109
618.54        64.93125
618.97        65.06507
619.40        65.51946
619.84        66.00204
620.27        65.74403
620.70         65.5936
621.13        65.30326
621.56        65.62044
621.99        65.31551
622.42        65.02563
622.85        64.98069
623.28         65.5257
623.71        65.28632
624.14        65.03636
624.57        65.24079
625.00        65.70322
625.43        65.24773
625.86        65.38573
626.29        65.72057
626.72        65.29858
627.15        65.43842
627.58        65.20448
628.01        65.11268
628.44        64.95719
628.87        64.98351
629.30        65.43541
629.73        65.31042
630.16        65.14864
630.59        65.27289
631.02        65.29417
631.45        65.36366
631.88        65.33778
632.31        65.22816
632.74        65.08685
633.17        65.00245
633.60         64.9585
634.03        64.98067
634.46        65.06232
634.89        65.17236
635.32        65.24211
635.75        65.25085
636.18        65.24998
636.61        65.24237
637.04        65.15868
637.47        65.04332
637.89        65.07175
638.32        65.20547
638.75        65.27041
639.18        65.25112
639.61        65.25018
640.04        65.26113
640.47        65.23966
640.90        65.18803
641.33        65.09331
641.76        64.95837
642.18        64.95118
642.61        64.82189
643.04         64.7696
643.47        64.72765
643.90        64.71133
644.33        64.71819
644.76        64.74931
645.18        64.78802
645.61        64.79204
646.04        64.75426
646.47        64.67944
646.90        64.59978
647.33        64.56522
647.75        64.59238
648.18        64.68587
648.61        64.79569
649.04        64.83318
649.47        64.79558
649.89        64.69308
650.32        64.59128
650.75        64.67943
651.18        64.90385
651.61        64.96716
652.03         64.7905
652.46        64.60059
652.89        64.59154
653.32        64.39668
653.74        64.23844
654.17        65.43146
654.60        64.83087
655.03        64.54843
655.46        64.84737
655.88        65.40627
656.31        66.04067
656.74        66.20979
657.16        65.14922
657.59        65.33657
658.02        64.94868
658.45        65.33015
658.87        65.50297
659.30        64.88628
659.73          64.867
660.15        65.12663
660.58         64.8433
661.01        64.93848
661.44        65.00832
661.86        65.03656
662.29        64.98926
662.72        64.88336
663.14        64.78895
663.57        64.84005
664.00        65.00618
664.42        65.04498
664.85        64.94684
665.27        64.85071
665.70        64.77907
666.13        64.71317
666.55        64.66517
666.98        64.62943
667.41        64.60963
667.83        64.61127
668.26        64.62567
668.69        64.66346
669.11        64.69987
669.54        64.70974
669.96        64.69836
670.39        64.59325
670.82        64.46016
671.24        64.56721
671.67        64.84332
672.09        64.88197
672.52         64.7224
672.94        64.65276
673.37        64.72478
673.80         64.8823
674.22        65.07856
674.65        65.14256
675.07        65.06798
675.50        64.94399
675.92        64.81885
676.35         64.7103
676.77        64.64321
677.20        64.61684
677.62         64.6245
678.05        64.63179
678.47        64.62971
678.90        64.64227
679.32        64.66615
679.75        64.69743
680.17        64.73149
680.60        64.79319
681.02        64.86546
681.45        64.85905
681.87        64.80936
682.30        64.80712
682.72         64.8622
683.15        64.96529
683.57        65.07326
684.00        64.98634
684.42        64.76097
684.85        64.69363
685.27        64.80523
685.70        64.90765
686.12        64.96323
686.54        65.10029
686.97         65.3032
687.39        65.21535
687.82        65.38246
688.24         65.3036
688.66        65.31239
689.09        65.24165
689.51        65.16782
689.94        65.08923
690.36        65.02021
690.78        64.95854
691.21        64.91286
691.63        64.90778
692.06        64.93481
692.48        64.94061
692.90        64.92928
693.33        64.93439
693.75        64.96124
694.17        64.99384
694.60        64.99638
695.02        64.98679
695.44        64.96266
695.87        64.82142
696.29        64.64333
696.71         64.7988
697.14        65.17396
697.56        65.18288
697.98         64.8601
698.41        64.79427
698.83         64.9799
699.25        65.10112
699.68        65.11855
700.10        65.17895
700.52        65.26762
700.94        65.34449
701.37        65.37245
701.79         65.3438
702.21        65.24422
702.64        65.04769
703.06        64.90178
703.48        64.81718
703.90        64.84834
704.33        64.96535
704.75        65.11879
705.17        65.20075
705.59        65.17808
706.01         65.0546
706.44         64.8966
706.86        64.90933
707.28        64.93125
707.70         65.1381
708.12        65.38579
708.55        65.36423
708.97         65.1161
709.39        65.06204
709.81        65.22388
710.23        65.29319
710.66        65.26382
711.08        65.35134
711.50        65.50202
711.92        65.54974
712.34        65.48136
712.76        65.34618
713.19        65.19807
713.61         65.1717
714.03        65.27537
714.45        65.46362
714.87        65.67317
715.29        65.80981
715.71        65.84712
716.13        65.81627
716.56        65.72812
716.98        65.67417
717.40        65.65784
717.82        65.66002
718.24        65.68715
718.66        65.75218
719.08        65.84808
719.50        65.96746
719.92        66.08042
720.34        66.13491
720.76        66.11835
721.19        66.03919
721.61        65.92786
722.03        65.80737
722.45        65.69495
722.87        65.58806
723.29        65.51002
723.71        65.49506
724.13        65.54889
724.55        65.66618
724.97        65.80989
725.39        65.91518
725.81        65.96284
726.23        65.96338
726.65        65.94857
727.07        65.97499
727.49        66.05309
727.91        66.15957
728.33          66.259
728.75        66.29423
729.17        66.25194
729.59        66.15719
730.01         66.0362
730.43        65.93121
730.85        65.85707
731.27        65.79742
731.69        65.76624
732.10        65.78487
732.52        65.84055
732.94        65.97922
733.36        66.15493
733.78        66.19306
734.20        66.05683
734.62        66.19677
735.04        65.72287
735.46        65.95019
735.88        66.44682
736.30        66.42124
736.72        65.91788
737.13        65.69031
737.55        65.78218
737.97        65.92854
738.39        66.05247
738.81        65.94403
739.23        65.67828
739.65        65.80171
740.06        66.21751
740.48        66.39552
740.90        66.28127
741.32        66.23992
741.74        66.21107
742.16         66.2073
742.57        66.21964
742.99        66.27279
743.41        66.34834
743.83         66.3657
744.25         66.3315
744.67        66.32318
745.08        66.37618
745.50        66.44137
745.92        66.53001
746.34        66.67143
746.75        66.79803
747.17        66.79388
747.59         66.6516
748.01        66.36606
748.42        66.04707
748.84        65.99208
749.26        66.18638
749.68        66.28616
750.09        66.26617
750.51        66.37804
750.93        66.57966
751.35        66.66257
751.76        66.62661
752.18        66.58027
752.60        66.53838
753.01        66.45957
753.43        66.35121
753.85        66.28812
754.27        66.28519
754.68          66.325
755.10        66.41058
755.52        66.53654
755.93        66.69861
756.35        66.90562
756.77        67.09967
757.18        67.22693
757.60        67.27855
758.02        67.13265
758.43        66.89014
758.85        66.98136
759.26        67.28257
759.68        67.27866
760.10        67.00295
760.51        66.43637
760.93        66.21024
761.34        66.50222
761.76        66.91903
762.18        67.28027
762.59        67.36291
763.01        67.21739
763.42         67.0012
763.84        66.87125
764.26        66.91631
764.67        67.17243
765.09        67.49539
765.50        67.32229
765.92        66.77326
766.33        66.51542
766.75        66.60116
767.16        66.66801
767.58        66.66195
768.00         67.0349
768.41        67.62698
768.83        67.58364
769.24        67.00905
769.66        66.81922
770.07        67.01092
770.49        67.00234
770.90        66.81563
771.32        66.84126
771.73        67.07619
772.15        67.24268
772.56        67.32599
772.97        67.47105
773.39         67.6245
773.80        67.59686
774.22        67.43113
774.63        67.52312
775.05        67.80671
775.46         67.9215
775.88         67.8129
776.29          67.734
776.70        67.71688
777.12        67.71198
777.53        67.75304
777.95        67.84663
778.36         67.9632
778.77        68.03154
779.19        68.02747
779.60        67.96717
780.02        67.90485
780.43        67.90387
780.84        67.95504
781.26        68.17274
781.67        68.49478
782.09        68.32912
782.50        67.76937
782.91        68.07079
783.33         68.2448
783.74         68.3849
784.15         68.1652
784.57        67.94683
784.98        67.82001
785.39         67.9134
785.81        68.17451
786.22         68.2439
786.63        68.12189
787.04        68.15318
787.46        68.34785
787.87        68.47319
788.28        68.52444
788.70        68.59608
789.11        68.66619
789.52        68.70284
789.93        68.71548
790.35        68.72609
790.76         68.7551
791.17        68.75636
791.58        68.72111
792.00        68.68389
792.41        68.66904
792.82        68.58645
793.23        68.51482
793.65        68.68163
794.06        69.05235
794.47        69.37414
794.88         69.5509
795.29         69.4338
795.71          69.435
796.12        69.05582
796.53        68.56115
796.94         68.4785
797.35        68.80945
797.76         69.0003
798.18        68.99342
798.59        69.10712
799.00        69.32353
799.41        69.41016
799.82        69.38244
800.23        69.40836
800.64        69.50008
801.06        69.57478
801.47        69.63719
801.88        69.62547
802.29        69.53191
802.70        69.39545
803.11        69.23599
803.52        69.07466
803.93        68.92858
804.34        68.79324
804.75        68.71654
805.17        68.74274
805.58         68.8979
805.99         69.1993
806.40        69.54098
806.81        69.60637
807.22        69.41251
807.63        69.30096
808.04         69.3264
808.45         69.3141
808.86         69.2776
809.27        69.35997
809.68        69.51379
810.09        69.56696
810.50        69.49416
810.91        69.35334
811.32        69.19859
811.73        69.12826
812.14        69.17094
812.55        69.24898
812.96        69.33221
813.37        69.47626
813.78        69.61267
814.19        69.52895
814.60        69.28435
815.01        69.16891
815.42        69.21474
815.83        69.26959
816.24        69.32674
816.65        69.44654
817.05        69.61732
817.46        69.77454
817.87        69.91387
818.28        69.98177
818.69        69.96778
819.10         69.8946
819.51        69.76957
819.92        69.61026
820.33        69.44616
820.74        69.28584
821.14        69.17993
821.55        69.23766
821.96        69.45049
822.37        69.78642
822.78        70.16423
823.19        70.42912
823.60        70.52341
824.00        70.50487
824.41        70.36273
824.82        70.17735
825.23        69.98988
825.64        69.79224
826.04        69.66373
826.45         69.6979
826.86        69.91605
827.27        70.28874
827.68        70.71436
828.08        71.04484
828.49        71.15594
828.90        71.11054
829.31         70.9605
829.72        70.80904
830.12        70.71485
830.53        70.60732
830.94         70.4816
831.35        70.29668
831.75        70.07136
832.16        69.79933
832.57        69.55214
832.97        69.40326
833.38        69.37251
833.79        69.44668
834.20        69.58646
834.60        69.72951
835.01        69.86593
835.42        69.99456
835.82        70.14911
836.23         70.3145
836.64        70.50639
837.04        70.72862
837.45        70.89732
837.86        70.98103
838.26        70.98238
838.67        70.90248
839.08        70.79937
839.48        70.75117
839.89        70.77941
840.29        70.85977
840.70        70.96226
841.11        71.03786
841.51        71.08788
841.92        71.09724
842.33        71.07386
842.73        71.02482
843.14        70.91184
843.54        70.75842
843.95        70.60441
844.35        70.53534
844.76        70.55589
845.17        70.64554
845.57        70.74628
845.98        70.72012
846.38        70.56303
846.79        70.30199
847.19        70.01748
847.60        69.79523
848.00        69.69028
848.41        69.63873
848.81        69.66692
849.22        69.74261
849.62        69.87952
850.03        70.06413
850.43        70.24065
850.84        70.23974
851.24        70.07546
851.65        69.71545
852.05        69.35963
852.46        69.28092
852.86          69.531
853.27        70.02387
853.67         70.4584
854.07        70.58785
854.48        70.33351
854.88        69.82175
855.29        69.14318
855.69        68.68102
856.10        68.48792
856.50        68.53505
856.90        68.70847
857.31        68.84612
857.71        68.93614
858.12        68.99332
858.52         69.0465
858.92         69.0088
859.33        68.86767
859.73         68.6581
860.13        68.46468
860.54        68.47586
860.94        68.75842
861.34        69.21264
861.75        69.66943
862.15         69.9261
862.55        69.89828
862.96        69.67239
863.36        69.30742
863.76        68.89902
864.17        68.49964
864.57         68.0965
864.97        67.77763
865.38        67.66143
865.78        67.80264
866.18        68.16454
866.58        68.56474
866.99        68.67533
867.39        68.44554
867.79        67.94609
868.19        67.39782
868.60        67.10287
869.00        67.12287
869.40        67.39514
869.80        67.78937
870.21        68.06541
870.61        68.19688
871.01        68.19254
871.41        68.12705
871.81        68.10494
872.22        68.13213
872.62        68.20122
873.02         68.2725
873.42        68.27439
873.82        68.20247
874.22        68.11059
874.63        68.08099
875.03        68.20289
875.43        68.49149
875.83        68.88751
876.23         69.3364
876.63        69.75082
877.03        70.07101
877.44         70.2933
877.84        70.36137
878.24        70.16741
878.64        69.72609
879.04         69.1083
879.44        68.46202
879.84        67.98125
880.24        67.71349
880.64        67.62453
881.04        67.66181
881.44        67.72176
881.84        67.75935
882.24        67.78604
882.65        67.79873
883.05        67.89205
883.45        68.03282
883.85        68.19563
884.25        68.30366
884.65        68.25732
885.05        68.04602
885.45        67.69374
885.85        67.33886
886.25        67.21708
886.65        67.38593
887.05         67.7906
887.45        68.22663
887.85        68.37637
888.25         68.1738
888.65        67.69999
889.04        67.18372
889.44        67.05325
889.84        67.37765
890.24        68.01562
890.64        68.67756
891.04        68.91174
891.44        68.62052
891.84        67.96751
892.24        67.20905
892.64        66.74072
893.04        66.68002
893.44        66.91286
893.83        67.31599
894.23        67.62493
894.63        67.78016
895.03        67.84742
895.43         67.8975
895.83        68.03267
896.23         68.2715
896.63        68.55882
897.02        68.79482
897.42        68.88789
897.82         68.8075
898.22        68.58592
898.62         68.3323
899.01        68.23449
899.41         68.3165
899.81        68.54053
900.21         68.7608
900.61        68.73458
901.00        68.40692
901.40        67.88696
901.80        67.34574
902.20        67.06007
902.59        67.10821
902.99         67.3894
903.39        67.78516
903.79         68.0804
904.18        68.21162
904.58        68.26691
904.98        68.29613
905.38         68.3835
905.77        68.53541
906.17         68.6813
906.57        68.84528
906.96        69.10119
907.36        69.41186
907.76        69.79208
908.15        70.04069
908.55        69.74983
908.95        68.91199
909.34        67.65392
909.74        66.43237
910.14         65.8938
910.53        66.18313
910.93        67.09689
911.33        68.24487
911.72        68.94176
912.12        68.97205
912.52        68.57953
912.91        68.02271
913.31        67.69491
913.70        67.69866
914.10        67.87548
914.49        68.18524
914.89        68.51818
915.29        68.81541
915.68        69.10719
916.08        69.32153
916.47        69.32385
916.87        69.11975
917.26         68.7326
917.66        68.27576
918.05         67.9053
918.45        67.66638
918.84        67.54872
919.24        67.51662
919.64        67.57883
920.03        67.73823
920.42        68.00129
920.82        68.29565
921.21        68.49554
921.61        68.55952
922.00        68.49476
922.40        68.43082
922.79        68.67358
923.19        69.22328
923.58        70.00858
923.98        70.68959
924.37        70.81691
924.77        70.30352
925.16        69.28245
925.55        68.13495
925.95         67.5189
926.34        67.62646
926.74        68.26622
927.13        69.11936
927.52        69.56908
927.92        69.47742
928.31        69.01629
928.70        68.47655
929.10        68.29279
929.49        68.56456
929.89        69.10823
930.28         69.7272
930.67        69.98291
931.07        69.74126
931.46        69.18421
931.85        68.50365
932.24        68.01876
932.64        67.82041
933.03        67.80251
933.42         67.8868
933.82        67.94643
934.21        67.93974
934.60        67.93978
934.99        67.93214
935.39         67.8587
935.78        67.74995
936.17        67.58535
936.56        67.48296
936.96        67.64017
937.35        68.11819
937.74         68.8054
938.13        69.47626
938.53        69.81233
938.92        69.75783
939.31         69.3856
939.70        68.88657
940.09        68.60736
940.49        68.61909
940.88        68.84367
941.27        69.09769
941.66        69.09834
942.05        68.79604
942.44        68.33396
942.84        67.84739
943.23        67.48085
943.62        67.32743
944.01        67.31033
944.40        67.47704
944.79         67.9086
945.18        68.54998
945.57        69.33068
945.97        69.97602
946.36        70.16125
946.75        69.79998
947.14        68.99545
947.53        67.98553
947.92        67.21179
948.31        66.84589
948.70        66.80014
949.09        66.96053
949.48        67.12174
949.87        67.21254
950.26        67.29971
950.65        67.41301
951.04        67.59172
951.43         67.8283
951.82        68.05575
952.21        68.21442
952.60        68.23479
952.99        68.09341
953.38        67.82703
953.77        67.45641
954.16        67.00227
954.55        66.49603
954.94        65.95554
955.33        65.45231
955.72        65.10047
956.11        64.92633
956.50        64.90203
956.89        64.97292
957.28         65.0191
957.66        65.03068
958.05        65.05012
958.44        65.06406
958.83        65.05746
959.22        65.03088
959.61        64.92258
960.00        64.89565
960.39        65.22397
960.78         65.9185
961.16        66.93812
961.55         67.8124
961.94        67.82358
962.33        66.85394
962.72        65.20166
963.11        63.48586
963.49         62.6148
963.88        62.78565
964.27        63.72275
964.66        65.04495
965.04        66.05396
965.43        66.39507
965.82        66.32881
966.21         65.9857
966.60        65.57343
966.98        65.19051
967.37        64.68684
967.76        64.20233
968.15        64.01923
968.53        64.21837
968.92        64.78735
969.31         65.4367
969.69        65.66627
970.08        65.38965
970.47        64.76655
970.86        64.20142
971.24        64.42066
971.63        65.47701
972.02        67.03606
972.40        68.70295
972.79        69.82095
973.17        70.33624
973.56        70.38454
973.95        70.07668
974.33        69.56794
974.72        68.95811
975.11        68.17381
975.49        67.35992
975.88        66.81297
976.26        66.61372
976.65         66.7618
977.04        67.00486
977.42        66.84347
977.81        66.11633
978.19        64.91472
978.58        63.76474
978.96        63.51213
979.35        64.34271
979.74        66.03293
980.12        67.93532
980.51        68.79825
980.89        68.43507
981.28        67.07901
981.66        65.47578
982.05        65.03712
982.43        66.11771
982.82        68.19511
983.20        70.47868
983.59        71.61523
983.97        71.36497
984.35        70.09243
984.74        68.32809
985.12        67.00043
985.51        66.46503
985.89        66.48151
986.28        66.80918
986.66        67.18684
987.04         67.4689
987.43        67.73961
987.81         68.0416
988.20        68.31854
988.58        68.58043
988.96        68.77131
989.35        68.72557
989.73         68.3285
990.12        67.50508
990.50        66.18719
990.88        64.67548
991.27        63.72224
991.65        63.61056
992.03        64.24872
992.42        64.86149
992.80        64.65338
993.18        63.34018
993.56        61.05201
993.95        58.56007
994.33        57.62294
994.71        58.99277
995.10        61.64066
995.48        64.40762
995.86        66.07431
996.24        66.54681
996.63        66.15656
997.01        65.25089
997.39        64.51653
997.77        64.32387
998.15        64.49089
998.54        64.70535
998.92        64.57024
999.30        64.00568
999.68        63.20897
1000.06        62.60361
1000.45        62.83199
1000.83        64.06094
1001.21        65.91925
1001.59        67.84658
1001.97        69.08115
1002.35        69.46011
1002.73        69.23474
1003.12        68.53407
1003.50        67.57711
1003.88        66.66167
1004.26        65.68374
1004.64        65.04946
1005.02        65.25494
1005.40        66.29301
1005.78        68.15571
1006.16        70.01395
1006.54        70.32677
1006.92        68.73012
1007.30        65.59048
1007.69        62.31144
1008.07        61.18919
1008.45        62.77403
1008.83        66.24178
1009.21        69.95625
1009.59        71.54103
1009.97        70.36826
1010.35        66.91965
1010.73        62.10843
1011.11        58.55413
1011.49         57.7343
1011.86         59.0159
1012.24        61.29958
1012.62        63.24639
1013.00        64.41426
1013.38        65.34018
1013.76        65.91381
1014.14         65.8372
1014.52        65.13922
1014.90        63.71995
1015.28         62.2093
1015.66        61.98631
1016.04        63.39408
1016.41        66.08155
1016.79        68.90166
1017.17        70.51064
1017.55        70.58042
1017.93        69.54987
1018.31        67.95193
1018.69        66.59885
1019.06        65.81355
1019.44        65.40797
1019.82        65.27068
1020.20        65.22678
1020.58        65.20139
1020.95        65.24432
1021.33        65.48228
1021.71        66.02548
1022.09        66.80254
1022.46        67.62626
1022.84        68.20357
1023.22        67.85764
1023.60        66.35497
1023.97         63.6446
1024.35        60.22619
1024.73        56.94511
