SpectraSmart Spectrum 2.9.0.0
--------- Device Information -----------
Spectrum Name :  反射率_0
Saving Time :  2024/04/28 00:10:09
Spectro-Module Model Name : SE2030-DUVN
Spectro-Module Serial Number : OS361AC55029948
Wavelength Start : 200
Wavelength End : 1025
Wavelength Unit : Wavelength(nm)
Spectrum Unit : Reflectance(%)
-----------Spectrum Setting ------------
Integration Time : 20ms
Average : 10
Boxcar : 0
Background removal :  enabled
linearity correction :  enabled
SC :  disabled
Intensity correction :  disabled
DWT denoise :  enabled
savitzky-golay :  disabled
FFT :  disabled
Running average :  disabled
Kalman :  disabled
High pass :  disabled
---------------BEGIN--------------------
Wavelength(nm)             Reflectance(%)
200.29               0
200.75        80.39217
201.21        89.26245
201.67        91.04076
202.13        86.81651
202.58        79.10167
203.04        69.01353
203.50        62.23516
203.96        67.09655
204.42        81.32119
204.88        98.76502
205.34        113.7059
205.80        121.7499
206.26         123.005
206.72        118.3278
207.18         105.217
207.64        87.42055
208.10         76.4782
208.55        73.87651
209.01        73.56615
209.47        70.84657
209.93        63.39898
210.39        45.59934
210.85       -5.158513
211.31       -57.94989
211.77         21.8409
212.23        68.06902
212.69        83.88049
213.14        90.26272
213.60        93.04366
214.06        94.98582
214.52        94.55984
214.98        86.88434
215.44        75.48553
215.90        66.57588
216.36        62.77332
216.81        64.07195
217.27        68.64855
217.73        75.74839
218.19        83.18401
218.65        86.78596
219.11        85.14373
219.57        79.18924
220.02        69.84103
220.48        61.78435
220.94        57.71832
221.40        56.58652
221.86        58.19049
222.32        62.09492
222.77        67.13932
223.23         72.6129
223.69        76.91076
224.15        78.21004
224.61         76.5601
225.06        72.50356
225.52        67.28075
225.98        63.45498
226.44        62.05217
226.90        61.95258
227.36        62.33042
227.81        62.42114
228.27        62.07803
228.73        61.48114
229.19        60.32663
229.65         58.1246
230.10         54.9722
230.56        51.51085
231.02        48.39508
231.48        46.56214
231.93        46.06693
232.39         46.6454
232.85        48.01702
233.31        49.81668
233.77        51.80008
234.22        54.05442
234.68        56.08627
235.14        57.37934
235.60        57.91806
236.05        57.69421
236.51        57.45286
236.97        58.70581
237.43        61.80267
237.88        66.31279
238.34        70.57714
238.80        73.23483
239.26        74.07542
239.71        73.12778
240.17        70.39965
240.63        68.94451
241.08        71.31577
241.54         75.2072
242.00        78.20531
242.46        79.28564
242.91        78.73573
243.37        76.15315
243.83        70.40405
244.28        63.59993
244.74        64.54002
245.20        72.71795
245.66        79.41447
246.11        81.61279
246.57        80.43748
247.03        76.00842
247.48        69.35137
247.94        68.27567
248.40        78.11182
248.85        93.41523
249.31        105.7581
249.77        108.8236
250.22        105.0461
250.68          98.423
251.14        93.01346
251.59        92.41636
252.05        97.00378
252.51        106.4899
252.96        118.7661
253.42        123.6269
253.88        115.8434
254.33        102.6294
254.79        91.90051
255.25        86.35969
255.70        84.44047
256.16        84.52221
256.62        85.69802
257.07        87.27271
257.53        89.05334
257.99        90.47249
258.44        90.60097
258.90        89.18717
259.35        86.17894
259.81        82.71795
260.27        79.29867
260.72        76.62151
261.18        75.15244
261.63        74.16303
262.09        73.60706
262.55        72.92627
263.00        71.92603
263.46        70.92397
263.91        69.86024
264.37        69.10333
264.83        68.56342
265.28        68.06927
265.74        67.53933
266.19        66.57866
266.65        65.25975
267.11        63.63894
267.56        61.91637
268.02        60.52611
268.47        59.51558
268.93        58.80204
269.38        58.17294
269.84        57.33315
270.30        56.20521
270.75        54.89167
271.21        53.55882
271.66        52.39169
272.12        51.46365
272.57        50.65352
273.03        49.90127
273.48        49.02693
273.94        48.05974
274.39        47.01812
274.85        46.02606
275.31        45.13687
275.76        44.34224
276.22        43.66145
276.67        43.00941
277.13         42.4027
277.58        41.76987
278.04        41.17325
278.49        40.56171
278.95        40.00254
279.40        39.43572
279.86        38.91453
280.31         38.3755
280.77        37.87639
281.22         37.3739
281.68        36.92791
282.13        36.49699
282.59        36.09935
283.04        35.70474
283.50        35.33375
283.95        34.99494
284.41        34.76066
284.86        34.61209
285.32        34.55579
285.77         34.5048
286.22        34.38517
286.68         34.2051
287.13        33.95607
287.59        33.73621
288.04        33.60839
288.50        33.61819
288.95        33.69373
289.41        33.81192
289.86         33.8768
290.32        33.89967
290.77        33.91502
291.22        33.95258
291.68        34.04038
292.13        34.19918
292.59        34.46031
293.04        34.88506
293.50          35.597
293.95         36.5967
294.40        37.85048
294.86        39.26908
295.31        40.70119
295.77        42.10386
296.22        43.48094
296.68        44.86971
297.13        46.30313
297.58        47.78827
298.04        49.30902
298.49        50.81992
298.95         52.3147
299.40        53.79973
299.85        55.30739
300.31        56.93121
300.76        58.74223
301.21        60.73884
301.67        62.89195
302.12        65.02383
302.58        66.97776
303.03        68.68385
303.48        70.21299
303.94        71.74979
304.39        73.48022
304.84        75.46686
305.30        77.65132
305.75        79.81178
306.20        81.71409
306.66        83.33544
307.11        84.71136
307.57         86.0405
308.02        87.49821
308.47        89.13747
308.93        90.87412
309.38        92.53277
309.83        93.96312
310.29        95.15194
310.74         96.1469
311.19        97.02329
311.65        97.86839
312.10        98.68394
312.55        99.44173
313.00        100.1804
313.46        100.9728
313.91        101.8056
314.36        102.6839
314.82        103.4982
315.27        104.0575
315.72        104.3343
316.18        104.4065
316.63        104.4146
317.08        104.6248
317.53        105.0993
317.99        105.7494
318.44        106.4611
318.89        107.0185
319.35        107.3571
319.80        107.5587
320.25        107.6797
320.70        107.8185
321.16        108.0021
321.61        108.2071
322.06        108.4413
322.51        108.7363
322.97         109.068
323.42        109.4694
323.87        109.8554
324.32        110.0997
324.78        110.1623
325.23        110.1213
325.68         110.046
326.13        110.0876
326.59        110.2653
327.04        110.5852
327.49        110.9806
327.94         111.375
328.39        111.7358
328.85        112.0516
329.30        112.3815
329.75        112.6577
330.20        112.8764
330.66        113.0094
331.11        113.1631
331.56        113.3953
332.01        113.7356
332.46        114.1683
332.92        114.6091
333.37        115.0659
333.82        115.4607
334.27        115.8066
334.72        116.1301
335.17        116.4786
335.63        116.8428
336.08        117.2724
336.53        117.7098
336.98        118.1076
337.43        118.4619
337.88        118.7915
338.34        119.1454
338.79        119.6597
339.24        120.3287
339.69        121.1022
340.14        121.8823
340.59        122.5115
341.05        122.9506
341.50        123.2637
341.95        123.4952
342.40        123.7365
342.85         124.027
343.30         124.328
343.75         124.684
344.20        125.1638
344.66        125.7656
345.11        126.4707
345.56        127.1322
346.01        127.5078
346.46        127.5577
346.91        127.3519
347.36        127.0984
347.81         127.124
348.26        127.4923
348.72        128.1025
349.17        128.7408
349.62         129.086
350.07        129.0552
350.52        128.7558
350.97        128.3517
351.42        128.1025
351.87        128.0793
352.32        128.1921
352.77        128.3295
353.22        128.3268
353.67        128.1325
354.13         127.809
354.58        127.3892
355.03        126.9862
355.48        126.6246
355.93        126.2664
356.38        125.8487
356.83         125.277
357.28        124.5461
357.73        123.7169
358.18        122.8713
358.63        122.1227
359.08        121.5075
359.53        120.9944
359.98        120.5494
360.43        120.1219
360.88        119.6737
361.33        119.1884
361.78        118.6587
362.23        118.0689
362.68        117.4101
363.13        116.7069
363.58        115.9101
364.03        114.8771
364.48        113.7397
364.93        112.4598
365.38        111.2237
365.83        110.2626
366.28        109.6165
366.73        109.2051
367.18        108.8732
367.63         108.367
368.08        107.6158
368.53        106.7009
368.98        105.7021
369.43        104.7505
369.88        103.9022
370.33        103.1185
370.78        102.4123
371.23        101.8095
371.68        101.2982
372.13        100.8656
372.58         100.462
373.03        99.99916
373.48        99.44604
373.93        98.81885
374.38        98.11967
374.83        97.35792
375.28        96.55398
375.72        95.70253
376.17        94.88858
376.62        94.17163
377.07        93.56874
377.52        93.05483
377.97        92.60558
378.42        92.17897
378.87        91.75072
379.32        91.32904
379.77         90.8776
380.22         90.3379
380.67        89.70563
381.11        89.00567
381.56        88.29938
382.01        87.70517
382.46        87.26867
382.91        86.97061
383.36        86.76428
383.81         86.5693
384.26         86.3494
384.71        86.10593
385.15        85.84515
385.60        85.64068
386.05        85.47095
386.50        85.31047
386.95        85.08332
387.40        84.68462
387.85        84.12408
388.29        83.42087
388.74        82.78217
389.19        82.29693
389.64        81.97716
390.09          81.756
390.54        81.58755
390.98        81.37909
391.43        81.14868
391.88        80.91453
392.33        80.60998
392.78        80.21688
393.23        79.77202
393.67        79.09763
394.12        78.37241
394.57        78.43461
395.02        78.07587
395.47        77.96378
395.91        77.72594
396.36        77.54627
396.81        77.41641
397.26        77.24236
397.71        77.05737
398.15        76.88752
398.60        76.80199
399.05         76.7411
399.50        76.70058
399.95        76.56446
400.39        76.35742
400.84        76.36052
401.29        76.47796
401.74        76.01544
402.18        75.13112
402.63        74.79522
403.08        75.00165
403.53        74.91025
403.97        74.50539
404.42        74.31516
404.87        74.30528
405.32        74.26453
405.76        74.17435
406.21        73.92067
406.66        73.60191
407.11        73.75941
407.55        74.24453
408.00         74.1294
408.45        73.44354
408.90        72.83863
409.34        72.48264
409.79        72.43316
410.24        72.58514
410.68        72.55595
411.13        72.30736
411.58         72.1249
412.03        72.03983
412.47        71.96776
412.92        71.89172
413.37         71.8506
413.81         71.8329
414.26        71.87493
414.71         71.9554
415.15        72.08476
415.60        72.19192
416.05        72.21877
416.49        72.15784
416.94        72.01507
417.39        71.85789
417.83        71.79406
418.28        71.83334
418.73        71.91801
419.17         72.0032
419.62        72.02039
420.07        71.96655
420.51        71.88519
420.96         71.7604
421.41        71.59798
421.85        71.40149
422.30        70.97685
422.74        70.50426
423.19          70.905
423.64        71.94972
424.08         72.2724
424.53        71.75767
424.98        71.63961
425.42        71.97692
425.87        71.81622
426.31        71.28436
426.76        71.38268
427.21        71.96312
427.65        71.87092
428.10        71.20916
428.54        71.03535
428.99        71.41054
429.44        71.82245
429.88        72.09491
430.33        72.10892
430.77         71.8657
431.22        71.74033
431.66        71.78163
432.11        71.98151
432.56        72.35035
433.00         72.5268
433.45        72.31113
433.89        72.46671
434.34        72.88791
434.78        71.80267
435.23        70.78482
435.67        70.90585
436.12         72.3563
436.57        72.76434
437.01        72.15663
437.46        72.28179
437.90        72.34309
438.35        73.42138
438.79         72.7677
439.24        72.79393
439.68        72.81631
440.13        72.85636
440.57        72.89869
441.02        73.11232
441.46        73.38367
441.91        73.15821
442.35        72.59397
442.80        72.78978
443.24        73.58462
443.69        73.84064
444.13        73.51559
444.58        73.49667
445.02         73.7588
445.47        73.76772
445.91        73.72703
446.36        73.66036
446.80        73.59933
447.24        73.87762
447.69        73.74355
448.13        73.85181
448.58        73.93642
449.02        73.82671
449.47        73.58641
449.91        73.46272
450.36        73.50507
450.80        73.54412
451.25        73.58118
451.69        73.65632
452.13        73.74467
452.58        73.77661
453.02        73.73228
453.47        73.61944
453.91        73.42834
454.36        73.25573
454.80        73.06897
455.24        72.66464
455.69        72.20554
456.13        72.00844
456.58        72.09033
457.02        72.31033
457.46        72.43203
457.91        72.21098
458.35        71.92728
458.79        71.72991
459.24        71.73453
459.68        71.62846
460.13         71.4137
460.57        71.39525
461.01        70.99004
461.46        70.81847
461.90        70.73797
462.34        70.30663
462.79        70.86398
463.23        70.73676
463.68        70.40879
464.12        70.40942
464.56        70.69757
465.01        70.84441
465.45        70.68839
465.89        70.51411
466.34        70.41014
466.78         70.1784
467.22        69.48473
467.67        70.31269
468.11        69.66544
468.55        69.58606
468.99        69.25658
469.44        69.05692
469.88        68.99171
470.32        68.89782
470.77        68.79703
471.21        68.74817
471.65        68.74407
472.10        68.77068
472.54        68.78271
472.98        68.75711
473.42        68.68701
473.87        68.57272
474.31        68.41023
474.75        68.34998
475.20        68.37846
475.64        68.30621
476.08         68.0923
476.52        68.04111
476.97        68.19622
477.41        67.79842
477.85        67.61187
478.29        67.97207
478.74        68.09713
479.18        67.54581
479.62        67.82944
480.06        67.72462
480.50        67.72652
480.95        67.84109
481.39        68.03841
481.83        67.67287
482.27        67.87772
482.72        67.62605
483.16        67.63765
483.60        67.55128
484.04        67.44697
484.48        67.48217
484.93        67.87649
485.37        67.60688
485.81        68.12232
486.25        68.76981
486.69        69.96714
487.14        68.77094
487.58        67.76463
488.02        67.97013
488.46        68.08676
488.90        68.05337
489.34        67.55074
489.79         66.4466
490.23        67.30045
490.67        67.23678
491.11        66.98236
491.55        66.78265
491.99        66.68719
492.43        66.63859
492.88         66.6191
493.32        66.66023
493.76        66.71593
494.20        66.79424
494.64        66.89926
495.08        66.91602
495.52        66.87064
495.96        67.07578
496.41        67.42603
496.85        67.24845
497.29        66.65344
497.73        66.59116
498.17        66.91127
498.61        66.99506
499.05        66.53645
499.49        66.52516
499.93         66.8344
500.37        66.75647
500.82        66.36492
501.26        66.20543
501.70        67.10258
502.14        66.55098
502.58        67.09456
503.02        67.10612
503.46        67.01154
503.90        66.75928
504.34        66.55431
504.78        66.40921
505.22        66.37376
505.66        66.29245
506.10        66.22171
506.54        66.34547
506.98        66.57069
507.42        66.91472
507.86        66.86575
508.30        66.65549
508.74        66.82909
509.18        66.68677
509.62        66.47321
510.06        66.32961
510.50         66.2922
510.94        66.30827
511.38        66.34849
511.82        66.38012
512.26        66.38403
512.70        66.37723
513.14        66.36515
513.58        66.32642
514.02        66.26031
514.46        66.21703
514.90        66.21164
515.34        66.03639
515.78         66.0775
516.22        66.02717
516.66        66.01115
517.10        66.03624
517.54         66.1025
517.98        66.19795
518.42        66.28626
518.86         66.3205
519.30        66.28802
519.74        66.20081
520.18        66.09348
520.62        66.02058
521.06        65.99897
521.50         66.0195
521.93        66.05576
522.37        66.05042
522.81         65.9967
523.25         65.9059
523.69        65.82095
524.13        65.80762
524.57         65.8741
525.01        65.99754
525.45        66.11102
525.89        66.10965
526.32        65.97174
526.76        65.74979
527.20        65.51885
527.64         65.4066
528.08        65.44109
528.52        65.57343
528.96        65.74633
529.40         65.8698
529.83        65.90778
530.27        65.90349
530.71        65.85384
531.15        65.76225
531.59        65.64199
532.03        65.49065
532.46        65.34679
532.90        65.29733
533.34        65.34917
533.78        65.47946
534.22        65.62875
534.66         65.7028
535.09        65.67175
535.53        65.58163
535.97         65.4649
536.41        65.38947
536.85        65.37646
537.28        65.40878
537.72        65.46249
538.16         65.4919
538.60        65.48656
539.04        65.47253
539.47        65.45495
539.91        65.47609
540.35        65.52509
540.79         65.6047
541.22        65.67052
541.66        65.66257
542.10        65.57014
542.54        65.41299
542.97        65.25179
543.41        65.21754
543.85        65.31641
544.29        65.51237
544.72        65.70444
545.16        65.76839
545.60        65.66183
546.04        65.42712
546.47        65.15401
546.91        64.98907
547.35        64.96043
547.79        65.04974
548.22        65.17072
548.66        65.15517
549.10        65.01862
549.53         65.0429
549.97        65.21874
550.41        65.27387
550.84        65.19372
551.28        65.17557
551.72        65.25124
552.15        65.13645
552.59        65.25782
553.03        65.29975
553.46        65.30599
553.90        65.31611
554.34         65.3003
554.77        65.27872
555.21        65.23204
555.65        65.15092
556.08        64.98248
556.52         64.8838
556.96        64.84819
557.39        64.95642
557.83         65.1525
558.27        65.14285
558.70        64.95806
559.14        64.88821
559.57        64.92987
560.01        65.00517
560.45        65.04956
560.88        64.91106
561.32        64.71462
561.75        64.70224
562.19        64.89347
562.63        65.13667
563.06        65.32602
563.50        65.26739
563.93          65.008
564.37        64.92292
564.80         65.0183
565.24        65.12699
565.68        65.19496
566.11        65.23438
566.55        65.26179
566.98        65.21468
567.42        65.15076
567.85        65.22717
568.29        65.44396
568.72        65.42625
569.16        65.26277
569.60        65.35517
570.03        65.70663
570.47         65.6277
570.90        65.94702
571.34        65.98669
571.77        66.18794
572.21        65.92428
572.64        66.29444
573.08        65.76651
573.51        65.55216
573.95        65.81222
574.38        66.22672
574.82         66.3041
575.25        66.67075
575.69        66.23283
576.12        65.96418
576.56        65.88843
576.99        65.88315
577.42        66.39974
577.86        66.60133
578.29        66.62624
578.73        66.96131
579.16        66.82977
579.60         66.4388
580.03        66.17345
580.47         66.0602
580.90        66.53632
581.33        66.75633
581.77        66.69901
582.20        67.29456
582.64        66.97473
583.07        66.92509
583.51        66.40316
583.94        65.99254
584.37        65.89533
584.81        66.17755
585.24        66.35043
585.68        66.39944
586.11        66.01757
586.54        66.57104
586.98        65.82344
587.41        66.26612
587.85        66.35275
588.28        66.18532
588.71        65.79366
589.15        65.92133
589.58        65.98451
590.01        65.87901
590.45        65.72319
590.88        65.38736
591.31        65.37155
591.75        65.57356
592.18        65.37629
592.61        65.14899
593.05         65.2579
593.48        66.53811
593.91        66.38877
594.35        65.97552
594.78        65.83157
595.21        65.73243
595.65        65.77924
596.08        65.69157
596.51        65.57695
596.94        65.28732
597.38         65.2058
597.81        65.35483
598.24        65.45437
598.68        65.80256
599.11        65.58755
599.54        66.17987
599.97        66.15649
600.41        66.05366
600.84        65.92049
601.27        65.78523
601.70        65.72672
602.14        65.23222
602.57        65.41815
603.00        65.42499
603.43        65.77844
603.87        65.97596
604.30        66.12702
604.73        65.63329
605.16        65.77695
605.60        65.49203
606.03         65.7217
606.46        66.12041
606.89        65.81958
607.32        65.58664
607.76        66.07253
608.19        65.67989
608.62        65.63721
609.05        65.45488
609.48        65.47545
609.92        65.66991
610.35        65.49171
610.78        65.85091
611.21        65.32631
611.64        65.56053
612.07        65.45077
612.50        65.40278
612.94         65.3895
613.37        65.45187
613.80        65.29654
614.23        65.45791
614.66        65.48443
615.09        65.49266
615.52        65.56287
615.96         65.7033
616.39         65.2164
616.82        65.31771
617.25        65.06889
617.68        65.15053
618.11        65.02997
618.54        64.88953
618.97         64.9544
619.40        65.12141
619.84        65.47811
620.27        65.26729
620.70        65.19134
621.13        65.01023
621.56        65.09772
621.99        64.72016
622.42        64.58977
622.85        64.96108
623.28        65.04683
623.71        64.82438
624.14        64.68382
624.57        64.57283
625.00        65.16274
625.43        64.87722
625.86        64.85711
626.29        64.63694
626.72         64.8069
627.15        64.65424
627.58        64.70529
628.01        64.76862
628.44        64.74011
628.87        64.31575
629.30        64.73492
629.73        64.69038
630.16        64.16203
630.59        64.49051
631.02        64.45203
631.45        64.50322
631.88        64.51877
632.31        64.52837
632.74        64.21668
633.17        64.25164
633.60         64.2009
634.03        64.26405
634.46        64.39863
634.89         64.5591
635.32        64.64786
635.75        64.63137
636.18        64.57507
636.61        64.49855
637.04        64.36002
637.47         64.2127
637.89         64.2261
638.32        64.34943
638.75        64.38847
639.18        64.32527
639.61        64.27128
640.04        64.23991
640.47        64.21761
640.90        64.21108
641.33        64.19386
641.76        64.14708
642.18        64.20222
642.61         64.1011
643.04        64.05054
643.47        63.99229
643.90        63.95492
644.33        63.94375
644.76        63.95632
645.18        63.98436
645.61        63.99984
646.04        63.99678
646.47        63.97585
646.90        63.95626
647.33        63.96482
647.75        64.01208
648.18        64.10883
648.61        64.21094
649.04        64.24676
649.47        64.22143
649.89         64.1222
650.32        64.01732
650.75        64.16192
651.18         64.4929
651.61        64.55194
652.03        64.27376
652.46        64.15842
652.89        64.33379
653.32        63.91139
653.74        63.32893
654.17        64.25623
654.60        64.32847
655.03        63.80076
655.46        63.96973
655.88         64.6092
656.31        67.46922
656.74        71.43066
657.16        69.35367
657.59        67.14114
658.02        65.51793
658.45        65.21906
658.87        65.21169
659.30         65.2175
659.73        64.86569
660.15        64.49433
660.58        64.49432
661.01         64.6438
661.44        64.88956
661.86        64.87086
662.29        64.58025
662.72        64.29852
663.14        64.14444
663.57        64.25639
664.00        64.54919
664.42        64.61921
664.85        64.43848
665.27        64.24868
665.70        64.10963
666.13         64.0205
666.55        64.00587
666.98        64.04339
667.41        64.12936
667.83        64.25951
668.26        64.41117
668.69        64.59469
669.11         64.7495
669.54        64.79177
669.96        64.71936
670.39        64.48696
670.82        64.21809
671.24        64.24579
671.67        64.53534
672.09        64.72221
672.52        64.76748
672.94        64.77746
673.37         64.7776
673.80        64.79035
674.22        64.82243
674.65        64.77325
675.07        64.66708
675.50        64.57134
675.92        64.51212
676.35        64.47332
676.77        64.46509
677.20        64.49579
677.62        64.55983
678.05        64.62384
678.47        64.67658
678.90        64.73183
679.32        64.78034
679.75        64.82273
680.17        64.85853
680.60         64.8933
681.02        64.91553
681.45        64.91121
681.87        64.89522
682.30        64.80062
682.72        64.68806
683.15        64.80002
683.57        65.08649
684.00         65.1302
684.42        64.95683
684.85        64.95589
685.27        65.13786
685.70        65.24895
686.12        65.24989
686.54         65.3168
686.97         65.4482
687.39        65.18642
687.82        65.31326
688.24        65.13342
688.66        65.19794
689.09        65.20636
689.51        65.24534
689.94        65.24502
690.36        65.19786
690.78         65.1227
691.21        65.04549
691.63        65.00311
692.06        65.00979
692.48        65.05491
692.90        65.11002
693.33        65.11885
693.75        65.07372
694.17         64.9959
694.60        64.91432
695.02        64.90198
695.44        64.96472
695.87        65.08631
696.29        65.23254
696.71        65.34286
697.14        65.38712
697.56        65.40907
697.98        65.41537
698.41        65.45042
698.83        65.50075
699.25        65.56738
699.68        65.61568
700.10        65.64259
700.52        65.63031
700.94        65.59014
701.37         65.5124
701.79        65.41578
702.21        65.29607
702.64        65.17198
703.06        65.06526
703.48        65.02827
703.90        65.07434
704.33        65.17922
704.75        65.32313
705.17        65.45187
705.59        65.54604
706.01        65.59077
706.44        65.59682
706.86        65.71312
707.28        65.76469
707.70        65.85909
708.12        65.93089
708.55        66.00311
708.97        66.03957
709.39        65.94363
709.81        65.77122
710.23        65.72174
710.66        65.82125
711.08        65.99678
711.50        66.15301
711.92        66.19268
712.34         66.0944
712.76        65.88854
713.19        65.66642
713.61         65.6274
714.03        65.79144
714.45        66.09345
714.87        66.42639
715.29        66.62704
715.71        66.65208
716.13        66.55325
716.56         66.3717
716.98        66.25096
717.40        66.21391
717.82        66.23006
718.24        66.28506
718.66        66.35897
719.08        66.43536
719.50        66.51539
719.92        66.59464
720.34        66.65948
720.76        66.70297
721.19        66.72085
721.61        66.69947
722.03        66.59217
722.45        66.40263
722.87        66.14936
723.29        65.91675
723.71        65.83719
724.13        65.94201
724.55        66.20163
724.97        66.51559
725.39        66.71481
725.81         66.7524
726.23        66.66565
726.65        66.55288
727.07        66.57595
727.49        66.76868
727.91        67.07762
728.33        67.38825
728.75        67.51263
729.17        67.40889
729.59        67.14588
730.01        66.84544
730.43        66.70232
730.85        66.76241
731.27        66.95108
731.69        67.19444
732.10        67.37857
732.52        67.45333
732.94        67.51598
733.36        67.56269
733.78        67.47829
734.20        67.25551
734.62        67.37287
735.04        66.85674
735.46        67.12234
735.88        67.70482
736.30        67.80013
736.72        67.40829
737.13        67.23495
737.55        67.30927
737.97        67.33593
738.39          67.287
738.81        67.11305
739.23        66.87675
739.65        66.93815
740.06        67.20281
740.48        67.28036
740.90        67.11671
741.32        67.00321
741.74        66.89413
742.16        66.87633
742.57        66.94854
742.99        67.09034
743.41        67.26814
743.83        67.41711
744.25        67.51335
744.67        67.55795
745.08         67.5853
745.50         67.6149
745.92        67.66959
746.34        67.74459
746.75         67.7897
747.17        67.73933
747.59        67.59148
748.01         67.3208
748.42         67.0454
748.84        67.05308
749.26        67.31364
749.68        67.54388
750.09        67.65419
750.51        67.64599
750.93        67.54901
751.35        67.52757
751.76        67.58734
752.18         67.5551
752.60        67.43781
753.01        67.38115
753.43        67.39891
753.85        67.42767
754.27        67.45949
754.68        67.71172
755.10        67.79333
755.52        67.90273
755.93        67.92245
756.35        67.87268
756.77        67.80111
757.18        67.84708
757.60        68.04807
758.02        68.25244
758.43         68.3632
758.85        68.69593
759.26        68.46873
759.68        68.28219
760.10        68.15222
760.51        67.35036
760.93        68.12784
761.34        68.07246
761.76        68.96387
762.18        68.95402
762.59        68.51112
763.01        68.27911
763.42        68.39565
763.84        68.36057
764.26        68.22575
764.67        68.39135
765.09        68.75944
765.50        68.84205
765.92        68.63842
766.33        68.34942
766.75        68.04959
767.16        67.89771
767.58        67.89852
768.00        68.19097
768.41        68.61667
768.83        68.52081
769.24         68.0227
769.66        67.89178
770.07        68.13723
770.49        68.40125
770.90        68.59946
771.32        68.63561
771.73        68.55464
772.15        68.57928
772.56         68.7244
772.97        68.86013
773.39        68.90629
773.80         68.7654
774.22        68.48497
774.63        68.45129
775.05        68.62849
775.46        68.69755
775.88          68.613
776.29        68.62171
776.70        68.71358
777.12        68.76897
777.53        68.79723
777.95        68.80952
778.36        68.82496
778.77        68.85626
779.19        68.91305
779.60        68.99956
780.02        69.08817
780.43        69.19242
780.84        69.29075
781.26        69.29328
781.67        69.30517
782.09        69.52966
782.50        69.74704
782.91         70.2494
783.33        69.28628
783.74         69.1721
784.15        69.41903
784.57        69.53972
784.98        69.50658
785.39        69.67569
785.81        69.96907
786.22        69.94427
786.63        69.68005
787.04        69.65355
787.46         69.9014
787.87         70.1602
788.28         70.3424
788.70        70.43788
789.11        70.41232
789.52        70.18914
789.93        69.87485
790.35        69.87553
790.76        70.13097
791.17        70.00223
791.58        69.55503
792.00        69.38266
792.41        69.52667
792.82        69.71733
793.23        69.88521
793.65        69.89748
794.06        69.87486
794.47        70.22252
794.88        70.72507
795.29        71.19724
795.71        70.77016
796.12        70.34182
796.53        69.86275
796.94         69.9136
797.35        70.43269
797.76        70.58031
798.18        70.32745
798.59        70.30171
799.00         70.5053
799.41        70.51624
799.82        70.34892
800.23        70.26878
800.64        70.29881
801.06        70.33694
801.47        70.39367
801.88        70.41216
802.29        70.38557
802.70        70.35468
803.11        70.33605
803.52        70.34237
803.93        70.37946
804.34        70.43034
804.75        70.53035
805.17          70.701
805.58        70.95543
805.99        71.33434
806.40        71.71727
806.81        71.70512
807.22        71.35347
807.63        71.15427
808.04        71.16248
808.45        71.08894
808.86        70.94884
809.27        70.95905
809.68        71.09278
810.09        71.16995
810.50          71.166
810.91        71.14614
811.32        71.11002
811.73        71.06792
812.14        71.02884
812.55        70.92526
812.96        70.81507
813.37        70.91287
813.78        71.18369
814.19        71.36358
814.60        71.38552
815.01        71.35702
815.42        71.26907
815.83        71.01183
816.24        70.70507
816.65        70.64739
817.05        70.90481
817.46        71.34965
817.87        71.82991
818.28        72.06567
818.69        71.99481
819.10        71.70289
819.51        71.33551
819.92        71.15443
820.33        71.24727
820.74        71.52591
821.14        71.87712
821.55          72.169
821.96        72.33029
822.37        72.40082
822.78        72.40684
823.19        72.38676
823.60        72.36241
824.00        72.34712
824.41        72.27215
824.82        72.12327
825.23        71.90766
825.64        71.64603
826.04        71.46519
826.45        71.52448
826.86        71.85756
827.27        72.41174
827.68        72.99805
828.08        73.33414
828.49        73.27112
828.90        72.91351
829.31        72.45093
829.72        72.21332
830.12        72.31705
830.53        72.63153
830.94        72.99567
831.35         73.1043
831.75        72.89616
832.16        72.42023
832.57        71.88839
832.97        71.62138
833.38        71.70335
833.79        72.03883
834.20        72.43587
834.60        72.60886
835.01        72.50479
835.42        72.19947
835.82        71.87575
836.23        71.76717
836.64         71.9681
837.04        72.41477
837.45        72.88457
837.86        73.11909
838.26        73.05956
838.67        72.77631
839.08        72.44774
839.48        72.34573
839.89        72.53918
840.29        72.93109
840.70        73.38029
841.11        73.67117
841.51        73.75816
841.92        73.67464
842.33        73.50726
842.73        73.39287
843.14        73.32785
843.54        73.29176
843.95        73.26125
844.35        73.22257
844.76        73.16145
845.17        73.11054
845.57        73.06306
845.98        72.95677
846.38        72.81618
846.79        72.63346
847.19        72.49513
847.60        72.49579
848.00        72.67029
848.41        72.94249
848.81        73.25289
849.22        73.42903
849.62        73.45775
850.03        73.36011
850.43         73.1935
850.84        72.97019
851.24        72.76276
851.65        72.50779
852.05        72.32879
852.46        72.33682
852.86        72.54024
853.27        72.91026
853.67        73.24046
854.07        73.41778
854.48         73.3805
854.88        73.21321
855.29        72.90606
855.69        72.65965
856.10        72.45857
856.50        72.33498
856.90        72.27697
857.31        72.29559
857.71        72.42518
858.12        72.61135
858.52        72.82912
858.92        72.90424
859.33          72.783
859.73        72.53875
860.13        72.22413
860.54        71.97153
860.94        71.86811
861.34        71.84794
861.75        71.85583
862.15        71.86274
862.55        71.82339
862.96        71.77682
863.36        71.70164
863.76         71.5481
864.17        71.30758
864.57        70.99347
864.97        70.70499
865.38        70.58327
865.78        70.70255
866.18        71.02219
866.58        71.36407
866.99         71.4207
867.39        71.15536
867.79        70.63087
868.19         70.1134
868.60        69.96733
869.00        70.25383
869.40        70.89667
869.80        71.63937
870.21        72.00758
870.61        71.92651
871.01        71.48463
871.41        70.94289
871.81        70.66976
872.22        70.72652
872.62        71.03761
873.02        71.44456
873.42        71.64713
873.82        71.55618
874.22        71.29272
874.63        71.03059
875.03        70.98501
875.43        71.20154
875.83        71.57423
876.23        71.99111
876.63        72.27707
877.03         72.3628
877.44        72.30119
877.84        72.11221
878.24        71.80009
878.64        71.41388
879.04         70.9811
879.44        70.61179
879.84        70.45416
880.24        70.53043
880.64        70.80692
881.04        71.19491
881.44        71.52808
881.84        71.73244
882.24        71.81281
882.65        71.78161
883.05        71.78194
883.45        71.79764
883.85        71.80017
884.25        71.71441
884.65         71.4286
885.05         70.9446
885.45        70.32418
885.85        69.72281
886.25        69.40312
886.65        69.43689
887.05        69.74305
887.45        70.16444
887.85        70.45491
888.25        70.53642
888.65        70.46668
889.04        70.30408
889.44         70.1974
889.84         70.1706
890.24        70.17023
890.64        70.15991
891.04        70.09539
891.44        69.97103
891.84        69.82804
892.24        69.69158
892.64        69.58342
893.04        69.52503
893.44        69.52248
893.83        69.61034
894.23        69.77859
894.63        70.03505
895.03        70.33859
895.43        70.66787
895.83        70.98862
896.23        71.26819
896.63         71.5112
897.02        71.63258
897.42        71.54726
897.82        71.25751
898.22        70.81956
898.62        70.39462
899.01        70.26582
899.41        70.47538
899.81        70.93185
900.21        71.49642
900.61        71.92882
901.00        72.12853
901.40         72.1871
901.80        72.08309
902.20        71.80078
902.59        71.39246
902.99        70.85586
903.39        70.37267
903.79        70.23679
904.18         70.4883
904.58        71.02759
904.98        71.64813
905.38        72.04123
905.77        72.11802
906.17        71.97352
906.57         71.6785
906.96        71.38589
907.36        71.14237
907.76        70.92648
908.15        70.76645
908.55         70.6402
908.95        70.57858
909.34        70.58321
909.74        70.68941
910.14        70.87444
910.53        71.12453
910.93        71.40752
911.33        71.66878
911.72        71.82574
912.12        71.83585
912.52        71.73235
912.91        71.55228
913.31        71.38321
913.70        71.24329
914.10        71.10098
914.49        70.98107
914.89         70.8653
915.29        70.77633
915.68        70.73707
916.08        70.72633
916.47        70.69144
916.87        70.64698
917.26        70.58748
917.66        70.58394
918.05        70.72113
918.45        70.98318
918.84        71.32834
919.24         71.6479
919.64        71.84631
920.03        71.91032
920.42        71.89732
920.82        71.78413
921.21        71.52316
921.61         71.1273
922.00        70.60694
922.40        70.20916
922.79        70.43034
923.19        71.29017
923.58        72.64806
923.98        73.95993
924.37        74.46018
924.77        73.98758
925.16        72.75662
925.55        71.26971
925.95        70.41735
926.34        70.47377
926.74        71.16269
927.13        72.13324
927.52        72.71913
927.92        72.74895
928.31        72.42429
928.70        71.97211
929.10        71.71223
929.49        71.73427
929.89        71.87947
930.28        72.07194
930.67        72.09418
931.07         71.8771
931.46        71.54453
931.85        71.17188
932.24        70.88789
932.64        70.73275
933.03        70.66243
933.42        70.66179
933.82        70.70402
934.21        70.78123
934.60        70.92602
934.99        71.10616
935.39        71.23909
935.78        71.34218
936.17        71.40369
936.56        71.51353
936.96        71.82191
937.35        72.36739
937.74        73.02317
938.13        73.61125
938.53        73.88689
938.92        73.81245
939.31        73.47366
939.70        72.97431
940.09        72.50668
940.49         72.1431
940.88        71.87514
941.27        71.73127
941.66        71.74931
942.05        71.91447
942.44        72.23695
942.84        72.60235
943.23        72.74779
943.62        72.63865
944.01        72.31638
944.40        71.93917
944.79        71.80849
945.18        71.99541
945.57        72.38593
945.97         72.7775
946.36        72.94421
946.75         72.7926
947.14        72.40707
947.53        71.88878
947.92        71.41462
948.31        71.07162
948.70        70.83377
949.09        70.67671
949.48         70.5545
949.87        70.45664
950.26        70.41037
950.65        70.45377
951.04        70.63704
951.43        70.95244
951.82        71.35326
952.21        71.74706
952.60        71.98769
952.99        72.02268
953.38        71.88644
953.77        71.63704
954.16        71.36852
954.55        71.12132
954.94        70.88251
955.33        70.65617
955.72        70.45036
956.11        70.26049
956.50        70.08204
956.89        69.92991
957.28        69.80804
957.66        69.74914
958.05        69.76901
958.44        69.78029
958.83        69.64494
959.22        69.33616
959.61        68.83022
960.00        68.39288
960.39        68.44814
960.78        69.04687
961.16        70.12695
961.55        71.09044
961.94        71.00961
962.33        69.72572
962.72        67.59949
963.11        65.46463
963.49         64.5386
963.88        65.07563
964.27        66.73195
964.66        68.84586
965.04         70.2135
965.43        70.33706
965.82         69.6041
966.21        68.53401
966.60        67.93846
966.98        68.03541
967.37        68.50538
967.76        69.06744
968.15        69.20496
968.53        68.79524
968.92         68.1507
969.31        67.46555
969.69        66.95409
970.08        66.72353
970.47        66.67325
970.86        67.07578
971.24         68.3993
971.63        70.48298
972.02        73.03674
972.40        75.40408
972.79        76.57985
973.17        76.51385
973.56        75.42758
973.95        73.84679
974.33        72.71011
974.72        72.35163
975.11        72.51556
975.49        72.94872
975.88        73.22356
976.26        73.19351
976.65        73.04906
977.04        72.78401
977.42        72.32727
977.81        71.66295
978.19        70.73622
978.58        69.94131
978.96        69.93894
979.35        70.82558
979.74        72.44814
980.12        74.22118
980.51        74.96518
980.89        74.51632
981.28        73.07066
981.66        71.31031
982.05        70.53436
982.43        71.11401
982.82        72.61552
983.20        74.38042
983.59        75.22952
983.97        74.96204
984.35        73.87595
984.74        72.46023
985.12        71.56228
985.51        71.45287
985.89        71.87255
986.28        72.46857
986.66        72.82461
987.04        72.79141
987.43        72.49216
987.81        72.11871
988.20        71.89205
988.58        71.92604
988.96        72.11734
989.35         72.2078
989.73          71.906
990.12         71.0999
990.50        69.83088
990.88        68.46212
991.27        67.83372
991.65        68.23549
992.03        69.42377
992.42        70.66624
992.80        71.33303
993.18            71.2
993.56        70.41641
993.95        69.38913
994.33        68.95237
994.71        69.51064
995.10        70.56083
995.48        71.61729
995.86        72.09657
996.24        71.94806
996.63        71.32242
997.01        70.49842
997.39        69.98877
997.77        70.04459
998.15        70.49969
998.54        71.05003
998.92        71.30761
999.30        71.18655
999.68        70.86353
1000.06        70.55363
1000.45        70.56222
1000.83        71.05056
1001.21        71.80491
1001.59        72.70714
1001.97        73.63945
1002.35        74.55109
1002.73        75.50064
1003.12        76.26263
1003.50         76.2466
1003.88        75.40105
1004.26        73.96265
1004.64        72.46801
1005.02        71.55643
1005.40        71.30925
1005.78         71.5769
1006.16        72.04909
1006.54        72.15276
1006.92        71.73169
1007.30        70.99081
1007.69        70.28431
1008.07         70.0509
1008.45        70.48232
1008.83        71.37007
1009.21        72.43217
1009.59        73.32193
1009.97        73.93433
1010.35        74.34362
1010.73        74.63309
1011.11        74.94498
1011.49        75.30817
1011.86        75.71396
1012.24          75.864
1012.62        75.63566
1013.00          75.084
1013.38        74.37223
1013.76        73.74158
1014.14        73.58732
1014.52        74.00248
1014.90        74.77894
1015.28        75.87308
1015.66         77.1263
1016.04        78.32086
1016.41        79.58727
1016.79        80.17496
1017.17        79.37212
1017.55        77.24034
1017.93        74.12444
1018.31        71.15607
1018.69        70.12856
1019.06        71.53737
1019.44        75.01252
1019.82        79.57578
1020.20         82.8978
1020.58        83.90014
1020.95        83.12618
1021.33        81.41721
1021.71        79.87167
1022.09         78.7711
1022.46        77.65383
1022.84        76.49217
1023.22        75.16895
1023.60        73.62864
1023.97        71.95115
1024.35        70.29141
1024.73        68.38354
