SpectraSmart Spectrum 2.9.0.0
--------- Device Information -----------
Spectrum Name :  反射率_0
Saving Time :  2024/04/27 23:46:00
Spectro-Module Model Name : SE2030-DUVN
Spectro-Module Serial Number : OS361AC55029948
Wavelength Start : 200
Wavelength End : 1025
Wavelength Unit : Wavelength(nm)
Spectrum Unit : Reflectance(%)
-----------Spectrum Setting ------------
Integration Time : 20ms
Average : 10
Boxcar : 0
Background removal :  enabled
linearity correction :  enabled
SC :  disabled
Intensity correction :  disabled
DWT denoise :  enabled
savitzky-golay :  disabled
FFT :  disabled
Running average :  disabled
Kalman :  disabled
High pass :  disabled
---------------BEGIN--------------------
Wavelength(nm)             Reflectance(%)
200.29               0
200.75        165.7909
201.21        141.1383
201.67        120.3786
202.13          115.16
202.58         120.312
203.04        131.1969
203.50         141.589
203.96        143.2205
204.42        136.3691
204.88        125.8605
205.34        116.8666
205.80         113.697
206.26        116.8586
206.72        127.0368
207.18        143.2268
207.64         150.114
208.10        139.0815
208.55         122.365
209.01        110.9003
209.47        107.5214
209.93        111.4243
210.39        127.2791
210.85         180.657
211.31        255.1797
211.77        183.4189
212.23        131.4501
212.69        112.0497
213.14        105.5602
213.60        103.4897
214.06        104.0647
214.52        107.1468
214.98        110.0893
215.44        109.6965
215.90        107.8229
216.36        106.9417
216.81        108.2582
217.27        111.5011
217.73         115.904
218.19         119.942
218.65        120.9056
219.11        118.0625
219.57        112.1957
220.02        105.1901
220.48        102.5718
220.94        106.0016
221.40        112.8425
221.86        120.4525
222.32        126.5131
222.77        130.4174
223.23        132.9676
223.69        134.2695
224.15         134.463
224.61        133.7951
225.06        132.3818
225.52        130.4395
225.98        128.3021
226.44        126.6964
226.90        125.7665
227.36        125.8421
227.81        127.1308
228.27        129.8346
228.73        133.6689
229.19        137.9985
229.65          141.21
230.10        142.3651
230.56        141.9833
231.02        140.6648
231.48        139.4703
231.93        138.6406
232.39        138.2838
232.85        137.9911
233.31        137.4175
233.77        136.5682
234.22        135.5639
234.68        135.0302
235.14        135.6284
235.60        137.4902
236.05        140.7224
236.51        144.2923
236.97        146.0683
237.43        145.1124
237.88        141.9348
238.34        138.2614
238.80         137.034
239.26        139.1606
239.71        145.9551
240.17        156.2569
240.63        160.8314
241.08        152.4298
241.54          137.89
242.00         126.637
242.46        122.0559
242.91        123.1967
243.37        130.3039
243.83        147.6379
244.28        171.4269
244.74         174.495
245.20        156.2968
245.66        138.4032
246.11        129.7196
246.57        127.4947
247.03        128.3673
247.48        133.0865
247.94        140.6756
248.40         147.368
248.85        153.4039
249.31        156.0379
249.77        152.5206
250.22        145.5407
250.68        137.8438
251.14        132.7245
251.59        133.6789
252.05        141.4517
252.51        156.7224
252.96        178.8774
253.42        195.8864
253.88        197.3767
254.33        187.9015
254.79        177.8254
255.25        172.0883
255.70        169.6643
256.16        169.6215
256.62        170.1183
257.07        169.6299
257.53         169.218
257.99        168.6622
258.44        167.9492
258.90        168.3309
259.35        168.6462
259.81        169.4838
260.27        169.7623
260.72        168.4603
261.18        166.5688
261.63         163.791
262.09          161.45
262.55        159.8215
263.00        158.6119
263.46        157.9505
263.91        157.0078
264.37         155.669
264.83        153.7451
265.28        151.3793
265.74        149.1309
266.19        146.9352
266.65        145.0595
267.11        143.2906
267.56        141.5816
268.02         140.104
268.47        138.7595
268.93        137.5774
269.38        136.4171
269.84        135.1694
270.30         133.757
270.75        132.1739
271.21        130.4605
271.66        128.5603
272.12        126.5374
272.57        124.3152
273.03        122.0531
273.48        119.8077
273.94        117.7595
274.39        115.8178
274.85        114.0404
275.31        112.2014
275.76        110.2258
276.22        108.3091
276.67        106.4635
277.13        105.0522
277.58        103.9164
278.04        103.0396
278.49        102.0763
278.95        100.8585
279.40        99.21438
279.86        97.41785
280.31        95.46788
280.77        93.68348
281.22        92.03207
281.68        90.59197
282.13        89.29682
282.59        88.30024
283.04        87.46831
283.50        86.84189
283.95        86.21372
284.41        85.43705
284.86        84.42977
285.32        83.34853
285.77        82.24609
286.22        81.35313
286.68         80.7371
287.13        80.24303
287.59        79.88341
288.04          79.511
288.50        79.14903
288.95        78.75675
289.41         78.3628
289.86        77.86809
290.32        77.33739
290.77          76.762
291.22        76.23215
291.68        75.85809
292.13        75.64604
292.59        75.62909
293.04        75.78892
293.50        76.15925
293.95        76.70316
294.40        77.41463
294.86        78.27083
295.31         79.2105
295.77        80.21817
296.22        81.26723
296.68        82.32418
297.13        83.30447
297.58         84.1976
298.04        85.03914
298.49        85.86684
298.95        86.83614
299.40         87.9536
299.85        89.20946
300.31        90.57185
300.76        91.91356
301.21        93.20009
301.67        94.47879
302.12        95.69833
302.58        96.93652
303.03        98.14247
303.48        99.34264
303.94        100.5804
304.39        101.7942
304.84        103.0235
305.30        104.2933
305.75        105.5482
306.20        106.8398
306.66        108.1893
307.11        109.5197
307.57        110.8299
308.02        111.9599
308.47        112.9183
308.93        113.7617
309.38        114.5035
309.83        115.3007
310.29        116.2037
310.74        117.1342
311.19         118.057
311.65        118.8818
312.10        119.5458
312.55        120.0955
313.00        120.5639
313.46        121.0075
313.91        121.4311
314.36        121.8405
314.82        122.2406
315.27        122.6364
315.72        123.0269
316.18        123.4263
316.63        123.8109
317.08        124.1874
317.53         124.548
317.99        124.8708
318.44        125.1561
318.89         125.379
319.35         125.535
319.80        125.6527
320.25        125.7226
320.70        125.7389
321.16        125.7031
321.61        125.6428
322.06        125.6242
322.51        125.7637
322.97        126.0551
323.42        126.5013
323.87         126.965
324.32        127.2427
324.78        127.2659
325.23        127.1432
325.68        126.9655
326.13        126.9238
326.59        127.0523
327.04        127.3522
327.49         127.753
327.94        128.1818
328.39        128.6001
328.85        128.9836
329.30        129.3979
329.75        129.7526
330.20        130.0334
330.66        130.2118
331.11        130.3786
331.56        130.5532
332.01        130.7669
332.46        131.0161
332.92        131.2706
333.37        131.6591
333.82         132.122
334.27         132.641
334.72        133.1728
335.17        133.6442
335.63         134.003
336.08        134.3367
336.53        134.6183
336.98        134.8641
337.43        135.0938
337.88        135.3035
338.34        135.5398
338.79        135.9449
339.24        136.5133
339.69        137.2167
340.14        137.9409
340.59        138.4937
341.05        138.8352
341.50        139.0355
341.95        139.1954
342.40        139.4986
342.85        139.9916
343.30         140.599
343.75        141.2638
344.20        141.8962
344.66        142.4551
345.11        142.9632
345.56         143.371
346.01        143.5947
346.46        143.6386
346.91        143.5322
347.36        143.4026
347.81        143.4499
348.26        143.7111
348.72         144.129
349.17        144.5724
349.62         144.853
350.07        144.9093
350.52        144.7929
350.97        144.5686
351.42        144.3434
351.87        144.1533
352.32        143.9651
352.77        143.7467
353.22        143.4515
353.67        143.0685
354.13        142.6334
354.58        142.1494
355.03        141.6851
355.48        141.2461
355.93        140.8004
356.38        140.3057
356.83        139.6959
357.28        138.9599
357.73        138.1399
358.18        137.2554
358.63        136.3286
359.08        135.3908
359.53         134.454
359.98        133.5761
360.43         132.848
360.88        132.2713
361.33        131.7951
361.78        131.3524
362.23        130.8229
362.68        130.1564
363.13        129.4042
363.58        128.5487
364.03        127.4394
364.48        126.3114
364.93        125.0387
365.38        123.7764
365.83        122.6681
366.28        121.7475
366.73        120.9607
367.18        120.2711
367.63        119.6123
368.08        118.9475
368.53         118.306
368.98        117.6045
369.43        116.7104
369.88        115.6184
370.33         114.363
370.78        113.1355
371.23        112.2532
371.68        111.7815
372.13        111.6309
372.58         111.576
373.03        111.2414
373.48        110.5269
373.93        109.5394
374.38        108.4662
374.83        107.6043
375.28        107.0274
375.72        106.6157
376.17        106.2636
376.62        105.7373
377.07        104.9851
377.52        104.0856
377.97        103.1629
378.42        102.4014
378.87        101.8462
379.32        101.4396
379.77        101.0676
380.22        100.5551
380.67        99.86554
381.11        99.06429
381.56        98.26258
382.01        97.65503
382.46        97.29697
382.91        97.12643
383.36        97.03376
383.81        96.84821
384.26        96.52103
384.71        96.10265
385.15        95.64771
385.60        95.30544
386.05        95.08436
386.50        94.93401
386.95        94.79208
387.40        94.57679
387.85        94.26722
388.29        93.83423
388.74        93.42654
389.19        93.03354
389.64        92.65272
390.09        92.25552
390.54        91.82134
390.98        91.31532
391.43        90.81878
391.88        90.32635
392.33        89.83598
392.78         89.5262
393.23        89.39361
393.67        88.94835
394.12        88.36636
394.57        88.85061
395.02        88.94946
395.47        88.99342
395.91        88.58907
396.36        88.36086
396.81        88.33882
397.26         88.2009
397.71        87.95176
398.15        87.73487
398.60        87.65076
399.05        87.41647
399.50         87.1144
399.95        87.22057
400.39        87.55553
400.84        87.25365
401.29        86.39458
401.74        85.65003
402.18        85.25257
402.63         85.3269
403.08        85.73211
403.53        85.82061
403.97        85.52784
404.42        85.31425
404.87        85.18028
405.32        85.01505
405.76        84.82474
406.21        84.42963
406.66        83.99149
407.11        84.19511
407.55        84.84969
408.00        84.94829
408.45        84.43245
408.90        83.61948
409.34        82.84407
409.79        82.92079
410.24        83.64683
410.68        83.82931
411.13        83.38631
411.58        83.07782
412.03        83.00912
412.47        82.99127
412.92        83.01466
413.37        83.14182
413.81        83.28452
414.26        83.37347
414.71        83.36611
415.15        83.30498
415.60         83.1761
416.05        83.04012
416.49        82.93049
416.94         82.8203
417.39        82.73991
417.83        82.73553
418.28        82.79852
418.73        82.89308
419.17        82.99048
419.62        83.04632
420.07        83.06027
420.51        83.05164
420.96        82.99683
421.41        82.89232
421.85        82.73324
422.30        82.32243
422.74        81.82482
423.19         82.2015
423.64        83.19138
424.08        83.32388
424.53        82.55492
424.98        82.30122
425.42        82.64543
425.87        82.67861
426.31        82.42787
426.76        82.47242
427.21        82.75356
427.65        82.83312
428.10        82.71913
428.54        82.68872
428.99        82.78967
429.44        83.03266
429.88        83.25861
430.33        82.98634
430.77        82.36434
431.22        82.26827
431.66        82.68357
432.11        83.10757
432.56        83.48294
433.00         83.7613
433.45        83.67007
433.89        83.68002
434.34        83.94425
434.78        82.75565
435.23        82.54495
435.67        83.42387
436.12        83.73775
436.57        83.94028
437.01        83.57769
437.46        83.31583
437.90        83.68436
438.35        84.76287
438.79        84.47294
439.24        84.62488
439.68        84.61147
440.13        84.54655
440.57        84.46169
441.02         84.5417
441.46        84.72224
441.91        84.61314
442.35        84.24467
442.80        84.42392
443.24        84.98156
443.69        85.02782
444.13        84.59104
444.58        84.46774
445.02        84.65228
445.47        84.75315
445.91        84.73702
446.36        84.79584
446.80        84.90978
447.24        84.96341
447.69        84.96754
448.13        85.16051
448.58        85.44231
449.02        85.31374
449.47        84.89719
449.91        84.76289
450.36         84.9726
450.80        85.18382
451.25        85.34488
451.69        85.48656
452.13        85.56685
452.58        85.51054
453.02        85.35484
453.47        85.19687
453.91        85.03834
454.36        85.00723
454.80         85.0359
455.24        84.64597
455.69        83.96578
456.13         83.9185
456.58        83.99348
457.02        83.81152
457.46        84.65679
457.91        84.32824
458.35        83.72997
458.79          83.379
459.24         83.4379
459.68        83.34774
460.13        83.14051
460.57        82.95364
461.01        83.21071
461.46        82.95361
461.90        83.22333
462.34        83.24452
462.79        83.04766
463.23        82.86253
463.68         82.6896
464.12        82.55674
464.56        82.51402
465.01        82.70438
465.45        83.08914
465.89        82.96938
466.34        82.51038
466.78        82.08726
467.22        81.41664
467.67        81.98528
468.11        81.78876
468.55        81.86578
468.99        81.66606
469.44        81.65674
469.88        81.82726
470.32         81.8858
470.77        81.82617
471.21        81.76781
471.65        81.71255
472.10        81.64243
472.54        81.52585
472.98        81.39825
473.42        81.27685
473.87        81.08149
474.31         80.8418
474.75        80.95531
475.20        81.30782
475.64         81.2542
476.08        80.82265
476.52        80.68929
476.97         80.8989
477.41        80.61622
477.85        80.75422
478.29        80.41199
478.74        80.97185
479.18        79.97412
479.62        80.67676
480.06        80.58504
480.50        80.57178
480.95        80.60942
481.39        80.62967
481.83        80.55479
482.27        80.77308
482.72         80.0013
483.16        80.48654
483.60        79.97907
484.04        80.22353
484.48        80.13087
484.93        80.19097
485.37        80.48208
485.81        80.78632
486.25         80.9876
486.69        81.08267
487.14        80.09224
487.58        79.94143
488.02        80.47385
488.46        80.07798
488.90        80.73716
489.34        80.43403
489.79        79.19247
490.23        79.69925
490.67        79.61153
491.11        79.76669
491.55        79.69977
491.99         79.4597
492.43        79.39441
492.88        79.48135
493.32        79.52233
493.76        79.48812
494.20        79.54037
494.64        79.68785
495.08        79.77028
495.52        79.80421
495.96        80.06297
496.41        80.32607
496.85         80.2682
497.29        79.08383
497.73        78.89973
498.17        79.45786
498.61        79.71997
499.05         79.5659
499.49        79.49533
499.93        79.56145
500.37        79.44007
500.82        79.15842
501.26        79.28493
501.70         79.8456
502.14        79.08107
502.58         79.3391
503.02        79.26695
503.46        79.23153
503.90        79.23469
504.34         79.1946
504.78        79.25669
505.22        79.37422
505.66        79.38283
506.10        79.30275
506.54        79.33112
506.98        79.48226
507.42        79.38937
507.86         79.6661
508.30        79.40611
508.74        79.42536
509.18        79.21238
509.62        79.01752
510.06         78.9118
510.50        78.91517
510.94        79.00372
511.38        79.11559
511.82        79.16592
512.26        79.12973
512.70        79.03847
513.14        78.94008
513.58        78.88142
514.02        78.87786
514.46        78.96451
514.90        79.12664
515.34        79.06158
515.78        79.21025
516.22        79.21643
516.66        79.23346
517.10        79.27656
517.54        79.35011
517.98        79.43354
518.42        79.49515
518.86        79.49948
519.30        79.44035
519.74        79.33864
520.18        79.22106
520.62        79.12582
521.06        79.06986
521.50        79.04711
521.93        79.06329
522.37        79.11021
522.81         79.1851
523.25        79.27973
523.69        79.37656
524.13        79.44843
524.57        79.48524
525.01        79.49133
525.45        79.46362
525.89        79.40085
526.32        79.30393
526.76        79.19311
527.20        79.08978
527.64        79.03573
528.08        79.04056
528.52        79.09368
528.96        79.17183
529.40        79.23586
529.83        79.26454
530.27        79.27946
530.71        79.28045
531.15        79.28032
531.59        79.28343
532.03        79.28542
532.46        79.27246
532.90        79.24998
533.34        79.21266
533.78        79.16268
534.22          79.116
534.66        79.09483
535.09        79.09182
535.53        79.12508
535.97        79.15478
536.41        79.13595
536.85        79.06271
537.28        78.95335
537.72        78.85003
538.16        78.80959
538.60        78.84651
539.04        78.95441
539.47        79.06942
539.91        79.14032
540.35        79.13137
540.79        79.07702
541.22        78.99236
541.66        78.91277
542.10        78.84891
542.54        78.79098
542.97        78.73624
543.41          78.726
543.85        78.74866
544.29        78.80592
544.72        78.85955
545.16        78.88725
545.60        78.86646
546.04        78.79807
546.47        78.72089
546.91         78.7141
547.35        78.77878
547.79         78.8915
548.22        78.97556
548.66        78.95167
549.10        78.81544
549.53        78.70315
549.97        78.65773
550.41        78.63468
550.84        78.64716
551.28        78.74975
551.72        78.88097
552.15         78.9048
552.59        78.81641
553.03        78.63162
553.46        78.42364
553.90         78.3614
554.34        78.45103
554.77        78.68778
555.21        78.90915
555.65        78.96603
556.08        78.73888
556.52        78.47672
556.96        78.25028
557.39        78.27444
557.83        78.51723
558.27        78.58878
558.70        78.48051
559.14        78.48715
559.57         78.5831
560.01        78.64855
560.45        78.64362
560.88         78.5266
561.32        78.40337
561.75        78.36482
562.19        78.44224
562.63        78.57344
563.06         78.6786
563.50        78.58311
563.93        78.32353
564.37        78.22604
564.80        78.29109
565.24        78.39861
565.68        78.50259
566.11        78.59819
566.55        78.70003
566.98        78.74471
567.42        78.74609
567.85        78.81189
568.29         78.9585
568.72        78.80016
569.16        78.42182
569.60        78.67127
570.03        78.48982
570.47        78.56354
570.90        78.63667
571.34        78.63893
571.77        78.81097
572.21        78.61903
572.64        78.83724
573.08        78.43253
573.51        78.37624
573.95        78.65102
574.38        78.65594
574.82         78.5347
575.25        78.57906
575.69        78.37587
576.12         78.4385
576.56        78.38637
576.99        78.81597
577.42        78.76025
577.86        78.79124
578.29        78.73503
578.73        78.66656
579.16         78.7878
579.60        78.97953
580.03        78.97829
580.47         78.6122
580.90        79.18955
581.33        79.23074
581.77        79.25974
582.20        78.98064
582.64        78.99732
583.07        78.72254
583.51        78.70011
583.94        78.98675
584.37        79.01485
584.81        78.80548
585.24        78.73096
585.68        78.92197
586.11        78.71001
586.54        78.89619
586.98        78.67068
587.41        79.26652
587.85        78.61738
588.28         78.9371
588.71        78.33974
589.15        79.04476
589.58        78.64689
590.01        78.85878
590.45         79.2741
590.88        78.22046
591.31        78.33991
591.75        78.86347
592.18        78.82621
592.61          78.504
593.05         78.2061
593.48         79.4847
593.91        78.80668
594.35         78.8141
594.78        78.98923
595.21        78.63938
595.65        78.57058
596.08        78.34615
596.51        78.90417
596.94        78.46616
597.38        78.60705
597.81        78.92313
598.24        78.39294
598.68         78.6116
599.11        78.70024
599.54        78.62059
599.97        78.66613
600.41        78.88617
600.84        78.92358
601.27        78.80726
601.70        78.55463
602.14        78.15032
602.57        78.40858
603.00        78.38553
603.43        78.65079
603.87        78.64631
604.30        78.42698
604.73        78.40243
605.16        79.00106
605.60        78.81863
606.03        78.98129
606.46        79.03101
606.89        78.84332
607.32        78.99516
607.76        79.12851
608.19        78.88525
608.62        78.81303
609.05        78.82616
609.48        78.78125
609.92        78.60715
610.35        79.03963
610.78        78.84623
611.21         78.6183
611.64        78.99798
612.07        78.86865
612.50        78.59462
612.94        78.38519
613.37        78.51704
613.80        78.60576
614.23        78.64899
614.66        78.75161
615.09        78.80029
615.52        78.79673
615.96        78.84551
616.39        78.23496
616.82        78.38213
617.25        78.79578
617.68        78.82301
618.11        78.78541
618.54        78.48449
618.97        78.61073
619.40        79.05669
619.84         79.0035
620.27        78.97902
620.70        78.61397
621.13         78.1054
621.56        78.66163
621.99         78.5612
622.42        78.53165
622.85        78.35521
623.28        78.53905
623.71        78.60187
624.14        78.17704
624.57        78.65353
625.00        78.56079
625.43        78.34029
625.86        78.33103
626.29        78.54571
626.72        78.24181
627.15         78.3732
627.58        78.22166
628.01        78.14802
628.44        78.30129
628.87        77.94635
629.30        78.74094
629.73        78.36777
630.16        77.90233
630.59        78.23019
631.02        78.28213
631.45        78.46667
631.88        78.53124
632.31        78.47498
632.74        78.63236
633.17        78.56481
633.60        78.61779
634.03        78.65807
634.46        78.70275
634.89        78.73713
635.32        78.73179
635.75        78.68516
636.18        78.64178
636.61         78.6096
637.04        78.50768
637.47        78.38659
637.89        78.46449
638.32        78.67153
638.75        78.75292
639.18        78.68467
639.61        78.60315
640.04         78.5444
640.47         78.5275
640.90         78.5686
641.33        78.62606
641.76        78.65498
642.18        78.78056
642.61        78.67374
643.04        78.59417
643.47        78.48802
643.90        78.42072
644.33        78.40498
644.76        78.42847
645.18        78.45853
645.61        78.42542
646.04        78.32203
646.47        78.16791
646.90        78.01889
647.33        77.97897
647.75        78.07834
648.18        78.24622
648.61        78.41387
649.04        78.61274
649.47        78.76319
649.89        78.53891
650.32        78.09709
650.75        78.11531
651.18        78.54495
651.61        78.73642
652.03        78.60268
652.46        78.41433
652.89        78.32874
653.32        78.21091
653.74        78.44414
654.17        78.85588
654.60        78.61324
655.03        78.43318
655.46        78.13083
655.88        79.08255
656.31        80.15657
656.74        80.80305
657.16        79.36139
657.59        78.70618
658.02        78.41641
658.45        79.58969
658.87         78.8364
659.30        79.36095
659.73        78.34949
660.15        78.48957
660.58        78.42393
661.01        78.67798
661.44        78.89665
661.86        78.81651
662.29        78.48687
662.72        78.25835
663.14        78.21973
663.57        78.23426
664.00        78.29209
664.42        78.34307
664.85        78.38279
665.27        78.47372
665.70        78.58338
666.13        78.62112
666.55         78.5789
666.98        78.47424
667.41        78.35805
667.83        78.31293
668.26        78.35342
668.69        78.47033
669.11        78.61185
669.54        78.71373
669.96        78.76553
670.39        78.68469
670.82        78.55022
671.24        78.68617
671.67        79.00425
672.09        79.00965
672.52        78.74437
672.94        78.55029
673.37        78.49924
673.80         78.5397
674.22        78.64526
674.65        78.65798
675.07        78.58355
675.50         78.5109
675.92        78.48613
676.35        78.50871
676.77        78.59012
677.20        78.72678
677.62        78.87163
678.05        78.92703
678.47        78.87365
678.90        78.75093
679.32        78.61408
679.75        78.56601
680.17        78.63211
680.60        78.79409
681.02        78.97433
681.45        79.06487
681.87        79.05923
682.30        78.85997
682.72        78.60084
683.15        78.77654
683.57        79.29922
684.00        79.39062
684.42        79.08307
684.85         79.0598
685.27        79.32241
685.70        79.47792
686.12         79.4851
686.54        79.49979
686.97        79.49482
687.39        79.43378
687.82        79.35202
688.24        79.16189
688.66        79.25917
689.09        79.29619
689.51        79.36405
689.94        79.38762
690.36         79.3654
690.78        79.27709
691.21         79.1454
691.63        79.10099
692.06        79.11706
692.48        78.96645
692.90        78.71513
693.33         78.6438
693.75         78.7747
694.17        78.96728
694.60        79.14486
695.02        79.28204
695.44        79.34074
695.87        79.30748
696.29        79.23505
696.71        79.27576
697.14        79.39845
697.56        79.44653
697.98        79.41263
698.41        79.46832
698.83        79.59077
699.25        79.71452
699.68        79.78806
700.10        79.83026
700.52        79.82016
700.94        79.75391
701.37        79.65308
701.79         79.6008
702.21        79.59462
702.64        79.63466
703.06        79.67873
703.48        79.68446
703.90        79.64787
704.33        79.57301
704.75        79.50562
705.17        79.49601
705.59         79.5586
706.01        79.64925
706.44        79.73196
706.86        79.90536
707.28        79.93195
707.70        79.96534
708.12        79.97057
708.55        80.03841
708.97        80.13821
709.39        80.13547
709.81        80.03572
710.23        79.98015
710.66        79.97867
711.08         79.9707
711.50        79.94023
711.92        79.92329
712.34        79.92351
712.76        79.93507
713.19        79.94623
713.61        79.99155
714.03        80.04914
714.45        80.11137
714.87         80.1837
715.29        80.27479
715.71        80.37979
716.13        80.49317
716.56        80.56451
716.98        80.59786
717.40        80.56235
717.82        80.47469
718.24        80.37482
718.66        80.32771
719.08        80.34946
719.50        80.41709
719.92         80.5089
720.34        80.58768
720.76        80.63615
721.19        80.65541
721.61         80.6489
722.03        80.58642
722.45        80.47013
722.87        80.30954
723.29         80.1487
723.71        80.05762
724.13          80.062
724.55        80.15846
724.97        80.30904
725.39        80.44646
725.81        80.54702
726.23        80.61106
726.65        80.68945
727.07        80.86751
727.49        81.15076
727.91        81.50669
728.33        81.81634
728.75        81.88782
729.17        81.68613
729.59        81.27592
730.01        80.81899
730.43        80.57848
730.85        80.61649
731.27        80.84568
731.69        81.13449
732.10         81.3112
732.52        81.31588
732.94        81.20313
733.36        81.00868
733.78        81.07281
734.20        80.76666
734.62        81.13617
735.04         80.7378
735.46        81.17828
735.88        81.86799
736.30        81.86215
736.72        81.22241
737.13        80.93621
737.55        81.05795
737.97        81.07678
738.39        80.97252
738.81        80.88699
739.23        80.85476
739.65        81.02157
740.06        81.29369
740.48        81.46824
740.90         81.4873
741.32        81.54531
741.74        81.54732
742.16        81.61057
742.57         81.7169
742.99        81.84318
743.41        81.96036
743.83        82.00747
744.25        81.97247
744.67        81.86514
745.08        81.76009
745.50        81.72867
745.92        81.81087
746.34        81.99087
746.75        82.17187
747.17        82.21164
747.59        82.08144
748.01        81.75592
748.42         81.3953
748.84        81.36121
749.26        81.62264
749.68        81.88689
750.09        82.01695
750.51        81.84516
750.93         81.4725
751.35        81.39988
751.76        81.61491
752.18        81.62824
752.60         81.4399
753.01        81.38378
753.43        81.46843
753.85        81.56255
754.27        81.65697
754.68        81.84688
755.10        82.04941
755.52        82.16924
755.93        82.36761
756.35        82.48671
756.77        82.53176
757.18        82.61411
757.60        82.77091
758.02        82.62595
758.43        82.14682
758.85        82.96634
759.26         82.2316
759.68         82.4726
760.10        82.91173
760.51        81.99268
760.93        81.94547
761.34        82.20488
761.76        82.86291
762.18        83.12717
762.59        82.90128
763.01        82.91534
763.42        83.23948
763.84        83.30866
764.26        83.15708
764.67         83.1786
765.09        83.33833
765.50        83.12478
765.92         82.6609
766.33        82.46213
766.75        82.52554
767.16        82.60018
767.58        82.62553
768.00        82.89063
768.41        83.29678
768.83        83.40897
769.24        83.23614
769.66        82.99632
770.07        82.78532
770.49        82.89178
770.90        83.25799
771.32        83.36116
771.73        83.21008
772.15        83.20353
772.56        83.35316
772.97        83.45688
773.39         83.4464
773.80        83.33766
774.22        83.06615
774.63        83.17795
775.05        83.56209
775.46         83.7974
775.88        83.80613
776.29        83.89103
776.70        84.05241
777.12        84.16487
777.53        84.24802
777.95        84.31216
778.36        84.36032
778.77        84.37504
779.19        84.35832
779.60        84.32169
780.02         84.2847
780.43        84.30189
780.84        84.35248
781.26         84.4381
781.67         84.5959
782.09         84.6256
782.50        84.38943
782.91        84.92591
783.33        84.07707
783.74        84.00625
784.15        84.08209
784.57        84.11785
784.98        84.11391
785.39        84.28885
785.81        84.59151
786.22        84.72704
786.63         84.6732
787.04        84.64911
787.46        84.67072
787.87        84.58369
788.28        84.44362
788.70        84.39487
789.11        84.43346
789.52        84.54391
789.93        84.69256
790.35        84.78012
790.76        84.82704
791.17         84.8891
791.58        84.97038
792.00        85.03841
792.41        85.11968
792.82        85.18369
793.23        85.26878
793.65        85.45759
794.06        85.73379
794.47        86.00929
794.88        86.21835
795.29        86.08572
795.71        86.13302
796.12        85.84265
796.53        85.48354
796.94        85.48384
797.35        85.82775
797.76        86.01465
798.18        85.99176
798.59        86.05232
799.00        86.18703
799.41        86.18378
799.82        86.07267
800.23        86.03725
800.64        86.09999
801.06         86.1774
801.47        86.28216
801.88        86.34161
802.29        86.34235
802.70        86.32011
803.11        86.28487
803.52        86.24327
803.93        86.20126
804.34        86.14655
804.75        86.12334
805.17        86.16607
805.58        86.30509
805.99        86.58022
806.40        86.88178
806.81        86.82767
807.22        86.47108
807.63        86.29102
808.04        86.33186
808.45        86.28603
808.86        86.15919
809.27        86.17241
809.68        86.29581
810.09        86.34953
810.50        86.31096
810.91        86.23901
811.32        86.15979
811.73        86.12881
812.14        86.16698
812.55        86.20006
812.96        86.22906
813.37        86.39256
813.78        86.62259
814.19        86.62031
814.60        86.44013
815.01        86.42023
815.42        86.58606
815.83        86.75793
816.24        86.88795
816.65        86.97724
817.05        87.01002
817.46        86.94759
817.87        86.86821
818.28        86.83205
818.69          86.855
819.10        86.92297
819.51          87.012
819.92        87.07322
820.33        87.09195
820.74        87.08585
821.14        87.06358
821.55        87.07422
821.96        87.10582
822.37        87.13884
822.78        87.17176
823.19        87.20147
823.60        87.22674
824.00        87.28787
824.41         87.2974
824.82        87.21712
825.23         87.0451
825.64        86.79362
826.04         86.6012
826.45        86.64594
826.86        86.97048
827.27        87.51567
827.68        88.08476
828.08        88.38117
828.49        88.25491
828.90        87.83981
829.31        87.33514
829.72        87.08523
830.12        87.21386
830.53        87.55648
830.94        87.99654
831.35        88.29453
831.75        88.39455
832.16         88.3242
832.57         88.1434
832.97        87.90983
833.38        87.66179
833.79        87.39088
834.20        87.16924
834.60        87.10738
835.01        87.22546
835.42        87.47986
835.82        87.80164
836.23        87.95914
836.64        87.92563
837.04        87.79425
837.45        87.56006
837.86        87.33234
838.26        87.17336
838.67        87.03216
839.08        86.99905
839.48        87.20121
839.89        87.63117
840.29        88.23765
840.70        88.85143
841.11        89.20432
841.51        89.24962
841.92        89.01714
842.33        88.64138
842.73         88.3578
843.14        88.19228
843.54        88.11534
843.95        88.09122
844.35        88.08428
844.76        88.06179
845.17        88.06554
845.57        88.07572
845.98        87.99503
846.38        87.84515
846.79          87.614
847.19        87.40411
847.60        87.32606
848.00        87.43402
848.41         87.6512
848.81        87.93058
849.22        88.10555
849.62        88.16875
850.03        88.13319
850.43         88.0643
850.84        87.97422
851.24        87.94214
851.65        87.88848
852.05        87.90681
852.46        88.00949
852.86        88.18657
853.27        88.43796
853.67        88.61739
854.07        88.73912
854.48        88.74485
854.88        88.69505
855.29        88.49174
855.69        88.21857
856.10        87.80927
856.50        87.37473
856.90        86.97311
857.31        86.73266
857.71        86.73344
858.12         86.8774
858.52        87.14901
858.92        87.37899
859.33        87.48165
859.73        87.53091
860.13        87.47571
860.54        87.27078
860.94        86.97375
861.34        86.56253
861.75        86.09448
862.15        85.72391
862.55        85.46362
862.96         85.3052
863.36        85.21208
863.76        85.08502
864.17        84.89769
864.57        84.70619
864.97        84.56134
865.38        84.51884
865.78        84.64383
866.18        84.88041
866.58        85.16682
866.99        85.41229
867.39        85.60657
867.79        85.71513
868.19        85.76809
868.60        85.77682
869.00        85.74637
869.40        85.71851
869.80        85.65945
870.21        85.52737
870.61        85.41081
871.01        85.24855
871.41        85.15157
871.81        85.27527
872.22        85.59293
872.62        86.09993
873.02        86.59116
873.42        86.67551
873.82        86.27084
874.22        85.53852
874.63        84.77934
875.03        84.37399
875.43         84.4228
875.83        84.79353
876.23        85.34339
876.63         85.8287
877.03        86.14211
877.44        86.33598
877.84        86.41347
878.24        86.33584
878.64        86.12428
879.04        85.79314
879.44        85.43766
879.84        85.20136
880.24        85.11649
880.64        85.15877
881.04        85.29102
881.44        85.43488
881.84        85.54906
882.24        85.63271
882.65        85.65426
883.05        85.67867
883.45        85.66966
883.85        85.63319
884.25        85.53922
884.65        85.34615
885.05        85.06595
885.45        84.72018
885.85        84.43472
886.25        84.41782
886.65        84.71174
887.05        85.25573
887.45        85.85703
887.85        86.22292
888.25        86.27888
888.65        86.08025
889.04        85.79852
889.44         85.7638
889.84         86.0296
890.24        86.49104
890.64        86.92022
891.04        86.96284
891.44        86.56067
891.84        85.86279
892.24        85.11626
892.64        84.69578
893.04        84.70386
893.44        85.02483
893.83        85.52484
894.23        85.92025
894.63        86.13515
895.03        86.22353
895.43        86.23468
895.83         86.2446
896.23        86.28275
896.63        86.32848
897.02        86.31519
897.42        86.20928
897.82         86.0011
898.22        85.72706
898.62        85.52221
899.01        85.61354
899.41         86.0119
899.81        86.65392
900.21        87.33999
900.61        87.74193
901.00        87.75896
901.40        87.48943
901.80        87.08913
902.20        86.82835
902.59        86.79361
902.99        86.88668
903.39        87.02224
903.79        87.04535
904.18        86.91525
904.58        86.73138
904.98        86.54423
905.38        86.42644
905.77        86.38486
906.17        86.37545
906.57        86.40147
906.96        86.50221
907.36        86.63692
907.76        86.83508
908.15        86.98831
908.55        86.83198
908.95        86.36845
909.34        85.64285
909.74        84.96047
910.14        84.73845
910.53        85.06629
910.93        85.81354
911.33         86.6494
911.72        87.00064
912.12        86.72472
912.52        86.03365
912.91        85.26051
913.31        84.93102
913.70        85.13774
914.10        85.70272
914.49         86.4276
914.89        86.86484
915.29        86.89621
915.68        86.66656
916.08        86.32422
916.47        86.09676
916.87        86.07533
917.26        86.14244
917.66        86.28756
918.05        86.46786
918.45        86.64275
918.84        86.86743
919.24        87.03306
919.64        87.03853
920.03        86.89043
920.42        86.61063
920.82        86.32767
921.21        86.23797
921.61        86.36583
922.00        86.67136
922.40        87.05161
922.79        87.41856
923.19        87.67165
923.58        87.87584
923.98        87.95801
924.37        87.86367
924.77        87.59221
925.16        87.14661
925.55        86.68465
925.95        86.47969
926.34        86.60774
926.74        86.98838
927.13        87.46257
927.52        87.65762
927.92         87.5227
928.31        87.15819
928.70        86.78145
929.10        86.71304
929.49        87.02629
929.89        87.56471
930.28        88.22482
930.67        88.68177
931.07         88.8056
931.46        88.71986
931.85        88.46438
932.24         88.1416
932.64        87.81783
933.03        87.48528
933.42        87.20879
933.82        87.09002
934.21        87.15574
934.60        87.37861
934.99        87.72105
935.39        88.07816
935.78        88.43164
936.17        88.76393
936.56        88.99216
936.96        88.98491
937.35        88.78305
937.74         88.4118
938.13        87.98895
938.53        87.68487
938.92        87.54549
939.31        87.52392
939.70        87.60931
940.09        87.76674
940.49        87.93555
940.88         88.1525
941.27        88.32676
941.66        88.32789
942.05        88.14614
942.44         87.8315
942.84        87.49773
943.23        87.29395
943.62         87.2949
944.01        87.45222
944.40         87.7293
944.79        88.05226
945.18        88.35141
945.57        88.60412
945.97        88.73341
946.36        88.69257
946.75         88.4529
947.14        88.05289
947.53        87.51209
947.92        86.88467
948.31        86.24857
948.70        85.64098
949.09        85.20623
949.48        85.14248
949.87        85.46457
950.26        86.09893
950.65        86.85887
951.04        87.44221
951.43        87.74977
951.82         87.8343
952.21        87.76601
952.60        87.69518
952.99        87.67827
953.38        87.66428
953.77        87.63612
954.16         87.5747
954.55        87.47324
954.94         87.3546
955.33        87.23577
955.72        87.12789
956.11        87.03642
956.50        86.96844
956.89        86.90189
957.28        86.78761
957.66        86.66745
958.05        86.56036
958.44        86.53154
958.83        86.67668
959.22         86.9801
959.61        87.31128
960.00        87.68588
960.39        88.14085
960.78        88.63036
961.16        89.21009
961.55        89.44791
961.94        88.75921
962.33        87.13213
962.72        84.86797
963.11        82.73306
963.49        81.82963
963.88        82.37342
964.27        84.05533
964.66        86.26518
965.04        87.86636
965.43        88.34281
965.82        88.04631
966.21        87.36268
966.60        86.91891
966.98        86.93042
967.37        87.12737
967.76        87.40762
968.15        87.58691
968.53        87.60511
968.92        87.56933
969.31        87.51878
969.69        87.44492
970.08        87.34302
970.47        87.19083
970.86        87.07206
971.24        87.17295
971.63        87.45296
972.02        87.87128
972.40        88.28236
972.79        88.36347
973.17        88.14297
973.56        87.63931
973.95        87.05986
974.33        86.74091
974.72        86.76778
975.11        87.05042
975.49        87.41528
975.88        87.57681
976.26        87.48385
976.65         87.2094
977.04        86.87049
977.42        86.65402
977.81        86.55075
978.19        86.45175
978.58        86.48991
978.96        86.87534
979.35        87.55449
979.74        88.53809
980.12        89.40573
980.51        89.23296
980.89        87.99712
981.28        85.83231
981.66        83.58083
982.05        82.78326
982.43        83.83865
982.82        86.20715
983.20        88.94824
983.59        90.43427
983.97        90.35462
984.35        89.13628
984.74        87.33166
985.12        85.97707
985.51        85.45028
985.89        85.41241
986.28        85.71954
986.66        86.23547
987.04        86.83183
987.43        87.59439
987.81        88.30667
988.20        88.42049
988.58        87.89519
988.96        86.83425
989.35        85.58598
989.73        84.83675
990.12        84.71524
990.50        85.08913
990.88         85.7804
991.27        86.32049
991.65        86.49609
992.03        86.47868
992.42        86.23071
992.80        85.86553
993.18        85.33338
993.56        84.54623
993.95        83.76373
994.33        83.59909
994.71        84.26838
995.10        85.46107
995.48        86.67034
995.86        87.35973
996.24        87.51216
996.63         87.1891
997.01        86.74357
997.39         86.7346
997.77        87.33642
998.15        88.33008
998.54        89.21941
998.92        89.34158
999.30        88.58336
999.68        87.14745
1000.06        85.51138
1000.45        84.52795
1000.83        84.57327
1001.21        85.33736
1001.59        86.33521
1001.97        86.83417
1002.35        86.65071
1002.73        86.02074
1003.12        85.18661
1003.50        84.59078
1003.88        84.47883
1004.26         84.6298
1004.64        84.99171
1005.02        85.54878
1005.40        86.24606
1005.78        87.12222
1006.16        87.90755
1006.54        88.08603
1006.92        87.54807
1007.30        86.44263
1007.69        85.22652
1008.07        84.57609
1008.45        84.74815
1008.83        85.51623
1009.21        86.49551
1009.59         87.1414
1009.97        87.25143
1010.35        86.87447
1010.73        86.12643
1011.11        85.34688
1011.49        84.80215
1011.86        84.64256
1012.24        84.41382
1012.62        83.66802
1013.00        82.41261
1013.38         80.8414
1013.76        79.75684
1014.14        80.48811
1014.52        83.30567
1014.90        87.81835
1015.28         92.8436
1015.66        95.95934
1016.04        96.23912
1016.41        94.42432
1016.79        91.42137
1017.17        89.03425
1017.55           87.84
1017.93        87.39919
1018.31        87.58414
1018.69        88.19122
1019.06        89.12075
1019.44        90.48838
1019.82        92.08449
1020.20        93.25552
1020.58        93.65828
1020.95        93.27406
1021.33        92.28118
1021.71        90.86899
1022.09        89.14177
1022.46        87.06153
1022.84        84.86327
1023.22        82.84874
1023.60        81.15699
1023.97        79.65478
1024.35        78.60409
1024.73        78.03374
