SpectraSmart Spectrum 2.9.0.0
--------- Device Information -----------
Spectrum Name :  反射率_0
Saving Time :  2024/04/27 23:50:03
Spectro-Module Model Name : SE2030-DUVN
Spectro-Module Serial Number : OS361AC55029948
Wavelength Start : 200
Wavelength End : 1025
Wavelength Unit : Wavelength(nm)
Spectrum Unit : Reflectance(%)
-----------Spectrum Setting ------------
Integration Time : 20ms
Average : 10
Boxcar : 0
Background removal :  enabled
linearity correction :  enabled
SC :  disabled
Intensity correction :  disabled
DWT denoise :  enabled
savitzky-golay :  disabled
FFT :  disabled
Running average :  disabled
Kalman :  disabled
High pass :  disabled
---------------BEGIN--------------------
Wavelength(nm)             Reflectance(%)
200.29               0
200.75        99.52084
201.21        102.9424
201.67        103.8989
202.13        103.2267
202.58        101.3532
203.04        99.07262
203.50        96.62457
203.96        94.87531
204.42        94.05514
204.88         93.7101
205.34        93.68913
205.80        93.93552
206.26        94.23573
206.72        94.39529
207.18        93.75255
207.64        90.82088
208.10         86.9017
208.55        84.86556
209.01        82.95718
209.47        79.30667
209.93        71.97486
210.39        53.88375
210.85        3.432095
211.31       -38.13412
211.77        49.67535
212.23        95.70119
212.69        109.8775
213.14        113.5899
213.60        112.1111
214.06        105.7332
214.52        92.05799
214.98        77.04368
215.44        73.24065
215.90        76.78521
216.36        81.30094
216.81        83.49042
217.27        83.67761
217.73        83.22604
218.19        82.44033
218.65        81.47797
219.11        80.49521
219.57        79.18681
220.02        77.36433
220.48        76.13201
220.94        75.61722
221.40        75.63255
221.86        76.15814
222.32        77.14586
222.77        78.20862
223.23        79.01604
223.69        79.11237
224.15        77.85889
224.61        75.23434
225.06        71.41673
225.52        67.04335
225.98        63.47834
226.44        61.57956
226.90        60.79633
227.36          60.741
227.81        61.02388
228.27        61.46041
228.73        62.02691
229.19        62.21808
229.65        61.07809
230.10         58.4417
230.56        55.08292
231.02        51.73178
231.48        49.44868
231.93         48.3945
232.39        48.30273
232.85        49.04522
233.31        50.49109
233.77        52.38943
234.22        54.71944
234.68          56.832
235.14        57.96515
235.60        58.03653
236.05        57.11052
236.51        55.91722
236.97        56.07156
237.43        58.12574
237.88        61.74437
238.34        65.45668
238.80        68.05875
239.26        69.45425
239.71        70.02603
240.17        70.32825
240.63        72.63996
241.08         77.3584
241.54        81.59721
242.00        84.49265
242.46        86.87993
242.91        89.91022
243.37        94.73917
243.83        104.1935
244.28        118.4877
244.74        124.7935
245.20        119.2489
245.66        111.2125
246.11        106.1838
246.57        103.2059
247.03         100.006
247.48        96.96957
247.94        97.34265
248.40        103.0312
248.85        112.1448
249.31        119.3994
249.77        120.1619
250.22         116.219
250.68        110.4136
251.14        105.6895
251.59        104.7285
252.05        107.7525
252.51        114.4154
252.96        122.9927
253.42        125.9467
253.88        119.4633
254.33        108.7505
254.79        100.0478
255.25        95.18751
255.70        92.75282
256.16         91.7795
256.62        91.34081
257.07        90.75491
257.53        90.34415
257.99        89.83909
258.44        88.62464
258.90        86.69854
259.35        83.82653
259.81        80.81033
260.27        77.96486
260.72        75.79596
261.18        74.66333
261.63        73.87223
262.09        73.29607
262.55        72.27193
263.00        70.67107
263.46        68.92263
263.91        67.11667
264.37        65.82842
264.83        65.01792
265.28        64.43397
265.74        63.97112
266.19        63.21802
266.65        62.20995
267.11        61.01952
267.56        59.72136
268.02        58.54799
268.47        57.51571
268.93        56.57409
269.38        55.70639
269.84        54.93744
270.30         54.2294
270.75        53.56373
271.21        52.84189
271.66        51.84635
272.12        50.57995
272.57         49.0816
273.03        47.54154
273.48        46.16087
273.94        45.07685
274.39        44.19749
274.85        43.50474
275.31        42.85812
275.76        42.18821
276.22        41.55799
276.67        40.94442
277.13         40.4403
277.58        39.97653
278.04         39.5677
278.49        39.06942
278.95        38.42011
279.40        37.56519
279.86        36.62941
280.31        35.68659
280.77        34.98275
281.22         34.5094
281.68          34.248
282.13        34.06395
282.59        33.83674
283.04        33.50602
283.50        33.13646
283.95        32.76856
284.41        32.51447
284.86        32.37712
285.32        32.34675
285.77        32.33936
286.22        32.29004
286.68        32.19842
287.13        32.04024
287.59        31.91463
288.04         31.8853
288.50        31.98879
288.95        32.16228
289.41        32.32455
289.86        32.29499
290.32        32.09033
290.77         31.7844
291.22        31.52965
291.68        31.54011
292.13        31.85929
292.59        32.44231
293.04        33.21515
293.50         34.0879
293.95        35.00497
294.40        35.99959
294.86        37.06473
295.31        38.17793
295.77        39.34953
296.22        40.56207
296.68        41.83904
297.13        43.19271
297.58        44.62423
298.04        46.12508
298.49         47.6783
298.95        49.30872
299.40        51.01307
299.85        52.79479
300.31        54.65991
300.76        56.55165
301.21        58.44381
301.67         60.3469
302.12        62.19262
302.58        63.98011
303.03        65.68639
303.48        67.35677
303.94        69.08401
304.39        70.91711
304.84        72.89293
305.30        74.98514
305.75        77.10126
306.20        79.19762
306.66         81.2611
307.11        83.24776
307.57         85.1514
308.02        86.83644
308.47        88.31236
308.93        89.62127
309.38        90.80704
309.83        92.04863
310.29        93.40751
310.74         94.8167
311.19        96.22483
311.65         97.5117
312.10        98.60431
312.55        99.54524
313.00        100.3821
313.46        101.2004
313.91        102.0084
314.36        102.7918
314.82        103.5147
315.27        104.1161
315.72        104.5896
316.18        104.9869
316.63        105.3365
317.08        105.7182
317.53        106.1562
317.99        106.6157
318.44        107.1023
318.89         107.598
319.35        108.0814
319.80        108.5624
320.25        108.9872
320.70        109.2777
321.16        109.4169
321.61        109.4524
322.06        109.4596
322.51        109.5759
322.97        109.8204
323.42        110.1888
323.87        110.6082
324.32        110.9746
324.78        111.2346
325.23        111.4596
325.68        111.6414
326.13        111.7978
326.59        111.9158
327.04        112.0322
327.49        112.1621
327.94        112.3745
328.39        112.6846
328.85        113.0517
329.30         113.485
329.75        113.8208
330.20        114.0263
330.66        114.1053
331.11        114.2124
331.56        114.4794
332.01        114.9509
332.46        115.5787
332.92        116.2215
333.37        116.7967
333.82        117.1973
334.27        117.4654
334.72        117.6721
335.17        117.9385
335.63        118.2821
336.08        118.7324
336.53        119.2176
336.98        119.6678
337.43        120.0632
337.88        120.4239
338.34        120.7904
338.79        121.2833
339.24         121.893
339.69         122.577
340.14        123.2313
340.59        123.6921
341.05        123.9327
341.50        124.0295
341.95        124.0758
342.40        124.2371
342.85        124.5608
343.30        124.9789
343.75        125.4768
344.20        126.0266
344.66        126.5984
345.11        127.2045
345.56        127.7226
346.01         127.952
346.46        127.8793
346.91        127.5693
347.36        127.2541
347.81        127.2974
348.26        127.7634
348.72        128.5357
349.17        129.3655
349.62        129.8745
350.07        129.9526
350.52        129.7074
350.97        129.3031
351.42        129.0055
351.87        128.8961
352.32        128.8974
352.77         128.901
353.22        128.7461
353.67        128.3958
354.13        127.9222
354.58        127.4083
355.03        127.0404
355.48        126.8456
355.93        126.7497
356.38        126.6053
356.83        126.1897
357.28        125.4603
357.73        124.5052
358.18        123.4612
358.63        122.5322
359.08        121.7864
359.53         121.179
359.98        120.6446
360.43        120.0792
360.88        119.4446
361.33        118.7574
361.78         118.076
362.23        117.4828
362.68          116.98
363.13        116.5439
363.58        116.0468
364.03        115.2244
364.48        114.1721
364.93        112.8827
365.38        111.5694
365.83        110.5092
366.28        109.7673
366.73        109.2537
367.18        108.8378
367.63        108.3061
368.08        107.5945
368.53         106.778
368.98        105.9029
369.43         105.041
369.88        104.2269
370.33        103.4272
370.78        102.6724
371.23        102.0214
371.68        101.4733
372.13        101.0117
372.58        100.5645
373.03        100.0087
373.48        99.31546
373.93        98.52151
374.38        97.68639
374.83        96.90408
375.28        96.20668
375.72        95.55569
376.17        94.96478
376.62        94.38306
377.07        93.79623
377.52        93.20641
377.97        92.63723
378.42        92.12395
378.87        91.66601
379.32        91.25238
379.77        90.81332
380.22        90.24052
380.67        89.52086
381.11        88.69619
381.56        87.87354
382.01        87.24306
382.46        86.85998
382.91        86.67583
383.36        86.57938
383.81        86.39034
384.26        86.05773
384.71         85.6281
385.15        85.16633
385.60        84.83664
386.05        84.64618
386.50         84.5351
386.95        84.41828
387.40        84.17714
387.85        83.79425
388.29        83.27517
388.74        82.78008
389.19        82.33904
389.64        81.95676
390.09        81.57967
390.54        81.20736
390.98        80.84439
391.43        80.55514
391.88        80.30446
392.33        80.00086
392.78        79.74474
393.23        79.51794
393.67        78.75192
394.12        77.76484
394.57        78.14211
395.02        78.53218
395.47        78.56728
395.91        77.90763
396.36        77.64053
396.81        77.78676
397.26        77.73875
397.71        77.47477
398.15        77.19625
398.60         76.9894
399.05        76.68144
399.50        76.34205
399.95        76.19783
400.39        76.19462
400.84        75.99746
401.29        75.61418
401.74        75.20225
402.18        74.85992
402.63        74.72777
403.08         74.7767
403.53         74.7147
403.97        74.52288
404.42        74.42429
404.87         74.3831
405.32         74.2923
405.76        74.13001
406.21        73.83466
406.66         73.5163
407.11        73.49927
407.55        73.71604
408.00         73.8248
408.45        73.72643
408.90        73.11675
409.34        72.26076
409.79        72.21199
410.24        72.83784
410.68        73.01528
411.13        72.68148
411.58        72.52074
412.03        72.58861
412.47        72.65102
412.92        72.68097
413.37        72.75248
413.81        72.81727
414.26        72.86198
414.71        72.86199
415.15        72.83601
415.60        72.76739
416.05        72.70077
416.49        72.65725
416.94        72.61774
417.39        72.59271
417.83        72.59569
418.28        72.61694
418.73        72.63377
419.17        72.64807
419.62        72.66495
420.07        72.69335
420.51        72.74018
420.96        72.76276
421.41         72.7028
421.85        72.54095
422.30        72.17816
422.74        71.77473
423.19        72.05003
423.64        72.85852
424.08        73.25765
424.53        73.07701
424.98        73.08305
425.42        73.30073
425.87        73.02018
426.31        72.44983
426.76        72.60461
427.21        73.36085
427.65        73.54444
428.10         73.1328
428.54        73.07024
428.99        73.40862
429.44        73.57253
429.88        73.52951
430.33        73.62426
430.77        73.74168
431.22        73.71404
431.66        73.61296
432.11        73.72427
432.56        74.11322
433.00        74.49007
433.45        74.49016
433.89        74.36205
434.34        74.42579
434.78        72.90304
435.23        73.48349
435.67         74.4883
436.12        74.87694
436.57        75.01314
437.01        74.54221
437.46        74.35797
437.90        74.67641
438.35        75.50459
438.79        75.23105
439.24        75.28864
439.68        75.23751
440.13        75.11707
440.57         75.0203
441.02        75.19764
441.46        75.53111
441.91        75.64336
442.35        75.52924
442.80         75.3689
443.24        76.06599
443.69        76.12069
444.13        75.81949
444.58        76.08775
445.02        76.12597
445.47        76.39676
445.91        76.61593
446.36        76.68233
446.80        76.51927
447.24        76.95222
447.69        76.51794
448.13        76.72764
448.58        77.05663
449.02        77.07265
449.47         76.8152
449.91        76.72006
450.36        76.84065
450.80        76.88185
451.25        76.86986
451.69        76.94438
452.13        77.08731
452.58        77.18933
453.02        77.21285
453.47        77.14258
453.91        76.96664
454.36        76.80422
454.80        76.61144
455.24        76.19356
455.69        75.73228
456.13        75.44807
456.58        75.41758
457.02        75.83015
457.46        76.32497
457.91        76.06048
458.35        75.41914
458.79        75.10075
459.24        75.22413
459.68        75.27193
460.13        75.24823
460.57        75.00607
461.01        74.76766
461.46         74.7877
461.90        74.55904
462.34        74.17084
462.79        74.49179
463.23        74.35368
463.68         74.1203
464.12        73.89156
464.56        73.78424
465.01        74.14924
465.45        74.62643
465.89        74.55155
466.34        74.06323
466.78        73.50088
467.22        72.94038
467.67        73.84806
468.11        73.36095
468.55        73.53629
468.99        73.49405
469.44        73.50996
469.88        73.55306
470.32        73.45134
470.77        73.24642
471.21        73.07356
471.65        72.95561
472.10        72.85602
472.54        72.75844
472.98        72.70456
473.42        72.69342
473.87        72.67641
474.31        72.61436
474.75        72.67323
475.20        72.75126
475.64        72.57671
476.08        72.23827
476.52        72.01054
476.97        71.87319
477.41        72.32767
477.85         72.1204
478.29        72.14806
478.74        72.82932
479.18        72.36802
479.62        72.41596
480.06        72.25028
480.50        72.31506
480.95        72.32541
481.39        72.21643
481.83        72.19655
482.27        72.27687
482.72        71.93774
483.16        72.17557
483.60        72.12508
484.04        72.04211
484.48        71.91653
484.93        72.01344
485.37        72.16216
485.81        72.28757
486.25        73.42694
486.69        74.01211
487.14        72.94846
487.58        71.75487
488.02        72.22408
488.46        72.11248
488.90        72.39513
489.34        71.96706
489.79        71.02241
490.23        71.91836
490.67        71.86913
491.11        71.63818
491.55        71.56318
491.99        71.65312
492.43        71.66048
492.88        71.54803
493.32        71.44851
493.76         71.3961
494.20        71.44503
494.64         71.5993
495.08        71.85538
495.52        72.14281
495.96        72.27307
496.41        72.13945
496.85        72.21933
497.29        71.47344
497.73        71.45119
498.17        71.68504
498.61        71.80714
499.05        71.68816
499.49        71.64011
499.93        71.68859
500.37        71.43977
500.82        70.97824
501.26        71.10634
501.70        71.87688
502.14        71.28078
502.58        71.83735
503.02        71.88918
503.46        71.88147
503.90        71.82755
504.34         71.6741
504.78        71.58041
505.22        71.48162
505.66        71.30995
506.10        71.19736
506.54        71.18433
506.98        71.07975
507.42        72.26908
507.86        71.34081
508.30        71.46551
508.74        71.63419
509.18        71.65627
509.62        71.51559
510.06        71.39648
510.50        71.34791
510.94        71.29113
511.38        71.23289
511.82        71.17664
512.26           71.12
512.70        71.07856
513.14        71.05329
513.58        71.01032
514.02        70.94656
514.46        70.92046
514.90        70.95801
515.34         70.8493
515.78        71.00371
516.22        71.07725
516.66        71.17592
517.10        71.26479
517.54        71.33509
517.98        71.38828
518.42        71.40776
518.86        71.38136
519.30         71.3101
519.74        71.19744
520.18        71.08083
520.62        71.01763
521.06        71.02155
521.50        71.08488
521.93         71.1642
522.37        71.17106
522.81        71.09464
523.25        70.95707
523.69        70.82297
524.13        70.79357
524.57        70.88598
525.01        71.06439
525.45        71.25002
525.89        71.32022
526.32        71.24179
526.76        71.06751
527.20        70.86667
527.64        70.75835
528.08        70.77154
528.52         70.8654
528.96        70.98409
529.40        71.04056
529.83        71.00619
530.27        70.92802
530.71        70.82905
531.15        70.75313
531.59        70.71454
532.03        70.69336
532.46        70.68285
532.90        70.69714
533.34         70.7267
533.78        70.77505
534.22        70.81552
534.66        70.80447
535.09        70.72899
535.53        70.62193
535.97        70.51423
536.41        70.47277
536.85        70.51161
537.28        70.61322
537.72         70.7348
538.16        70.79658
538.60        70.78176
539.04        70.72819
539.47        70.65397
539.91        70.62709
540.35        70.64388
540.79        70.69928
541.22        70.75397
541.66        70.75691
542.10        70.69363
542.54        70.58115
542.97        70.45804
543.41        70.42097
543.85        70.47395
544.29        70.60034
544.72        70.72202
545.16        70.75394
545.60        70.66315
546.04        70.47216
546.47        70.27512
546.91         70.2263
547.35           70.34
547.79        70.59197
548.22        70.84361
548.66        70.84608
549.10        70.61572
549.53        70.47702
549.97        70.47559
550.41        70.46583
550.84        70.46444
551.28        70.52496
551.72        70.63052
552.15        70.81407
552.59        70.97812
553.03        70.91813
553.46        70.41284
553.90         70.2726
554.34         70.4365
554.77        70.55411
555.21        70.57001
555.65        70.75739
556.08        70.90761
556.52        70.65656
556.96        70.12745
557.39        70.00078
557.83        70.28284
558.27        70.46795
558.70        70.49107
559.14        70.45684
559.57        70.38625
560.01        70.48814
560.45        70.68784
560.88        70.62857
561.32        70.40797
561.75        70.28751
562.19        70.32431
562.63        70.46577
563.06        70.62241
563.50        70.53893
563.93        70.26557
564.37        70.20353
564.80        70.37296
565.24        70.57192
565.68        70.73494
566.11        70.82513
566.55        70.84651
566.98        70.80962
567.42        70.76588
567.85        70.70513
568.29        70.71721
568.72        70.76764
569.16        70.86183
569.60        71.02347
570.03         71.2392
570.47        70.96485
570.90        71.12762
571.34        71.28452
571.77          71.255
572.21        71.32337
572.64        71.30233
573.08        71.28372
573.51        71.07297
573.95        71.20907
574.38        71.53915
574.82        71.19342
575.25        71.60794
575.69        71.52137
576.12        71.25803
576.56        71.18429
576.99        71.55052
577.42        71.72031
577.86        71.93798
578.29        71.76868
578.73         71.8521
579.16        71.74972
579.60         71.5687
580.03        71.43938
580.47        71.25986
580.90        71.67843
581.33        71.58138
581.77        71.61047
582.20        71.86837
582.64        71.86112
583.07         71.5334
583.51        71.31348
583.94        71.41897
584.37        71.29372
584.81        71.03674
585.24        71.19577
585.68         71.7088
586.11        71.63279
586.54        71.37727
586.98        71.33655
587.41        71.75809
587.85        71.56342
588.28        71.26554
588.71        71.26504
589.15        71.55458
589.58        70.94907
590.01        71.28502
590.45        71.39947
590.88        70.76813
591.31        70.74737
591.75        70.93759
592.18        70.84031
592.61        70.73853
593.05        70.71841
593.48        71.53226
593.91        71.55025
594.35        71.19403
594.78        71.35854
595.21         70.8017
595.65        71.20318
596.08        70.79453
596.51        70.84142
596.94        70.84085
597.38        70.90498
597.81        71.08789
598.24        70.79319
598.68        70.95195
599.11        71.10165
599.54         71.3513
599.97        71.41184
600.41        71.30315
600.84        71.25568
601.27        71.25854
601.70        71.16885
602.14        70.80077
602.57        71.04257
603.00         71.0144
603.43        71.21758
603.87        71.35316
604.30        70.95556
604.73        70.96031
605.16        71.14685
605.60        71.02479
606.03        71.35033
606.46        71.77344
606.89        71.56565
607.32        71.34637
607.76        71.49599
608.19        71.25922
608.62        71.16541
609.05        71.00276
609.48        70.95744
609.92        70.95296
610.35        71.17913
610.78         71.0808
611.21        70.72086
611.64        71.27292
612.07        71.21627
612.50        70.96455
612.94        70.92175
613.37        71.18126
613.80        70.96776
614.23        71.20637
614.66        71.26012
615.09        71.33031
615.52        71.33843
615.96        71.36576
616.39        70.85872
616.82        71.08655
617.25           71.14
617.68        71.12194
618.11        70.95284
618.54        70.71065
618.97          70.853
619.40        71.20862
619.84        71.61808
620.27        71.25346
620.70        70.93391
621.13        70.48848
621.56        70.78594
621.99        70.78375
622.42        70.77608
622.85        70.68045
623.28        71.23799
623.71        70.83829
624.14        70.60633
624.57        70.90784
625.00        70.84058
625.43        70.65762
625.86        70.58196
626.29        70.61702
626.72        70.75703
627.15        70.53069
627.58        70.56335
628.01        70.80988
628.44        70.39319
628.87        70.34586
629.30        70.75265
629.73        70.62646
630.16        69.98701
630.59        70.33928
631.02        70.32678
631.45        70.44009
631.88        70.53686
632.31        70.64052
632.74        70.43148
633.17        70.59911
633.60        70.57511
634.03         70.5647
634.46        70.55629
634.89        70.55215
635.32        70.52563
635.75        70.47029
636.18        70.44588
636.61        70.44553
637.04        70.36734
637.47        70.25017
637.89        70.29596
638.32        70.45488
638.75        70.51729
639.18        70.46267
639.61        70.41534
640.04        70.39784
640.47        70.33147
640.90        70.21079
641.33        70.17024
641.76        70.25409
642.18          69.908
642.61        70.12689
643.04        70.09942
643.47         70.1116
643.90        70.11492
644.33        70.10896
644.76        70.09342
645.18         70.0575
645.61        70.00412
646.04        69.93749
646.47        69.85414
646.90        69.78883
647.33        69.79762
647.75        69.89397
648.18        70.06419
648.61        70.24096
649.04        70.34662
649.47        70.34914
649.89        70.17523
650.32        69.93356
650.75        69.94395
651.18         70.1755
651.61        70.32709
652.03        70.29588
652.46        70.08922
652.89        69.88786
653.32        69.68504
653.74        69.87444
654.17        70.45185
654.60        70.34438
655.03        70.06844
655.46        70.12347
655.88        71.05366
656.31        73.16218
656.74        75.83569
657.16        73.92081
657.59        71.95795
658.02        70.83408
658.45        71.10139
658.87        71.13574
659.30           71.41
659.73        71.01283
660.15        70.36694
660.58        70.28927
661.01         70.4136
661.44        70.82462
661.86        70.85953
662.29        70.50765
662.72        70.25393
663.14        70.19546
663.57        70.28027
664.00        70.46133
664.42        70.52462
664.85        70.45689
665.27        70.42007
665.70        70.42292
666.13        70.40047
666.55         70.3587
666.98        70.30336
667.41        70.26722
667.83         70.3012
668.26        70.40494
668.69         70.5773
669.11        70.74915
669.54        70.82567
669.96        70.79746
670.39        70.60677
670.82        70.37492
671.24        70.46371
671.67        70.81615
672.09        70.98657
672.52        70.95127
672.94        70.90122
673.37        70.87585
673.80         70.8687
674.22        70.88397
674.65        70.81962
675.07        70.70113
675.50        70.60027
675.92        70.55139
676.35        70.54363
676.77        70.58524
677.20        70.68235
677.62        70.80935
678.05        70.89323
678.47        70.91811
678.90        70.93186
679.32        70.91802
679.75        70.93729
680.17        70.98495
680.60        71.05087
681.02        71.11879
681.45        71.14355
681.87        71.12692
682.30        71.07778
682.72        71.02426
683.15        70.98984
683.57        70.99979
684.00        71.02931
684.42        71.07329
684.85        71.13722
685.27        71.21172
685.70        71.26541
686.12        71.28764
686.54        71.37893
686.97        71.53394
687.39        71.40675
687.82        71.57614
688.24        71.40401
688.66        71.41236
689.09        71.29196
689.51        71.19957
689.94        71.17538
690.36        71.23474
690.78        71.33773
691.21        71.43636
691.63        71.50416
692.06        71.50115
692.48        71.33292
692.90        71.07355
693.33        70.93375
693.75        70.94787
694.17        71.02203
694.60         71.1093
695.02        71.20155
695.44        71.26998
695.87        71.30809
696.29        71.33324
696.71        71.41254
697.14        71.51154
697.56        71.53761
697.98        71.49374
698.41        71.51821
698.83        71.59571
699.25        71.68412
699.68         71.7354
700.10        71.75362
700.52        71.72092
700.94        71.64229
701.37        71.54431
701.79         71.5116
702.21        71.54047
702.64        71.62056
703.06        71.70663
703.48         71.7493
703.90        71.74213
704.33        71.69825
704.75        71.64433
705.17        71.60161
705.59        71.58122
706.01         71.5485
706.44        71.52491
706.86         71.6644
707.28        71.76115
707.70        71.99171
708.12        72.23565
708.55        72.29269
708.97        72.17933
709.39        72.14646
709.81        72.20754
710.23        72.19268
710.66        72.10804
711.08        72.09077
711.50        72.12306
711.92        72.13797
712.34         72.1329
712.76        72.12711
713.19        72.12894
713.61        72.19881
714.03        72.31821
714.45        72.46436
714.87        72.59956
715.29         72.6699
715.71        72.66303
716.13        72.59734
716.56        72.48146
716.98        72.41178
717.40        72.39007
717.82        72.40543
718.24        72.45625
718.66        72.53811
719.08        72.64027
719.50        72.75497
719.92         72.8692
720.34        72.96105
720.76        73.01968
721.19        73.04015
721.61        73.02217
722.03        72.93575
722.45        72.78909
722.87        72.60166
723.29         72.4302
723.71        72.36309
724.13        72.42395
724.55        72.58987
724.97        72.81601
725.39        73.02386
725.81        73.17986
726.23        73.29343
726.65        73.37296
727.07        73.43791
727.49        73.49381
727.91        73.52947
728.33        73.53326
728.75        73.49228
729.17           73.41
729.59        73.29987
730.01        73.19056
730.43        73.12489
730.85        73.11034
731.27        73.13029
731.69        73.17022
732.10         73.2054
732.52        73.21442
732.94         73.2622
733.36        73.34106
733.78        73.32668
734.20        73.19475
734.62        73.46249
735.04        73.02212
735.46        73.35725
735.88        73.96004
736.30        73.93548
736.72        73.33237
737.13        73.13786
737.55        73.37211
737.97        73.35068
738.39        73.10486
738.81        73.14458
739.23        73.45842
739.65        73.67974
740.06        73.68798
740.48        73.84801
740.90          73.692
741.32        73.55341
741.74        73.28236
742.16        73.19307
742.57        73.30038
742.99        73.53716
743.41        73.80656
743.83        73.91853
744.25        73.83611
744.67        73.62811
745.08        73.40346
745.50        73.28418
745.92        73.32665
746.34        73.48946
746.75        73.68687
747.17        73.78181
747.59         73.7412
748.01        73.58848
748.42        73.40465
748.84        73.35368
749.26           73.44
749.68        73.53329
750.09        73.58522
750.51        73.57758
750.93         73.5274
751.35         73.5609
751.76         73.6703
752.18        73.69803
752.60        73.64467
753.01        73.62127
753.43        73.62068
753.85        73.60632
754.27        73.58002
754.68        73.58752
755.10        73.67053
755.52        73.69276
755.93        73.97354
756.35         74.2515
756.77         74.5389
757.18        74.72968
757.60         74.8071
758.02        74.68608
758.43        74.48972
758.85        74.57111
759.26        74.79688
759.68        74.87113
760.10        74.90377
760.51        73.83226
760.93        74.14137
761.34        74.29221
761.76        74.77033
762.18        74.81725
762.59        74.46265
763.01        74.31355
763.42        74.47803
763.84        74.52641
764.26        74.50628
764.67        74.72607
765.09        75.11602
765.50        75.23708
765.92        75.11609
766.33         75.0174
766.75        74.94155
767.16         74.8588
767.58        74.65302
768.00        74.72736
768.41        75.00242
768.83        74.75417
769.24        74.15235
769.66        74.33285
770.07        75.09522
770.49        75.14503
770.90        74.54379
771.32        74.43995
771.73        74.86249
772.15         75.0182
772.56        74.90048
772.97         74.9661
773.39         75.1738
773.80         75.1791
774.22        75.02191
774.63        75.19202
775.05        75.58104
775.46        75.72221
775.88        75.54426
776.29        75.33624
776.70        75.18919
777.12        75.15627
777.53        75.29055
777.95        75.54948
778.36        75.84491
778.77        76.01145
779.19        76.01147
779.60        75.90523
780.02        75.75325
780.43        75.70482
780.84        75.77468
781.26        75.84322
781.67        75.96198
782.09        76.19247
782.50        76.29704
782.91        76.76086
783.33        75.68779
783.74        75.51328
784.15        75.70746
784.57        75.83185
784.98        75.85799
785.39        75.99792
785.81        76.32072
786.22        76.41068
786.63        76.32401
787.04        76.33353
787.46        76.46822
787.87        76.56158
788.28        76.59797
788.70        76.65732
789.11        76.72536
789.52        76.67769
789.93        76.57697
790.35          76.783
790.76        77.20616
791.17        77.17222
791.58        76.73725
792.00        76.57949
792.41        76.76232
792.82         76.8418
793.23        76.82864
793.65        77.03932
794.06        77.46587
794.47        77.79977
794.88        77.89348
795.29        78.14689
795.71         77.8338
796.12        77.39485
796.53        76.78925
796.94        76.70653
797.35        77.10802
797.76        77.20238
798.18        76.96722
798.59        76.95663
799.00        77.16972
799.41        77.23981
799.82        77.16911
800.23        77.17319
800.64        77.26441
801.06        77.34257
801.47        77.43506
801.88        77.51199
802.29        77.56427
802.70        77.61234
803.11        77.64014
803.52        77.60864
803.93        77.52233
804.34        77.39968
804.75         77.3004
805.17         77.3111
805.58         77.4788
805.99        77.74197
806.40        78.03773
806.81        78.25758
807.22         78.3486
807.63        78.33791
808.04        78.25447
808.45        78.14095
808.86        78.01841
809.27         77.8709
809.68        77.72397
810.09         77.6284
810.50        77.60144
810.91        77.64639
811.32        77.72456
811.73        77.77477
812.14        77.78345
812.55        77.72037
812.96        77.63926
813.37        77.75129
813.78        78.02078
814.19        78.14548
814.60        78.12629
815.01        78.20403
815.42        78.38072
815.83        78.50459
816.24        78.55869
816.65        78.59306
817.05        78.60798
817.46        78.55652
817.87        78.46543
818.28          78.318
818.69        78.12275
819.10        77.89951
819.51        77.70588
819.92         77.6371
820.33        77.72108
820.74         77.9275
821.14        78.19044
821.55        78.44398
821.96        78.63907
822.37        78.78598
822.78        78.88986
823.19        78.96363
823.60        79.01345
824.00        79.05611
824.41        79.03698
824.82        78.96977
825.23        78.86438
825.64        78.73381
826.04        78.65493
826.45        78.70423
826.86        78.90154
827.27        79.21132
827.68        79.53568
828.08        79.74226
828.49        79.71822
828.90        79.54523
829.31        79.29185
829.72        79.08121
830.12        78.98554
830.53        78.92491
830.94        78.91153
831.35        78.92584
831.75        78.97762
832.16          79.029
832.57         79.0842
832.97        79.10226
833.38        79.06683
833.79        78.99927
834.20        78.91892
834.60        78.85334
835.01        78.82928
835.42        78.83109
835.82        78.89963
836.23        79.01757
836.64        79.20245
837.04        79.46575
837.45        79.71041
837.86        79.88191
838.26        79.97305
838.67        79.98215
839.08        79.95428
839.48        79.95101
839.89        79.99167
840.29        80.05557
840.70        80.14204
841.11        80.25492
841.51        80.40189
841.92        80.54121
842.33        80.64989
842.73        80.67882
843.14        80.57256
843.54        80.39202
843.95        80.17297
844.35        79.99932
844.76        79.88981
845.17        79.82335
845.57        79.82866
845.98        79.90461
846.38         80.0639
846.79        80.27878
847.19        80.48015
847.60        80.49441
848.00         80.3153
848.41        79.95027
848.81        79.56408
849.22        79.34995
849.62        79.40668
850.03        79.67007
850.43        80.02631
850.84        80.20094
851.24         80.1823
851.65        79.96183
852.05        79.78847
852.46        79.97116
852.86        80.54443
853.27        81.36852
853.67         82.0546
854.07        82.29998
854.48        82.01181
854.88        81.33686
855.29        80.40964
855.69        79.73913
856.10        79.41493
856.50        79.41594
856.90        79.55241
857.31        79.53725
857.71        79.33863
858.12        79.00182
858.52        78.69016
858.92        78.52357
859.33        78.51952
859.73        78.65322
860.13         78.8055
860.54        78.81494
860.94        78.67022
861.34        78.38543
861.75        78.02265
862.15        77.73528
862.55        77.54169
862.96        77.43298
863.36        77.34405
863.76        77.15045
864.17        76.83155
864.57        76.44585
864.97        76.14046
865.38        76.12511
865.78        76.47577
866.18        77.08849
866.58        77.73099
866.99        78.00545
867.39         77.8314
867.79        77.30332
868.19         76.6395
868.60        76.12482
869.00        75.83945
869.40        75.74155
869.80        75.78237
870.21         75.8749
870.61        76.05078
871.01        76.27385
871.41        76.53742
871.81        76.83043
872.22        77.11394
872.62        77.39587
873.02        77.63544
873.42        77.76093
873.82        77.75503
874.22        77.65723
874.63        77.53194
875.03        77.43654
875.43        77.40084
875.83        77.39263
876.23        77.43231
876.63        77.54809
877.03        77.72582
877.44        77.95384
877.84        78.12482
878.24        78.02502
878.64        77.63533
879.04        77.04118
879.44        76.44942
879.84        76.14945
880.24        76.19085
880.64        76.49072
881.04        76.88886
881.44        77.10383
881.84         77.0441
882.24        76.77968
882.65        76.41399
883.05         76.2312
883.45        76.26537
883.85        76.45177
884.25        76.67172
884.65        76.75282
885.05        76.66483
885.45        76.46658
885.85        76.29446
886.25        76.37285
886.65        76.73975
887.05        77.29744
887.45        77.85821
887.85        78.14966
888.25        78.10068
888.65        77.78269
889.04        77.32478
889.44         76.9865
889.84        76.83247
890.24        76.80314
890.64         76.8011
891.04        76.66982
891.44        76.38599
891.84        76.03217
892.24        75.71595
892.64        75.58765
893.04        75.68564
893.44        75.95292
893.83         76.3316
894.23        76.67129
894.63        76.93284
895.03        77.11399
895.43        77.23402
895.83         77.3258
896.23        77.40342
896.63        77.48063
897.02        77.47825
897.42        77.32485
897.82           77.02
898.22        76.60503
898.62        76.28577
899.01        76.40864
899.41        77.00612
899.81        77.97129
900.21        78.99572
900.61        79.57069
901.00        79.54769
901.40        79.08073
901.80        78.41915
902.20        77.98337
902.59        77.91276
902.99        78.08016
903.39         78.3576
903.79        78.51779
904.18         78.4971
904.58        78.40607
904.98        78.33696
905.38        78.42319
905.77        78.66989
906.17        78.99608
906.57        79.32162
906.96        79.54767
907.36        79.60448
907.76        79.56923
908.15        79.41396
908.55        79.01518
908.95        78.43285
909.34        77.68855
909.74        77.07114
910.14        76.96838
910.53        77.43838
910.93        78.33836
911.33        79.32385
911.72        79.79063
912.12        79.58238
912.52        78.93834
912.91        78.13251
913.31        77.59615
913.70        77.43138
914.10        77.47525
914.49          77.731
914.89        78.12701
915.29        78.61357
915.68        79.21889
916.08        79.74415
916.47        79.86672
916.87        79.55687
917.26        78.86079
917.66        78.09338
918.05        77.73488
918.45        77.88117
918.84        78.42963
919.24        79.04179
919.64        79.23243
920.03        78.90601
920.42        78.23331
920.82        77.51388
921.21        77.19397
921.61        77.37161
922.00        77.90662
922.40        78.61231
922.79        79.25062
923.19         79.6592
923.58        79.94617
923.98        80.05807
924.37        79.97021
924.77        79.69817
925.16         79.2271
925.55        78.72096
925.95        78.47701
926.34        78.57211
926.74        78.92316
927.13        79.37537
927.52        79.55871
927.92        79.41351
928.31        79.04092
928.70        78.62138
929.10        78.41823
929.49            78.5
929.89        78.74183
930.28        79.09315
930.67        79.34137
931.07        79.39768
931.46        79.35149
931.85        79.21653
932.24        79.04672
932.64         78.8744
933.03        78.68958
933.42        78.51955
933.82        78.41129
934.21        78.38017
934.60        78.41805
934.99        78.52403
935.39         78.6599
935.78        78.84354
936.17        79.07478
936.56        79.29647
936.96        79.40379
937.35        79.42867
937.74        79.36095
938.13        79.29955
938.53        79.40485
938.92        79.69576
939.31        80.10091
939.70        80.50587
940.09        80.69991
940.49        80.59863
940.88        80.32447
941.27        79.92519
941.66         79.4791
942.05        79.03996
942.44        78.59568
942.84        78.25918
943.23        78.16158
943.62        78.33864
944.01        78.74502
944.40        79.21162
944.79        79.42476
945.18        79.29128
945.57        78.90251
945.97        78.36857
946.36        77.93046
946.75        77.63659
947.14        77.43531
947.53        77.33582
947.92        77.35229
948.31        77.47592
948.70        77.71573
949.09        78.01371
949.48        78.26579
949.87        78.44251
950.26        78.55184
950.65        78.62894
951.04        78.74908
951.43        78.92142
951.82        79.10135
952.21        79.24416
952.60        79.28358
952.99         79.1933
953.38        79.00154
953.77        78.71606
954.16        78.33704
954.55        77.88716
954.94        77.39128
955.33        76.89997
955.72        76.49627
956.11        76.20892
956.50        76.02087
956.89        75.94505
957.28        75.97788
957.66        76.14052
958.05        76.43977
958.44        76.77982
958.83         77.0037
959.22        77.07327
959.61        76.96131
960.00        76.89754
960.39        77.26622
960.78        78.10603
961.16        79.34206
961.55        80.43286
961.94        80.56294
962.33        79.57739
962.72        77.80294
963.11         75.9174
963.49        74.90739
963.88        75.00016
964.27        75.91818
964.66        77.22215
965.04        78.12218
965.43         78.2395
965.82        77.85452
966.21        77.24611
966.60         76.8383
966.98        76.77108
967.37        76.85875
967.76        76.98219
968.15        76.92979
968.53        76.67228
968.92        76.33794
969.31        76.08087
969.69        76.08408
970.08        76.37628
970.47        76.87132
970.86        77.53655
971.24        78.33062
971.63        79.09805
972.02        79.82549
972.40          80.395
972.79        80.52461
973.17        80.28321
973.56        79.68565
973.95        78.95814
974.33        78.48244
974.72         78.3694
975.11        78.51042
975.49        78.76669
975.88        78.90409
976.26        78.86208
976.65        78.73217
977.04        78.48438
977.42        78.05062
977.81        77.39583
978.19        76.47798
978.58        75.71989
978.96        75.81898
979.35        76.86255
979.74        78.70282
980.12        80.62255
980.51        81.22554
980.89        80.33487
981.28        78.21415
981.66        75.81165
982.05        74.89478
982.43        75.95451
982.82        78.37725
983.20        81.21259
983.59        82.84601
983.97        82.94214
984.35        81.90984
984.74        80.28326
985.12         79.0276
985.51        78.49457
985.89        78.39643
986.28        78.49459
986.66        78.51824
987.04        78.35635
987.43         78.1476
987.81        77.97106
988.20        77.81905
988.58        77.74846
988.96        77.68034
989.35        77.56037
989.73        77.43346
990.12        77.26556
990.50        77.08694
990.88        76.90475
991.27        76.73946
991.65        76.65009
992.03        76.67496
992.42        76.78139
992.80        77.18057
993.18        77.80515
993.56        78.63792
993.95        79.65211
994.33        80.45856
994.71        80.84983
995.10        80.89056
995.48        80.68246
995.86        80.25296
996.24        79.64175
996.63        78.75897
997.01        77.94919
997.39        77.84758
997.77        78.64873
998.15        80.12715
998.54        81.66147
998.92         82.4108
999.30        82.21175
999.68        81.29377
1000.06        80.04005
1000.45        79.17268
1000.83        79.03094
1001.21        79.29874
1001.59        79.76347
1001.97        80.10193
1002.35        80.21177
1002.73        80.30559
1003.12        80.22324
1003.50        79.53823
1003.88         78.3483
1004.26        76.82949
1004.64        75.66029
1005.02        75.71066
1005.40        77.01734
1005.78        79.31225
1006.16        81.83237
1006.54        83.15675
1006.92        82.82663
1007.30        81.22968
1007.69        79.10411
1008.07        77.62895
1008.45        77.28214
1008.83        77.71178
1009.21        78.45728
1009.59         78.8451
1009.97        78.64655
1010.35        78.02596
1010.73        77.23947
1011.11        76.85616
1011.49        77.16483
1011.86        78.07293
1012.24        78.93682
1012.62        79.17036
1013.00        78.70437
1013.38        77.74173
1013.76        76.85418
1014.14        76.99443
1014.52        78.39537
1014.90        80.79125
1015.28        83.50381
1015.66        85.13489
1016.04        85.19135
1016.41        84.22895
1016.79        82.68544
1017.17        81.61124
1017.55        81.30882
1017.93        81.43719
1018.31        82.02451
1018.69        83.13938
1019.06        84.75182
1019.44        86.93223
1019.82        89.07777
1020.20        89.83398
1020.58        88.83047
1020.95        86.46635
1021.33        83.81117
1021.71        82.17602
1022.09        81.74358
1022.46        82.06969
1022.84        82.71122
1023.22         82.6926
1023.60        81.67293
1023.97        79.85634
1024.35         77.5848
1024.73        75.36082
