SpectraSmart Spectrum 2.9.0.0
--------- Device Information -----------
Spectrum Name :  反射率_0
Saving Time :  2024/04/27 23:39:48
Spectro-Module Model Name : SE2030-DUVN
Spectro-Module Serial Number : OS361AC55029948
Wavelength Start : 200
Wavelength End : 1025
Wavelength Unit : Wavelength(nm)
Spectrum Unit : Reflectance(%)
-----------Spectrum Setting ------------
Integration Time : 20ms
Average : 10
Boxcar : 0
Background removal :  enabled
linearity correction :  enabled
SC :  disabled
Intensity correction :  disabled
DWT denoise :  enabled
savitzky-golay :  disabled
FFT :  disabled
Running average :  disabled
Kalman :  disabled
High pass :  disabled
---------------BEGIN--------------------
Wavelength(nm)             Reflectance(%)
200.29               0
200.75        82.26547
201.21        98.40121
201.67        106.0617
202.13        101.8861
202.58        89.73827
203.04        73.94704
203.50        59.91197
203.96         56.0457
204.42        62.17414
204.88        72.84773
205.34        83.78574
205.80        92.35349
206.26        99.00124
206.72        105.6756
207.18        112.3945
207.64        114.1933
208.10        108.8309
208.55        101.2693
209.01        94.44088
209.47         87.6181
209.93        77.59542
210.39        55.51616
210.85       -7.934471
211.31       -83.90179
211.77        7.462947
212.23        67.71368
212.69        88.88412
213.14        95.07741
213.60         94.0247
214.06        87.52026
214.52        73.86137
214.98        61.25179
215.44        61.42645
215.90        67.06094
216.36        72.75478
216.81        76.66121
217.27        79.12994
217.73        81.63752
218.19        82.70668
218.65        79.23993
219.11        70.57098
219.57        56.75441
220.02        41.36145
220.48        35.23286
220.94         41.3443
221.40         54.7195
221.86        68.70026
222.32        76.81027
222.77        78.83144
223.23        77.46932
223.69        74.29465
224.15        70.63969
224.61        66.80576
225.06        61.95472
225.52        57.13797
225.98        54.53607
226.44         54.5115
226.90        55.97931
227.36        57.29197
227.81         56.9073
228.27         54.7697
228.73        51.15705
229.19        46.64615
229.65        42.74994
230.10        40.21942
230.56        39.07115
231.02        38.50407
231.48        37.43318
231.93        35.68312
232.39        33.76065
232.85        32.58119
233.31        33.39177
233.77        36.11404
234.22         40.1232
234.68        43.97504
235.14        45.96186
235.60        45.79016
236.05        43.73843
236.51        41.06779
236.97        40.53922
237.43        43.18761
237.88        48.34624
238.34        53.67933
238.80        56.84999
239.26        57.37349
239.71        55.23995
240.17        51.12463
240.63        50.69751
241.08        57.55272
241.54        66.57465
242.00        73.33548
242.46         77.0341
242.91        78.98713
243.37        79.88479
243.83        80.40932
244.28        82.90714
244.74         87.9575
245.20        91.77644
245.66        92.60101
246.11        91.29631
246.57        88.21076
247.03        82.63744
247.48        74.20348
247.94        67.44781
248.40        68.56573
248.85        75.48718
249.31        84.68422
249.77        92.95448
250.22        99.19639
250.68        103.7067
251.14        106.9934
251.59        110.0313
252.05        113.4132
252.51        117.0915
252.96        119.3069
253.42        115.6662
253.88        105.7724
254.33        94.40598
254.79        85.76029
255.25        79.80681
255.70        75.49429
256.16        72.91206
256.62        71.73801
257.07          71.813
257.53        72.97971
257.99        74.25199
258.44        74.93574
258.90        74.97992
259.35         74.0417
259.81        72.75047
260.27        71.06292
260.72        69.01254
261.18        67.13113
261.63        65.20832
262.09        63.49482
262.55         61.7798
263.00        59.98251
263.46        58.29187
263.91        56.78663
264.37        55.96638
264.83        55.71064
265.28        55.76506
265.74        55.80101
266.19        55.15634
266.65        53.85768
267.11        52.08049
267.56        50.14902
268.02        48.68649
268.47        47.79738
268.93        47.30228
269.38        46.97726
269.84        46.50591
270.30        45.77224
270.75        44.88261
271.21        43.88028
271.66        42.76815
272.12        41.60348
272.57        40.34161
273.03        39.09835
273.48        37.98221
273.94        37.08202
274.39        36.34495
274.85        35.74798
275.31        35.15657
275.76        34.51778
276.22        33.88963
276.67        33.27514
277.13         32.7818
277.58        32.36435
278.04         32.0314
278.49        31.65578
278.95        31.17664
279.40        30.53783
279.86        29.83523
280.31        29.13332
280.77        28.64544
281.22        28.35757
281.68        28.24882
282.13        28.17323
282.59        27.97609
283.04        27.61648
283.50        27.17309
283.95        26.74609
284.41        26.52642
284.86        26.52926
285.32        26.69874
285.77        26.90855
286.22         27.0203
286.68        27.01341
287.13        26.89609
287.59         26.7608
288.04        26.67023
288.50        26.67199
288.95        26.71219
289.41        26.76005
289.86        26.72251
290.32        26.61835
290.77        26.49103
291.22        26.42169
291.68        26.51708
292.13        26.79728
292.59        27.24709
293.04        27.83476
293.50        28.53274
293.95         29.3125
294.40        30.19415
294.86        31.15809
295.31         32.1652
295.77        33.21819
296.22         34.3021
296.68        35.45907
297.13        36.73114
297.58         38.1139
298.04        39.57698
298.49        41.05219
298.95        42.47871
299.40        43.84884
299.85        45.20332
300.31        46.61044
300.76         48.1186
301.21        49.73666
301.67         51.4405
302.12        53.15219
302.58        54.83862
303.03        56.45837
303.48         58.0517
303.94        59.67477
304.39        61.32982
304.84         63.0541
305.30        64.85577
305.75        66.68363
306.20        68.54224
306.66        70.44413
307.11        72.34106
307.57         74.2647
308.02        76.14667
308.47        77.98109
308.93        79.76777
309.38        81.45318
309.83        83.06067
310.29        84.61884
310.74        86.10596
311.19        87.54115
311.65        88.92512
312.10        90.22328
312.55         91.4419
313.00        92.59882
313.46        93.73398
313.91        94.84341
314.36        95.93125
314.82        96.96265
315.27        97.87364
315.72        98.64862
316.18        99.31719
316.63        99.90955
317.08        100.5157
317.53        101.1582
317.99        101.8059
318.44         102.429
318.89        102.9503
319.35        103.3541
319.80        103.6848
320.25        103.9722
320.70        104.2699
321.16        104.5861
321.61        104.9154
322.06        105.2671
322.51        105.6672
322.97        106.0919
323.42        106.5708
323.87        107.0144
324.32         107.294
324.78        107.3755
325.23        107.3417
325.68        107.2866
326.13        107.3991
326.59        107.7042
327.04        108.1915
327.49        108.7679
327.94        109.3125
328.39        109.7771
328.85        110.1645
329.30        110.5303
329.75        110.8075
330.20        110.9997
330.66        111.0768
331.11         111.181
331.56        111.4312
332.01        111.8691
332.46        112.4692
332.92        113.0967
333.37        113.6606
333.82        114.0603
334.27        114.3425
334.72         114.588
335.17        114.9372
335.63        115.4061
336.08        116.0014
336.53         116.639
336.98         117.232
337.43        117.7424
337.88        118.1873
338.34        118.5748
338.79        118.9736
339.24        119.3817
339.69        119.7961
340.14        120.1772
340.59        120.4637
341.05        120.6634
341.50        120.8219
341.95        121.0322
342.40        121.4506
342.85        122.0997
343.30        122.9092
343.75         123.771
344.20        124.5096
344.66        125.0679
345.11         125.489
345.56        125.7801
346.01        125.9591
346.46        126.0535
346.91        126.0536
347.36        126.0553
347.81        126.2108
348.26         126.536
348.72        126.9898
349.17        127.4245
349.62        127.6181
350.07        127.5165
350.52         127.192
350.97        126.7679
351.42        126.4419
351.87        126.2817
352.32        126.2436
352.77        126.2558
353.22        126.2078
353.67         126.061
354.13        125.8432
354.58        125.5919
355.03        125.4298
355.48        125.3569
355.93         125.318
356.38        125.1555
356.83        124.6346
357.28        123.7312
357.73        122.5512
358.18         121.303
358.63        120.2992
359.08        119.6297
359.53        119.2202
359.98        118.9359
360.43        118.5589
360.88        118.0136
361.33        117.3388
361.78        116.6317
362.23        116.0409
362.68        115.5885
363.13        115.2325
363.58        114.8065
364.03        113.9929
364.48        112.8745
364.93        111.4795
365.38        110.0855
365.83        109.0717
366.28        108.5142
366.73        108.2729
367.18        108.1386
367.63        107.7736
368.08        107.0762
368.53        106.1614
368.98        105.1048
369.43        104.0265
369.88        102.9957
370.33        101.9787
370.78        101.0466
371.23        100.3219
371.68        99.81555
372.13        99.49552
372.58        99.25147
373.03        98.88772
373.48        98.34386
373.93        97.66718
374.38        96.90691
374.83        96.14867
375.28        95.43188
375.72        94.72022
376.17        94.06382
376.62        93.47432
377.07        92.94886
377.52        92.47044
377.97        92.03262
378.42        91.61813
378.87        91.21237
379.32        90.82695
379.77        90.39699
380.22        89.81992
380.67        89.09457
381.11        88.26328
381.56        87.46217
382.01          86.931
382.46        86.72434
382.91        86.76322
383.36        86.89339
383.81        86.87041
384.26        86.61997
384.71        86.20448
385.15        85.68721
385.60        85.23267
386.05         84.8675
386.50        84.54996
386.95        84.24197
387.40        83.89549
387.85        83.50983
388.29        83.06981
388.74        82.70705
389.19        82.40704
389.64        82.15444
390.09        81.90384
390.54        81.63461
390.98        81.30333
391.43        80.96258
391.88        80.63308
392.33        80.25454
392.78        79.84409
393.23        79.44836
393.67        78.80096
394.12        78.10738
394.57        78.44017
395.02        78.49628
395.47        78.46146
395.91        78.00959
396.36        77.83286
396.81        77.95196
397.26          77.975
397.71        77.85498
398.15        77.70892
398.60        77.61189
399.05        77.29218
399.50        76.88315
399.95        76.93119
400.39        77.31882
400.84        77.21072
401.29        76.63013
401.74        76.24748
402.18        76.13335
402.63        75.97706
403.08        75.75694
403.53        75.51173
403.97        75.25235
404.42        75.04811
404.87        74.90663
405.32        74.84058
405.76        74.82711
406.21        74.78361
406.66        74.73837
407.11        74.83862
407.55        75.00258
408.00        75.03819
408.45        74.87692
408.90        74.13686
409.34        73.12862
409.79        73.03702
410.24        73.71217
410.68        73.89933
411.13        73.52322
411.58        73.34169
412.03        73.40076
412.47        73.42001
412.92        73.37331
413.37        73.34833
413.81        73.32838
414.26        73.34953
414.71        73.39532
415.15         73.4691
415.60        73.52306
416.05        73.54737
416.49        73.54194
416.94        73.49764
417.39        73.44682
417.83        73.43748
418.28        73.47161
418.73        73.52085
419.17        73.56164
419.62        73.55956
420.07        73.51219
420.51        73.43703
420.96        73.34483
421.41        73.22284
421.85        73.05913
422.30        72.83266
422.74        72.60545
423.19        72.76154
423.64        73.21368
424.08        73.50823
424.53        73.51263
424.98        73.57227
425.42        73.69451
425.87         73.5505
426.31        73.24488
426.76        73.22375
427.21        73.44701
427.65        73.48491
428.10        73.32653
428.54        73.27897
428.99        73.38818
429.44        73.56068
429.88         73.7201
430.33        73.68079
430.77        73.45348
431.22        73.52693
431.66        73.86454
432.11         74.0017
432.56        73.98978
433.00        74.21799
433.45        74.44832
433.89        74.43121
434.34        74.29715
434.78         73.2775
435.23        73.45013
435.67        73.73885
436.12        74.62534
436.57        74.69685
437.01         74.0255
437.46        74.54903
437.90        74.04961
438.35        75.12283
438.79        74.52314
439.24        74.61512
439.68        74.68245
440.13        74.72356
440.57        74.77041
441.02        75.16602
441.46        75.70959
441.91        75.49691
442.35        74.73997
442.80        74.72151
443.24        75.77878
443.69        75.96942
444.13         75.3636
444.58        75.78869
445.02        75.84743
445.47        75.97727
445.91        75.78243
446.36        75.72871
446.80        75.81281
447.24        75.84984
447.69        75.86841
448.13         76.0117
448.58        76.22144
449.02        76.18712
449.47        75.98379
449.91        75.94766
450.36        76.11948
450.80        76.27949
451.25        76.40315
451.69        76.51973
452.13        76.60016
452.58        76.57449
453.02        76.46246
453.47        76.33686
453.91        76.20463
454.36        76.15262
454.80        76.09704
455.24        75.76382
455.69        75.30502
456.13        75.01637
456.58        74.93236
457.02        75.22355
457.46        75.56048
457.91        75.26753
458.35        74.68484
458.79        74.32877
459.24        74.33775
459.68        74.22812
460.13        74.02832
460.57        73.83318
461.01        74.01785
461.46        73.65249
461.90        73.91269
462.34        73.83881
462.79        73.68297
463.23        73.73817
463.68        73.91818
464.12        73.76865
464.56        73.37639
465.01        73.36909
465.45        73.53508
465.89        73.46436
466.34        73.24382
466.78         72.7614
467.22        72.07883
467.67        73.04889
468.11        72.82346
468.55        72.87106
468.99        72.41737
469.44        72.26022
469.88        72.40901
470.32        72.44044
470.77        72.34302
471.21        72.26055
471.65        72.19087
472.10        72.10889
472.54        72.00022
472.98        71.90154
473.42        71.82651
473.87        71.73088
474.31        71.60445
474.75        71.68296
475.20        71.87693
475.64        71.77945
476.08        71.44378
476.52        71.32159
476.97        71.42735
477.41         71.4137
477.85        71.62387
478.29        71.32294
478.74        71.37158
479.18        70.88731
479.62        71.59081
480.06        71.64459
480.50        71.51791
480.95        71.35911
481.39        71.13186
481.83        71.36462
482.27        71.26918
482.72        70.94371
483.16        71.22965
483.60        71.15968
484.04        71.00804
484.48        70.94749
484.93        71.20506
485.37        70.81901
485.81        71.25803
486.25        71.68365
486.69        72.01098
487.14        71.29213
487.58        70.87086
488.02        71.11792
488.46        71.07533
488.90        70.91875
489.34        70.39093
489.79        69.92747
490.23        70.64186
490.67        70.69398
491.11        70.42166
491.55        70.26971
491.99        70.27943
492.43        70.26349
492.88        70.20919
493.32        70.20841
493.76        70.24057
494.20        70.29735
494.64        70.38351
495.08        70.45808
495.52        70.50999
495.96        70.62294
496.41         70.7502
496.85        70.62739
497.29        70.31244
497.73        70.32084
498.17        70.51472
498.61        70.56111
499.05        70.39777
499.49        70.30866
499.93        70.30112
500.37        70.21938
500.82        70.09276
501.26        70.04393
501.70        70.21169
502.14        70.14095
502.58        70.04671
503.02        70.10469
503.46        70.07183
503.90        70.07695
504.34        70.03058
504.78        70.02631
505.22        70.03159
505.66        69.95136
506.10        69.84169
506.54        69.78853
506.98         69.7796
507.42        70.10126
507.86         70.1194
508.30         70.1414
508.74        70.19554
509.18        70.13306
509.62        70.02892
510.06         69.9049
510.50        69.78526
510.94        69.65803
511.38        69.55354
511.82        69.52389
512.26        69.57455
512.70        69.69147
513.14        69.82077
513.58        69.89406
514.02         69.8964
514.46        69.80676
514.90        69.65284
515.34        69.72135
515.78        69.66134
516.22        69.74114
516.66        69.83066
517.10        69.90702
517.54        69.95292
517.98        69.98254
518.42        69.99141
518.86        69.95979
519.30        69.89249
519.74        69.79901
520.18        69.70242
520.62        69.64004
521.06        69.62269
521.50         69.6402
521.93        69.68891
522.37        69.74583
522.81         69.8039
523.25        69.86164
523.69        69.90179
524.13        69.89854
524.57        69.84924
525.01        69.76283
525.45        69.65931
525.89        69.57235
526.32        69.50934
526.76        69.47741
527.20        69.46921
527.64        69.48502
528.08         69.5202
528.52        69.55348
528.96        69.58092
529.40        69.63796
529.83        69.69327
530.27         69.6655
530.71         69.5636
531.15        69.49612
531.59        69.47383
532.03        69.43933
532.46        69.39189
532.90        69.37771
533.34        69.39188
533.78        69.42353
534.22        69.45583
534.66        69.46201
535.09        69.42771
535.53         69.3819
535.97        69.32572
536.41        69.27725
536.85        69.24429
537.28        69.22607
537.72        69.22337
538.16        69.22732
538.60        69.23741
539.04        69.26876
539.47        69.29989
539.91        69.33736
540.35        69.36129
540.79        69.38391
541.22        69.39139
541.66        69.37212
542.10        69.32362
542.54        69.25143
542.97        69.17164
543.41        69.14809
543.85        69.17685
544.29        69.24842
544.72        69.31577
545.16         69.3368
545.60        69.28424
546.04        69.17823
546.47        69.06249
546.91        68.98543
547.35        68.96661
547.79        69.06808
548.22        69.19823
548.66        69.14808
549.10        68.93288
549.53        68.83073
549.97        68.88339
550.41        68.91874
550.84        68.92043
551.28        69.07936
551.72        69.37439
552.15         69.3255
552.59        69.13697
553.03        69.40061
553.46        69.09606
553.90        68.82755
554.34        68.84328
554.77        69.20351
555.21        69.06808
555.65        69.10419
556.08        68.95567
556.52        68.79256
556.96        68.65029
557.39        68.70868
557.83        68.93112
558.27        69.02649
558.70        68.96416
559.14        68.83078
559.57        68.68056
560.01        68.73111
560.45        68.91651
560.88        68.91158
561.32         68.7935
561.75        68.73756
562.19        68.77933
562.63        68.96151
563.06        69.16861
563.50        68.93053
563.93        68.37116
564.37        68.28615
564.80        68.62616
565.24        68.78874
565.68        68.74577
566.11        68.80982
566.55        68.98569
566.98        69.13363
567.42        69.20392
567.85        69.07017
568.29         68.8901
568.72        68.71017
569.16        68.56151
569.60        68.97046
570.03        68.82594
570.47        68.64948
570.90        68.99116
571.34         68.9901
571.77        69.21748
572.21        68.94063
572.64        69.42411
573.08        69.06731
573.51        68.82812
573.95        69.16171
574.38        69.34508
574.82        69.10904
575.25        69.39723
575.69        69.25038
576.12        68.77928
576.56         69.1242
576.99        69.12297
577.42         68.9307
577.86        69.21547
578.29        69.52177
578.73        69.23577
579.16        69.19416
579.60        69.32491
580.03        69.22507
580.47        68.80003
580.90        69.46287
581.33        69.61296
581.77        69.28261
582.20        69.42091
582.64        69.44527
583.07        69.47004
583.51        69.27816
583.94        69.06593
584.37        69.02753
584.81        69.21102
585.24        69.30353
585.68        69.36115
586.11        69.08918
586.54        69.21031
586.98        68.92482
587.41        69.27888
587.85        68.91829
588.28        68.94794
588.71        68.81634
589.15        69.09747
589.58        69.07095
590.01        69.40126
590.45        69.44444
590.88        68.50771
591.31        68.34597
591.75        68.61521
592.18        68.65307
592.61        68.69086
593.05        68.47657
593.48          69.348
593.91         69.1412
594.35        68.99261
594.78        68.98463
595.21        68.47052
595.65        68.48962
596.08        68.68509
596.51        68.94151
596.94          68.644
597.38        68.67714
597.81        68.93227
598.24        68.58025
598.68        69.05009
599.11         68.4978
599.54        68.80004
599.97        68.97749
600.41        68.93988
600.84        69.03694
601.27        69.15158
601.70        68.30834
602.14        68.25066
602.57        68.34188
603.00        68.29426
603.43        68.72136
603.87        68.84168
604.30        68.62569
604.73         68.4152
605.16        68.66751
605.60        68.52818
606.03        68.73801
606.46         68.9126
606.89        68.97868
607.32        68.68195
607.76        69.08895
608.19         68.8064
608.62        68.73325
609.05         68.5623
609.48        68.62438
609.92        68.83066
610.35        68.82275
610.78        68.94455
611.21        68.17793
611.64        68.67436
612.07        68.58186
612.50        68.52347
612.94        68.43821
613.37        68.33965
613.80        68.63902
614.23        68.46597
614.66        68.55841
615.09        68.60829
615.52        68.55083
615.96         68.4558
616.39        68.01105
616.82        68.50079
617.25        68.21909
617.68        68.57698
618.11        68.48737
618.54        68.37448
618.97        68.48045
619.40        68.66426
619.84        69.00318
620.27        68.71989
620.70        68.37641
621.13        67.79888
621.56        68.34489
621.99        68.29599
622.42        68.26472
622.85        67.91447
623.28        68.18463
623.71         68.1907
624.14        67.81715
624.57        68.40044
625.00        68.35142
625.43        68.13284
625.86        68.00754
626.29        68.03803
626.72        67.95284
627.15        67.86353
627.58        67.96394
628.01        68.31938
628.44        67.89721
628.87        67.73861
629.30        68.17583
629.73        68.02719
630.16        67.77164
630.59        67.91105
631.02        67.86749
631.45        68.15885
631.88        68.19078
632.31        68.02549
632.74        68.18021
633.17        67.97366
633.60         67.9915
634.03        68.02599
634.46        68.08531
634.89        68.14381
635.32        68.16463
635.75        68.14337
636.18        68.12472
636.61        68.10023
637.04        67.97562
637.47        67.79442
637.89        67.74802
638.32        67.82556
638.75        67.88884
639.18        67.92735
639.61        68.04641
640.04        68.16791
640.47         68.1965
640.90        68.11201
641.33        67.92577
641.76        67.68129
642.18        67.62233
642.61        67.50745
643.04        67.51698
643.47          67.562
643.90        67.62674
644.33        67.69305
644.76        67.77397
645.18        67.83498
645.61        67.80336
646.04        67.67245
646.47        67.45475
646.90        67.22894
647.33        67.12247
647.75        67.17077
648.18        67.36189
648.61        67.59554
649.04        67.69468
649.47        67.63567
649.89        67.46477
650.32        67.29259
650.75        67.35471
651.18        67.62679
651.61        67.83965
652.03        67.85286
652.46         67.7462
652.89        67.67873
653.32        67.32076
653.74        67.01002
654.17        68.01398
654.60         67.5112
655.03        67.26963
655.46        67.27505
655.88        68.09401
656.31        69.02396
656.74        70.65855
657.16        69.85346
657.59        68.96971
658.02        68.05369
658.45        68.64746
658.87        68.12458
659.30        67.93588
659.73        67.98705
660.15        67.91497
660.58        67.88716
661.01        67.88403
661.44         67.8976
661.86        67.95224
662.29        67.98633
662.72        67.81432
663.14        67.51578
663.57        67.44901
664.00        67.61495
664.42        67.66446
664.85        67.59138
665.27        67.60154
665.70        67.67526
666.13        67.69109
666.55        67.64336
666.98        67.55166
667.41        67.46301
667.83         67.4573
668.26        67.54446
668.69        67.70943
669.11        67.88751
669.54        67.99471
669.96        68.01736
670.39        67.89158
670.82        67.71391
671.24        67.81068
671.67        68.11646
672.09        68.19007
672.52        68.03803
672.94        67.91064
673.37        67.85861
673.80        67.84953
674.22        67.88166
674.65        67.85368
675.07        67.78069
675.50        67.72931
675.92        67.72018
676.35        67.72195
676.77        67.74064
677.20        67.79048
677.62        67.85163
678.05        67.86977
678.47        67.83372
678.90        67.76486
679.32        67.70379
679.75        67.70887
680.17        67.78844
680.60        67.99046
681.02        68.22737
681.45        68.22405
681.87        68.03811
682.30        67.93187
682.72        67.96365
683.15        68.15742
683.57        68.43128
684.00        68.38068
684.42        68.05695
684.85        68.03451
685.27        68.14781
685.70        68.25294
686.12        68.25846
686.54        68.29948
686.97        68.35471
687.39        68.33959
687.82        68.25295
688.24        68.23344
688.66        68.25961
689.09        68.17101
689.51        68.24332
689.94        68.23204
690.36        68.22876
690.78        68.19658
691.21        68.15232
691.63        68.18793
692.06        68.26534
692.48        68.18966
692.90        68.00276
693.33        67.92494
693.75        67.97551
694.17        68.04712
694.60        68.09832
695.02         68.1145
695.44        68.06942
695.87        67.99552
696.29        67.98079
696.71        67.84145
697.14        68.25101
697.56        68.26941
697.98        68.11396
698.41        68.09585
698.83        68.20332
699.25        68.25729
699.68        68.23843
700.10        68.28313
700.52         68.3827
700.94        68.50267
701.37        68.59509
701.79        68.62013
702.21        68.55116
702.64        68.42496
703.06        68.28322
703.48        68.20876
703.90        68.22741
704.33         68.3081
704.75        68.42362
705.17        68.50662
705.59        68.53282
706.01        68.49389
706.44        68.41768
706.86         68.4612
707.28         68.4425
707.70         68.5389
708.12        68.65516
708.55        68.61406
708.97        68.44786
709.39        68.43105
709.81        68.56692
710.23        68.63349
710.66         68.6208
711.08        68.68214
711.50        68.78638
711.92        68.84013
712.34        68.83648
712.76        68.79744
713.19        68.74487
713.61        68.76394
714.03        68.84805
714.45        68.97238
714.87        69.09402
715.29         69.1484
715.71         69.1201
716.13        69.03011
716.56        68.89663
716.98        68.82631
717.40        68.82346
717.82        68.87333
718.24        68.95442
718.66        69.03139
719.08        69.08966
719.50        69.13225
719.92        69.17593
720.34        69.24725
720.76        69.34601
721.19        69.44849
721.61        69.52966
722.03        69.50827
722.45        69.37688
722.87        69.16377
723.29         68.9409
723.71        68.82185
724.13        68.83868
724.55        68.96571
724.97        69.14506
725.39        69.26859
725.81        69.30272
726.23        69.29802
726.65        69.29546
727.07        69.29858
727.49        69.34972
727.91        69.56329
728.33        69.85242
728.75        69.94508
729.17        69.80549
729.59        69.56678
730.01        69.31504
730.43        69.14756
730.85         69.1007
731.27        69.13936
731.69        69.22707
732.10         69.3118
732.52        69.37048
732.94        69.44297
733.36        69.50788
733.78        69.53722
734.20        69.53234
734.62        69.51216
735.04        69.25307
735.46        69.51215
735.88        70.04818
736.30        70.02335
736.72         69.4953
737.13        69.29288
737.55        69.46575
737.97        69.62668
738.39        69.70956
738.81        69.76431
739.23        69.76408
739.65        69.71946
740.06        69.63895
740.48        69.60281
740.90        69.58861
741.32        69.64906
741.74        69.67171
742.16        69.74355
742.57        69.83131
742.99        69.92834
743.41        70.01422
743.83        70.02891
744.25        69.97017
744.67        69.86518
745.08        69.77938
745.50        69.75877
745.92        69.83469
746.34        70.00549
746.75        70.18452
747.17        70.22014
747.59        70.08128
748.01        69.80177
748.42        69.51488
748.84        69.40445
749.26        69.49442
749.68        69.81532
750.09        70.20222
750.51        70.13297
750.93        69.71494
751.35        69.72006
751.76        70.10851
752.18        70.18029
752.60        69.92272
753.01        69.75923
753.43        69.74554
753.85        69.76944
754.27        69.82861
754.68        70.03308
755.10        70.36404
755.52        70.27911
755.93        70.57632
756.35        70.62859
756.77        70.61732
757.18        70.61829
757.60        70.68041
758.02        70.37567
758.43        69.79312
758.85        70.57699
759.26        70.62437
759.68        70.79648
760.10        70.86668
760.51         69.8082
760.93        69.96121
761.34        70.19769
761.76        70.59852
762.18         70.8095
762.59        70.68765
763.01        70.60572
763.42        70.65196
763.84        70.63263
764.26         70.6045
764.67        70.69572
765.09        70.87631
765.50        70.88675
765.92        70.75925
766.33        70.64565
766.75        70.53059
767.16        70.46045
767.58        70.40955
768.00         70.4094
768.41        70.47102
768.83        70.57097
769.24        70.68226
769.66        70.71538
770.07         70.6599
770.49        70.72053
770.90        70.87035
771.32        70.82055
771.73        70.63167
772.15        70.59734
772.56        70.75213
772.97         70.9529
773.39        71.08422
773.80         71.2731
774.22        70.98461
774.63        71.10013
775.05        71.38738
775.46         71.4737
775.88        71.30442
776.29        71.15778
776.70        71.08526
777.12        71.05232
777.53         71.0986
777.95        71.21655
778.36        71.38264
778.77        71.52936
779.19        71.63436
779.60        71.72865
780.02        71.80932
780.43        71.87383
780.84         71.9132
781.26        71.97826
781.67        72.11959
782.09        72.16523
782.50         71.9944
782.91        72.48164
783.33        71.76449
783.74        71.67274
784.15        71.66814
784.57        71.56506
784.98        71.39951
785.39        71.50312
785.81         71.8128
786.22        71.88156
786.63        71.72446
787.04        71.72829
787.46        71.91022
787.87         72.0321
788.28        72.06994
788.70        72.10062
789.11        72.11066
789.52        72.04336
789.93        71.95874
790.35        72.07272
790.76        72.36702
791.17        72.47948
791.58        72.41343
792.00        72.50246
792.41        72.73661
792.82        72.77895
793.23        72.66507
793.65        72.65186
794.06        72.76978
794.47        72.95175
794.88        73.12247
795.29        72.97726
795.71        72.95773
796.12        72.63611
796.53        72.27299
796.94        72.38403
797.35        72.90538
797.76        73.08649
798.18        72.91139
798.59        72.96557
799.00        73.25331
799.41        73.39789
799.82         73.3649
800.23        73.30718
800.64        73.22951
801.06          73.068
801.47        72.89295
801.88        72.74192
802.29        72.63976
802.70         72.6037
803.11        72.61459
803.52        72.62354
803.93        72.61992
804.34        72.60783
804.75        72.64268
805.17        72.80243
805.58        73.11714
805.99        73.52936
806.40         73.9114
806.81         74.0483
807.22        73.89458
807.63        73.52611
808.04        73.09466
808.45        72.86945
808.86        72.93159
809.27        73.20216
809.68        73.54939
810.09        73.73879
810.50        73.69907
810.91        73.50614
811.32        73.25413
811.73        73.11089
812.14        73.12891
812.55        73.20405
812.96        73.29566
813.37        73.45014
813.78        73.59022
814.19        73.50362
814.60        73.24876
815.01         73.1208
815.42         73.1497
815.83        73.16924
816.24        73.18553
816.65         73.2877
817.05        73.47353
817.46        73.68088
817.87        73.86962
818.28        73.92725
818.69        73.83588
819.10        73.62714
819.51        73.38771
819.92        73.27611
820.33        73.34305
820.74        73.54238
821.14         73.7891
821.55        73.98637
821.96        74.07957
822.37        74.09496
822.78        74.06583
823.19        74.04977
823.60        74.06785
824.00        74.12499
824.41        74.13702
824.82         74.0619
825.23        73.89603
825.64         73.6687
826.04        73.48655
826.45        73.48182
826.86        73.68481
827.27        74.03661
827.68         74.4155
828.08        74.64922
828.49        74.61491
828.90        74.41207
829.31        74.10649
829.72        73.81609
830.12        73.61919
830.53        73.43891
830.94        73.33242
831.35        73.35638
831.75        73.53456
832.16        73.82005
832.57        74.13858
832.97        74.31178
833.38        74.28649
833.79        74.11416
834.20        73.90438
834.60        73.82803
835.01        73.93669
835.42        74.16792
835.82        74.46923
836.23        74.66711
836.64        74.73739
837.04        74.75161
837.45        74.69935
837.86        74.66176
838.26        74.67354
838.67        74.68689
839.08        74.72334
839.48        74.80422
839.89        74.92609
840.29        75.09093
840.70        75.25015
841.11          75.325
841.51        75.31924
841.92        75.21303
842.33        75.08685
842.73        75.07213
843.14        75.15004
843.54        75.31435
843.95        75.48301
844.35         75.5443
844.76        75.45893
845.17        75.26188
845.57        75.03516
845.98        74.87318
846.38        74.83218
846.79         74.8651
847.19        74.92107
847.60        74.86108
848.00        74.68357
848.41        74.40336
848.81         74.1487
849.22        74.04867
849.62        74.17059
850.03        74.44144
850.43        74.77337
850.84        74.94539
851.24        74.95434
851.65        74.79853
852.05        74.64258
852.46        74.66785
852.86        74.91178
853.27        75.30264
853.67        75.64162
854.07        75.84877
854.48        75.86085
854.88        75.76404
855.29        75.51148
855.69        75.23454
856.10        74.89193
856.50        74.53656
856.90        74.19521
857.31        73.94161
857.71        73.83604
858.12        73.82482
858.52        73.86451
858.92        73.74115
859.33        73.39729
859.73        72.92301
860.13        72.42944
860.54        72.14727
860.94        72.18151
861.34        72.42735
861.75        72.73395
862.15        72.92744
862.55         72.9233
862.96        72.79394
863.36        72.58954
863.76        72.38206
864.17        72.20239
864.57        72.03403
864.97        71.91694
865.38        71.90221
865.78        72.03536
866.18        72.28569
866.58        72.54254
866.99        72.61458
867.39        72.48272
867.79        72.17096
868.19        71.80817
868.60        71.55078
869.00         71.4344
869.40        71.45695
869.80        71.55174
870.21        71.60183
870.61        71.64183
871.01        71.63816
871.41        71.67171
871.81        71.85843
872.22          72.189
872.62        72.66263
873.02        73.14014
873.42        73.35549
873.82        73.24289
874.22        72.89326
874.63        72.53442
875.03        72.47279
875.43        72.76748
875.83        73.30097
876.23        73.88842
876.63        74.22031
877.03        74.19456
877.44        73.90157
877.84        73.44381
878.24        72.96564
878.64        72.55349
879.04        72.18869
879.44        71.90743
879.84        71.75266
880.24        71.72142
880.64        71.81234
881.04        71.98823
881.44        72.16951
881.84        72.31352
882.24        72.40749
882.65        72.42308
883.05        72.43203
883.45        72.41012
883.85        72.36778
884.25        72.28551
884.65        72.13258
885.05        71.92315
885.45        71.67519
885.85            71.5
886.25         71.5829
886.65        71.94353
887.05        72.50068
887.45        73.06897
887.85        73.37045
888.25        73.33368
888.65        73.03073
889.04        72.57452
889.44        72.20755
889.84        71.99406
890.24        71.87601
890.64        71.80283
891.04        71.69369
891.44        71.52923
891.84        71.36042
892.24        71.21478
892.64         71.1161
893.04        71.07883
893.44        71.09476
893.83        71.17958
894.23        71.29936
894.63         71.4606
895.03        71.63869
895.43        71.83341
895.83        72.04276
896.23        72.25359
896.63        72.46938
897.02        72.61018
897.42         72.6009
897.82        72.43053
898.22        72.13145
898.62        71.84874
899.01        71.83551
899.41        72.12132
899.81        72.63831
900.21        73.19656
900.61        73.47992
901.00        73.39239
901.40        73.04182
901.80         72.5784
902.20        72.25501
902.59        72.16157
902.99        72.21982
903.39        72.35368
903.79         72.4247
904.18        72.39635
904.58        72.33676
904.98        72.31895
905.38        72.44849
905.77        72.72958
906.17        73.11404
906.57        73.51461
906.96         73.8148
907.36        73.94212
907.76        73.94283
908.15        73.85392
908.55        73.67077
908.95        73.44889
909.34        73.16975
909.74        72.92654
910.14        72.79965
910.53         72.8138
910.93        72.94752
911.33        73.12483
911.72        73.20681
912.12        73.14034
912.52        72.97266
912.91        72.77906
913.31        72.70298
913.70        72.76302
914.10        72.90392
914.49        73.06394
914.89         73.0746
915.29        72.91125
915.68        72.62161
916.08        72.30382
916.47        72.09902
916.87        72.06607
917.26         72.1577
917.66         72.3069
918.05        72.37215
918.45        72.30862
918.84        72.16827
919.24        72.02763
919.64        72.09126
920.03        72.41089
920.42        72.92288
920.82        73.43585
921.21        73.65098
921.61        73.48958
922.00           73.02
922.40        72.51674
922.79         72.5354
923.19        73.14539
923.58        74.21213
923.98        75.22443
924.37        75.46548
924.77        74.79455
925.16        73.42612
925.55        71.91605
925.95        71.22381
926.34        71.61395
926.74        72.77467
927.13        74.20102
927.52        74.98927
927.92        74.92538
928.31        74.27801
928.70        73.44126
929.10        73.00552
929.49        73.12639
929.89        73.56327
930.28        74.12418
930.67        74.37551
931.07        74.17483
931.46        73.72693
931.85        73.16653
932.24        72.70814
932.64        72.43475
933.03        72.27348
933.42        72.22987
933.82        72.32345
934.21         72.5338
934.60        72.85693
934.99        73.21394
935.39        73.43636
935.78        73.51191
936.17        73.46974
936.56        73.35444
936.96         73.2505
937.35        73.24633
937.74        73.28065
938.13        73.38042
938.53        73.59388
938.92         73.9114
939.31        74.30326
939.70        74.67073
940.09        74.82597
940.49        74.69915
940.88         74.3962
941.27        73.99091
941.66        73.60825
942.05        73.30419
942.44        73.05589
942.84        72.92925
943.23        72.96584
943.62        73.18657
944.01        73.58022
944.40        74.02071
944.79        74.27396
945.18         74.2645
945.57         74.0309
945.97        73.67863
946.36        73.45708
946.75        73.39106
947.14        73.42338
947.53        73.45697
947.92        73.32463
948.31        73.00218
948.70        72.58321
949.09         72.1848
949.48        71.97033
949.87         71.9836
950.26        72.16515
950.65        72.46513
951.04        72.80741
951.43        73.14893
951.82         73.4976
952.21        73.79974
952.60        73.97211
952.99        73.98121
953.38        73.81549
953.77        73.54325
954.16        73.28169
954.55        73.05984
954.94        72.87087
955.33        72.62766
955.72        72.17738
956.11        71.50436
956.50        70.67047
956.89        69.86511
957.28        69.40392
957.66        69.40462
958.05        69.77254
958.44        70.29044
958.83        70.60039
959.22        70.58389
959.61        70.28481
960.00        69.90672
960.39        69.78006
960.78        69.97378
961.16        70.44286
961.55        70.81737
961.94        70.58061
962.33        69.66866
962.72        68.32554
963.11        67.09127
963.49        66.74245
963.88        67.42975
964.27        68.91615
964.66        70.73635
965.04        72.04623
965.43        72.44696
965.82        72.19791
966.21        71.62408
966.60        71.25491
966.98        71.25385
967.37        71.40655
967.76        71.58121
968.15        71.53406
968.53        71.21862
968.92        70.80561
969.31        70.39573
969.69        70.07114
970.08        69.87499
970.47        69.77742
970.86        69.92377
971.24        70.57693
971.63        71.64133
972.02        72.97123
972.40        74.27081
972.79        75.01492
973.17        75.20964
973.56        74.92648
973.95        74.40019
974.33        74.02681
974.72        73.93475
975.11        73.99454
975.49        74.10332
975.88        74.11035
976.26        73.98079
976.65        73.81196
977.04        73.56232
977.42        73.12434
977.81        72.45358
978.19        71.51524
978.58        70.72942
978.96        70.77146
979.35        71.72982
979.74        73.45229
980.12        75.22642
980.51        75.67806
980.89          74.619
981.28        72.28608
981.66        69.62989
982.05        68.44862
982.43        69.24326
982.82        71.44657
983.20        74.04306
983.59        75.28294
983.97        74.85953
984.35        73.28419
984.74        71.32505
985.12        70.32457
985.51        70.68425
985.89        71.88086
986.28         73.4569
986.66        74.89828
987.04          75.952
987.43        76.77089
987.81        77.22775
988.20        76.96114
988.58        76.02229
988.96        74.53553
989.35        72.77765
989.73        71.28635
990.12        70.17483
990.50        69.28088
990.88        68.81223
991.27        69.11127
991.65        70.13023
992.03        71.75348
992.42         73.0782
992.80        73.24007
993.18        72.00914
993.56         69.4399
993.95        66.38569
994.33        65.02091
994.71        66.27062
995.10        69.07969
995.48        72.03983
995.86        73.63976
996.24        73.75715
996.63        72.78893
997.01        71.28757
997.39        70.37467
997.77        70.56695
998.15        71.48349
998.54        72.50366
998.92         72.8205
999.30        72.26022
999.68        71.13001
1000.06        69.93119
1000.45        69.49393
1000.83        70.10841
1001.21        71.35675
1001.59        72.74982
1001.97         73.5972
1002.35        73.74961
1002.73        73.53204
1003.12        72.97062
1003.50        72.05374
1003.88        71.02678
1004.26        69.82438
1004.64        69.14028
1005.02         69.8894
1005.40         72.0845
1005.78        75.57034
1006.16        79.09405
1006.54        80.31977
1006.92        78.65105
1007.30        74.71835
1007.69        70.34648
1008.07        68.58444
1008.45        70.23244
1008.83         74.2179
1009.21        78.76147
1009.59        81.31594
1009.97        81.20048
1010.35         79.0528
1010.73        75.59458
1011.11        72.82318
1011.49        71.94031
1011.86        72.43284
1012.24        73.70028
1012.62         75.1681
1013.00         76.5545
1013.38        78.15894
1013.76        79.67064
1014.14        80.45167
1014.52        80.34061
1014.90        79.30147
1015.28        77.80878
1015.66        76.95954
1016.04        77.11369
1016.41         78.1198
1016.79        79.13042
1017.17         79.1842
1017.55         78.1397
1017.93         76.4537
1018.31        74.78968
1018.69        74.14056
1019.06        74.84261
1019.44        76.60421
1019.82        79.07178
1020.20        81.38392
1020.58        82.92852
1020.95        83.69511
1021.33        83.78198
1021.71        83.32246
1022.09        82.40359
1022.46        80.93826
1022.84        78.97415
1023.22         76.4979
1023.60        73.54529
1023.97        69.99086
1024.35        66.43363
1024.73        63.78622
