SpectraSmart Spectrum 2.9.0.0
--------- Device Information -----------
Spectrum Name :  反射率_0
Saving Time :  2024/04/27 23:58:45
Spectro-Module Model Name : SE2030-DUVN
Spectro-Module Serial Number : OS361AC55029948
Wavelength Start : 200
Wavelength End : 1025
Wavelength Unit : Wavelength(nm)
Spectrum Unit : Reflectance(%)
-----------Spectrum Setting ------------
Integration Time : 20ms
Average : 10
Boxcar : 0
Background removal :  enabled
linearity correction :  enabled
SC :  disabled
Intensity correction :  disabled
DWT denoise :  enabled
savitzky-golay :  disabled
FFT :  disabled
Running average :  disabled
Kalman :  disabled
High pass :  disabled
---------------BEGIN--------------------
Wavelength(nm)             Reflectance(%)
200.29               0
200.75        93.33253
201.21        106.5194
201.67        112.0685
202.13        109.9249
202.58        102.8811
203.04        93.48988
203.50        84.96085
203.96         82.5177
204.42        86.04828
204.88        92.29127
205.34        98.72247
205.80        103.6748
206.26        107.4226
206.72        111.3216
207.18        114.9851
207.64        114.7013
208.10        109.5472
208.55        103.1734
209.01        98.07144
209.47         94.0427
209.93        89.14127
210.39         79.7021
210.85        51.35603
211.31        3.947073
211.77        34.01814
212.23        62.02934
212.69        73.67809
213.14        78.79599
213.60         81.0799
214.06        83.36827
214.52        86.15354
214.98         88.0256
215.44        87.22025
215.90        84.53836
216.36        82.76869
216.81        83.37857
217.27        85.74802
217.73        89.30923
218.19        92.23956
218.65        91.22728
219.11         85.2243
219.57        74.68658
220.02        61.78712
220.48        53.92265
220.94        54.00775
221.40        59.48911
221.86        66.57414
222.32        71.35142
222.77        73.25935
223.23        73.44169
223.69        72.71177
224.15        71.75275
224.61        70.73635
225.06        69.34948
225.52        67.47662
225.98        64.97525
226.44        62.49038
226.90        60.37989
227.36           59.14
227.81        59.03215
228.27        59.82203
228.73        61.24632
229.19        62.44749
229.65        61.76265
230.10        58.79753
230.56         54.6132
231.02        50.37159
231.48        47.70258
231.93        46.85094
232.39        47.30964
232.85        48.71555
233.31        50.61259
233.77        52.71613
234.22        55.20083
234.68        57.50974
235.14         59.0036
235.60        59.68114
236.05        59.57436
236.51        59.58202
236.97        61.52021
237.43        65.76003
237.88        71.64526
238.34        77.35527
238.80        81.54794
239.26        84.25591
239.71        86.13371
240.17         87.2608
240.63        88.47306
241.08        89.94699
241.54        90.63438
242.00        91.09891
242.46        92.11951
242.91        94.30228
243.37        98.57029
243.83        107.7098
244.28         121.987
244.74        128.6412
245.20        123.5886
245.66        115.5242
246.11         109.725
246.57        104.9733
247.03         98.1161
247.48        88.99003
247.94         83.4667
248.40        87.58888
248.85        98.91939
249.31        109.1324
249.77        110.7097
250.22        105.8262
250.68         98.6411
251.14        93.20132
251.59        93.23576
252.05        99.33142
252.51        111.5526
252.96        128.5087
253.42        139.3769
253.88        136.5975
254.33        126.1616
254.79        116.6991
255.25        112.0453
255.70        110.7687
256.16        111.0843
256.62        111.9911
257.07        112.7379
257.53        113.5141
257.99        113.9958
258.44         113.133
258.90        110.6842
259.35        106.5858
259.81        102.2077
260.27         98.2399
260.72        95.65652
261.18        94.85574
261.63         94.6895
262.09        94.94193
262.55        94.75345
263.00        93.85252
263.46        92.72626
263.91        91.23024
264.37        89.75111
264.83         88.2628
265.28        86.66299
265.74        85.09836
266.19        83.35128
266.65        81.54733
267.11        79.67436
267.56        77.82298
268.02        76.27175
268.47        75.01192
268.93        73.99678
269.38        73.08376
269.84        72.10429
270.30        70.98203
270.75        69.75155
271.21        68.44211
271.66        67.02868
272.12        65.55946
272.57        63.98631
273.03        62.42616
273.48        60.95086
273.94        59.67142
274.39        58.52927
274.85        57.53043
275.31        56.52758
275.76        55.46352
276.22        54.42606
276.67         53.4248
277.13        52.64412
277.58        52.00447
278.04        51.50609
278.49        50.94214
278.95        50.19283
279.40        49.17175
279.86        48.03838
280.31        46.87031
280.77        45.95571
281.22        45.28127
281.68        44.83151
282.13        44.46203
282.59        44.07115
283.04         43.5886
283.50        43.10317
283.95        42.63146
284.41        42.26789
284.86        42.01311
285.32        41.87529
285.77         41.8095
286.22        41.82932
286.68         41.9322
287.13        42.04236
287.59        42.18867
288.04        42.31235
288.50        42.43291
288.95        42.52434
289.41        42.55602
289.86        42.40862
290.32        42.13394
290.77        41.78001
291.22        41.52391
291.68        41.61122
292.13        42.08125
292.59        42.89795
293.04        43.93167
293.50         45.0067
293.95        46.05284
294.40        47.13034
294.86        48.30962
295.31        49.69081
295.77        51.30298
296.22         53.0717
296.68        54.93094
297.13        56.74722
297.58        58.47545
298.04        60.15231
298.49        61.80001
298.95        63.52617
299.40        65.35066
299.85        67.26085
300.31        69.26337
300.76        71.29637
301.21        73.33062
301.67        75.39062
302.12         77.3865
302.58        79.30746
303.03        81.11286
303.48        82.85215
303.94        84.63573
304.39         86.5218
304.84        88.55587
305.30        90.71388
305.75        92.87214
306.20        94.96056
306.66        96.97265
307.11        98.87674
307.57        100.7115
308.02        102.3905
308.47        103.9343
308.93        105.3625
309.38        106.6838
309.83        108.0442
310.29        109.4923
310.74        110.9701
311.19         112.411
311.65        113.6693
312.10        114.6724
312.55        115.4697
313.00         116.167
313.46        116.9396
313.91        117.8099
314.36        118.7479
314.82        119.6435
315.27        120.3127
315.72        120.7229
316.18        120.9602
316.63         121.141
317.08        121.4901
317.53        122.0577
317.99        122.7571
318.44        123.4943
318.89        124.0877
319.35        124.4817
319.80        124.7525
320.25        124.9331
320.70        125.0845
321.16        125.2296
321.61        125.3654
322.06        125.5404
322.51        125.8512
322.97        126.2842
323.42         126.854
323.87        127.4288
324.32        127.8103
324.78        127.9292
325.23        127.8852
325.68        127.7669
326.13        127.7637
326.59        127.9103
327.04        128.2183
327.49         128.608
327.94        128.9877
328.39         129.325
328.85        129.6066
329.30        129.9469
329.75        130.3356
330.20        130.7737
330.66        131.2037
331.11         131.654
331.56        132.0419
332.01         132.365
332.46        132.6405
332.92        132.8637
333.37         133.216
333.82        133.6612
334.27        134.1699
334.72        134.6996
335.17        135.1794
335.63        135.5591
336.08        135.9355
336.53         136.287
336.98         136.632
337.43        136.9857
337.88        137.3357
338.34        137.7115
338.79        138.2303
339.24         138.881
339.69        139.6463
340.14        140.4171
340.59        141.0129
341.05        141.3991
341.50        141.6341
341.95        141.8441
342.40         142.254
342.85         142.908
343.30        143.7163
343.75        144.5514
344.20        145.2088
344.66        145.6303
345.11        145.8811
345.56        146.0051
346.01        146.0669
346.46        146.1127
346.91        146.1331
347.36        146.1883
347.81        146.3742
348.26        146.6937
348.72        147.1116
349.17        147.5397
349.62        147.8566
350.07        148.0151
350.52        148.0491
350.97        147.9559
351.42        147.7404
351.87        147.4295
352.32        147.0305
352.77        146.6244
353.22        146.3389
353.67        146.1866
354.13        146.1328
354.58        146.0535
355.03        145.8125
355.48        145.3615
355.93        144.7408
356.38        143.9838
356.83        143.1431
357.28        142.2584
357.73        141.3423
358.18        140.4256
358.63        139.5499
359.08        138.7353
359.53        137.9825
359.98        137.3063
360.43        136.7229
360.88         136.209
361.33        135.7292
361.78        135.2211
362.23        134.5779
362.68        133.7692
363.13        132.8562
363.58        131.8613
364.03        130.6832
364.48        129.5892
364.93        128.4079
365.38        127.2717
365.83        126.2692
366.28        125.4164
366.73        124.6859
367.18        124.0112
367.63        123.2825
368.08        122.4686
368.53        121.6033
368.98        120.7125
369.43        119.8421
369.88        119.0112
370.33        118.1993
370.78         117.425
371.23        116.7214
371.68        116.0863
372.13        115.5104
372.58        114.9424
373.03        114.2977
373.48        113.5574
373.93        112.7433
374.38         111.908
374.83        111.1331
375.28        110.4398
375.72        109.7889
376.17        109.1724
376.62         108.501
377.07        107.7578
377.52        106.9574
377.97        106.1647
378.42        105.4806
378.87        104.9232
379.32        104.4707
379.77         104.019
380.22        103.4025
380.67        102.5977
381.11        101.6663
381.56        100.7534
382.01        100.1131
382.46        99.80967
382.91        99.76282
383.36        99.81426
383.81        99.71466
384.26         99.3938
384.71        98.91985
385.15        98.37563
385.60        97.96171
386.05        97.69667
386.50        97.50786
386.95        97.32043
387.40        97.03164
387.85        96.62576
388.29        96.10619
388.74        95.61687
389.19        95.12772
389.64        94.63857
390.09        94.11471
390.54        93.60745
390.98        93.18475
391.43        92.92262
391.88        92.79668
392.33        92.65112
392.78        92.37079
393.23        91.97511
393.67        91.21981
394.12        90.37945
394.57        90.67871
395.02        90.66518
395.47        90.70808
395.91        90.36108
396.36        90.16927
396.81        90.11917
397.26        89.88065
397.71        89.52915
398.15        89.24648
398.60        89.13785
399.05        89.11318
399.50        89.08581
399.95        88.86583
400.39        88.48497
400.84         88.0851
401.29        87.73898
401.74        87.45914
402.18        87.24049
402.63        86.93581
403.08        86.56991
403.53        86.32288
403.97        86.18917
404.42        86.04684
404.87        85.90735
405.32        85.84792
405.76        85.84394
406.21        85.93676
406.66        85.99944
407.11        85.73456
407.55        85.20218
408.00        84.67503
408.45        84.30132
408.90         84.0699
409.34          83.964
409.79        83.94345
410.24        83.93812
410.68        83.94128
411.13        83.91333
411.58        83.79374
412.03        83.60892
412.47        83.48343
412.92        83.41097
413.37        83.36561
413.81        83.30474
414.26        83.23746
414.71        83.13854
415.15        83.04233
415.60        82.93803
416.05        82.87607
416.49         82.8735
416.94        82.89983
417.39        82.94214
417.83        82.97561
418.28        82.98012
418.73        82.94447
419.17        82.86892
419.62        82.76067
420.07        82.63461
420.51        82.49591
420.96        82.34881
421.41          82.174
421.85        81.95623
422.30        81.66126
422.74        81.36021
423.19        81.52062
423.64        82.02155
424.08        82.25605
424.53        82.10525
424.98        82.07873
425.42        82.19275
425.87        82.04453
426.31        81.71353
426.76        81.59339
427.21        81.65769
427.65        81.59923
428.10        81.40269
428.54        81.27773
428.99        81.26417
429.44         81.2622
429.88        81.23566
430.33        81.13755
430.77        80.92897
431.22        80.95499
431.66        81.16408
432.11        81.09342
432.56        80.88642
433.00        81.18809
433.45        81.72504
433.89        81.91074
434.34        81.67438
434.78         80.4817
435.23         80.0182
435.67        79.71577
436.12        80.89999
436.57        81.20354
437.01         80.9612
437.46        80.78265
437.90        81.19357
438.35        81.69563
438.79        81.32013
439.24        81.30335
439.68        81.35617
440.13        81.55299
440.57        81.80033
441.02        81.85247
441.46        81.66866
441.91        81.46803
442.35        81.23474
442.80        81.13993
443.24        81.15034
443.69        81.19765
444.13        81.24205
444.58        81.38799
445.02        81.54061
445.47        81.46484
445.91        81.23423
446.36        81.16023
446.80        81.23643
447.24        81.40759
447.69        81.67489
448.13        81.44849
448.58        81.78758
449.02        81.67474
449.47        81.50909
449.91        81.45332
450.36        81.55518
450.80        81.67428
451.25        81.76579
451.69        81.81251
452.13        81.78325
452.58        81.61871
453.02        81.36992
453.47        81.18219
453.91        81.08235
454.36         81.0827
454.80        81.06733
455.24        80.84656
455.69        80.47964
456.13        79.92101
456.58        79.46957
457.02        79.50071
457.46        80.57493
457.91        80.52238
458.35        79.89204
458.79        79.57274
459.24        79.69859
459.68        79.45358
460.13        78.93253
460.57        78.79189
461.01        78.87127
461.46        78.54848
461.90        79.23865
462.34        78.72617
462.79        78.53011
463.23        78.38842
463.68        78.58379
464.12        78.44846
464.56        78.04282
465.01        78.02648
465.45         78.2067
465.89        78.18815
466.34        77.99413
466.78        77.82348
467.22        76.98534
467.67         77.8054
468.11        77.15678
468.55        77.20969
468.99        77.09405
469.44        77.06738
469.88        77.12132
470.32        77.16036
470.77        77.17804
471.21        77.15009
471.65        77.06254
472.10        76.93345
472.54        76.76579
472.98        76.61021
473.42        76.48274
473.87        76.38144
474.31         76.2691
474.75        76.22332
475.20        76.21467
475.64        76.14282
476.08        76.00019
476.52         75.9268
476.97        75.90369
477.41        75.73694
477.85        75.84801
478.29        75.62352
478.74        75.55497
479.18        75.64503
479.62        75.72538
480.06        75.75435
480.50        75.61157
480.95        75.60442
481.39         75.7389
481.83        75.28497
482.27        75.35114
482.72        75.47707
483.16        75.33429
483.60        75.35654
484.04        75.29522
484.48        75.51102
484.93        75.64885
485.37        75.51655
485.81        75.48066
486.25        75.86077
486.69        76.52538
487.14        75.60114
487.58         75.3055
488.02        74.91339
488.46        74.82932
488.90        75.47939
489.34        75.55557
489.79        74.66932
490.23        75.14677
490.67        74.85955
491.11        74.66142
491.55        74.56021
491.99         74.5714
492.43        74.54872
492.88        74.45461
493.32        74.42729
493.76        74.47379
494.20        74.56708
494.64        74.70437
495.08        74.91595
495.52        75.12421
495.96        75.14144
496.41        74.98032
496.85        74.79516
497.29        74.61626
497.73        74.63634
498.17         74.6982
498.61        74.57108
499.05        74.27145
499.49        74.28606
499.93        74.58077
500.37        74.59086
500.82        74.27587
501.26        74.18484
501.70        74.50261
502.14        73.80574
502.58         74.6682
503.02        74.74406
503.46        74.47708
503.90        74.26627
504.34        74.10564
504.78        74.03937
505.22        74.04934
505.66        74.02563
506.10        73.95203
506.54        73.98626
506.98        74.13837
507.42         73.9998
507.86        74.16316
508.30        74.19081
508.74        74.25539
509.18        74.32234
509.62        74.37068
510.06         74.3605
510.50        74.28208
510.94        74.15852
511.38        74.02225
511.82        73.92391
512.26         73.8775
512.70        73.87163
513.14         73.8951
513.58         73.9003
514.02        73.87554
514.46         73.8791
514.90         73.9167
515.34        73.76194
515.78        73.84682
516.22        73.71481
516.66        73.70605
517.10        73.69755
517.54        73.75096
517.98        73.84412
518.42        73.92874
518.86        73.93444
519.30        73.84541
519.74        73.68929
520.18        73.51804
520.62        73.41138
521.06        73.39362
521.50        73.44714
521.93        73.53994
522.37        73.60384
522.81        73.62512
523.25        73.61623
523.69        73.60949
524.13        73.65507
524.57        73.75843
525.01        73.89756
525.45        74.01892
525.89        74.04269
526.32        73.94877
526.76        73.77798
527.20         73.5894
527.64        73.48673
528.08        73.49438
528.52        73.57507
528.96        73.67373
529.40        73.71528
529.83        73.66444
530.27        73.53725
530.71        73.37266
531.15        73.26276
531.59        73.22961
532.03        73.24039
532.46        73.25775
532.90        73.25751
533.34        73.22034
533.78        73.14883
534.22         73.0813
534.66        73.07465
535.09         73.1294
535.53        73.25278
535.97        73.35631
536.41        73.34313
536.85        73.20383
537.28        72.90479
537.72        72.57759
538.16        72.59588
538.60        72.91433
539.04        73.09569
539.47        73.08025
539.91        73.14834
540.35        73.26463
540.79        73.25867
541.22        73.15404
541.66        73.09905
542.10         73.1084
542.54        73.13374
542.97        73.15419
543.41        73.18361
543.85        73.20312
544.29        73.22532
544.72        73.22512
545.16        73.19468
545.60        73.12014
546.04        73.00465
546.47        72.88138
546.91         72.8172
547.35        72.81837
547.79         72.8675
548.22        72.90363
548.66        72.88331
549.10        72.79082
549.53         72.6968
549.97        72.64108
550.41        72.62969
550.84        72.67255
551.28        72.78716
551.72        72.91431
552.15        72.93637
552.59        72.85178
553.03        72.68249
553.46        72.48719
553.90         72.4052
554.34          72.444
554.77        72.58855
555.21        72.75243
555.65        72.79207
556.08        72.60535
556.52        72.43755
556.96        72.32362
557.39        72.31323
557.83        72.40255
558.27        72.50445
558.70        72.56316
559.14        72.46426
559.57        72.26402
560.01        72.29601
560.45        72.50362
560.88        72.56499
561.32        72.51479
561.75        72.40415
562.19        72.31466
562.63        72.41541
563.06        72.62415
563.50         72.5517
563.93        72.22028
564.37        72.06807
564.80        72.09383
565.24        72.11771
565.68        72.11845
566.11         72.1375
566.55        72.19186
566.98        72.25881
567.42        72.33557
567.85        72.34925
568.29        72.36523
568.72        72.30544
569.16         72.1853
569.60        72.31258
570.03        72.74047
570.47        72.40762
570.90        72.09722
571.34        73.31807
571.77         72.7993
572.21        72.56866
572.64        73.08179
573.08        72.62497
573.51        72.27002
573.95        72.43617
574.38        72.44409
574.82        72.85069
575.25        72.79169
575.69        72.53004
576.12        72.54962
576.56        72.57482
576.99        72.68343
577.42          72.549
577.86        72.57492
578.29        72.91159
578.73        72.70152
579.16        72.75238
579.60        72.72751
580.03        72.63256
580.47        72.32687
580.90        73.12275
581.33        72.62381
581.77         73.1341
582.20        72.96591
582.64        72.86246
583.07        72.78881
583.51        72.48035
583.94        72.31211
584.37        72.31001
584.81        72.56189
585.24        72.72679
585.68        72.78126
586.11         72.7676
586.54        72.87718
586.98        72.32948
587.41        72.67163
587.85        72.60267
588.28        72.69948
588.71        72.32068
589.15        72.86684
589.58        72.27493
590.01        72.34485
590.45        72.72766
590.88        71.89712
591.31        71.94349
591.75        72.23827
592.18        72.20473
592.61        71.83021
593.05        72.44231
593.48        72.58279
593.91         72.1832
594.35        72.35121
594.78        72.18501
595.21        71.96097
595.65        71.96671
596.08        72.06883
596.51        72.35289
596.94        71.91453
597.38        71.89568
597.81        72.11934
598.24        71.95466
598.68        72.13538
599.11        71.90368
599.54         72.4386
599.97        72.06654
600.41        72.34162
600.84        72.26257
601.27        72.20051
601.70        71.90266
602.14         71.5388
602.57        71.80392
603.00         71.8989
603.43        72.21067
603.87        72.07235
604.30        71.96754
604.73        72.19737
605.16        71.79474
605.60         71.9511
606.03        71.95909
606.46        72.09929
606.89        72.17746
607.32         71.7789
607.76        72.44706
608.19        71.98199
608.62        72.05685
609.05        72.14268
609.48        72.03699
609.92        71.62774
610.35        72.23067
610.78        72.23125
611.21        71.28199
611.64        72.01604
612.07        71.90753
612.50        71.84493
612.94        71.82378
613.37        71.92139
613.80        71.66133
614.23        71.72076
614.66        71.73241
615.09        71.85199
615.52        72.01933
615.96        72.15459
616.39        72.02088
616.82        71.47602
617.25        71.65496
617.68        71.65266
618.11        71.70227
618.54        71.59652
618.97        71.76595
619.40        72.07368
619.84        72.31472
620.27        72.19016
620.70        71.83601
621.13        71.21859
621.56        71.67566
621.99        71.45419
622.42        71.33987
622.85        71.44878
623.28        71.47314
623.71        71.47192
624.14        71.31046
624.57        71.46287
625.00        71.75554
625.43        71.32624
625.86        71.26631
626.29          71.289
626.72        71.26077
627.15        71.21684
627.58        71.24783
628.01        71.40326
628.44        71.42887
628.87        71.02797
629.30        71.66649
629.73        71.39729
630.16        70.85503
630.59        71.35168
631.02        71.35691
631.45        71.38528
631.88        71.45094
632.31         71.5937
632.74        71.38694
633.17        71.52348
633.60        71.46648
634.03        71.42506
634.46        71.37568
634.89        71.33092
635.32        71.28399
635.75        71.23039
636.18        71.22175
636.61        71.23965
637.04        71.16884
637.47        71.04674
637.89        71.07889
638.32        71.23624
638.75        71.34586
639.18        71.39358
639.61        71.48048
640.04        71.58202
640.47        71.62701
640.90        71.60991
641.33        71.51785
641.76        71.36989
642.18        71.37758
642.61        71.27128
643.04        71.26288
643.47        71.25197
643.90        71.21194
644.33        71.13488
644.76         71.0396
645.18        70.95057
645.61        70.88799
646.04         70.8624
646.47        70.86023
646.90         70.8771
647.33        70.91309
647.75        70.96719
648.18        71.02618
648.61        71.07012
649.04        71.12889
649.47        71.18143
649.89        71.06967
650.32        70.86555
650.75        70.92931
651.18        71.22137
651.61        71.28978
652.03        71.09584
652.46        71.04026
652.89        71.17901
653.32        70.93961
653.74        70.76611
654.17        71.18882
654.60        70.74412
655.03        71.02785
655.46        71.04276
655.88        71.47755
656.31        73.60315
656.74         74.6748
657.16        72.89751
657.59        71.79259
658.02        71.28381
658.45        71.51343
658.87        71.45565
659.30        71.43678
659.73        71.20581
660.15        71.45053
660.58         71.0761
661.01        71.19746
661.44        71.38248
661.86        71.33842
662.29        71.06754
662.72        70.75494
663.14        70.55777
663.57        70.75465
664.00          71.231
664.42        71.40529
664.85        71.23198
665.27        71.03612
665.70        70.89968
666.13        70.82111
666.55        70.83244
666.98          70.914
667.41        71.03173
667.83        71.13001
668.26        71.17896
668.69        71.20835
669.11        71.20494
669.54        71.16721
669.96        71.13613
670.39        70.97744
670.82        70.73669
671.24        70.85815
671.67        71.37773
672.09        70.88737
672.52          71.434
672.94        71.32988
673.37        71.22562
673.80        71.18094
674.22        71.22722
674.65        71.20883
675.07        71.12864
675.50        71.08684
675.92        71.09441
676.35        71.10555
676.77        71.12406
677.20        71.16604
677.62        71.21774
678.05        71.23415
678.47        71.20851
678.90         71.1595
679.32        71.11392
679.75         71.1299
680.17         71.2141
680.60        71.35644
681.02        71.49446
681.45        71.52354
681.87        71.43864
682.30        71.21273
682.72         70.9572
683.15        70.95934
683.57         71.2085
684.00        71.34196
684.42        71.32887
684.85        71.39252
685.27        71.50817
685.70        71.52974
686.12        71.46568
686.54        71.43784
686.97        71.43687
687.39        71.43348
687.82        71.43123
688.24        71.30202
688.66         71.3895
689.09        71.39351
689.51        71.42506
689.94        71.45109
690.36        71.47536
690.78        71.49423
691.21        71.49727
691.63        71.46663
692.06        71.40561
692.48         71.3204
692.90         71.2304
693.33        71.15288
693.75        71.10064
694.17        71.07847
694.60        71.06859
695.02        71.08344
695.44        71.11362
695.87        71.12215
696.29         71.1319
696.71        71.27573
697.14        71.49097
697.56         71.5519
697.98        71.46974
698.41        71.51398
698.83        71.67065
699.25        71.80956
699.68        71.88332
700.10        71.93958
700.52        71.95711
700.94        71.92897
701.37         71.8476
701.79         71.7412
702.21        71.60689
702.64        71.46855
703.06        71.34223
703.48        71.27052
703.90        71.26738
704.33        71.31146
704.75        71.40051
705.17        71.50641
705.59        71.61407
706.01         71.6989
706.44        71.74608
706.86        71.87103
707.28        71.86554
707.70        71.88303
708.12        71.88787
708.55        71.88747
708.97        71.83891
709.39        71.91846
709.81        71.65951
710.23        71.63898
710.66        71.72349
711.08        71.85641
711.50        71.96929
711.92        72.02181
712.34        72.00412
712.76        71.92204
713.19        71.81724
713.61        71.81068
714.03        71.90424
714.45        72.06339
714.87        72.23696
715.29        72.34608
715.71        72.36926
716.13        72.33281
716.56        72.24475
716.98        72.19753
717.40        72.19016
717.82        72.20766
718.24        72.24493
718.66        72.29552
719.08        72.35091
719.50        72.40826
719.92        72.46249
720.34        72.50258
720.76        72.52272
721.19        72.51657
721.61          72.484
722.03        72.39533
722.45        72.25385
722.87        72.07291
723.29        71.90298
723.71         71.8205
724.13        71.84473
724.55        71.97119
724.97         72.1697
725.39        72.28655
725.81        72.27749
726.23        72.34841
726.65        72.59658
727.07        72.21983
727.49        72.76163
727.91         72.9549
728.33        73.18011
728.75        73.27711
729.17        73.22801
729.59        73.06206
730.01        72.83388
730.43        72.67761
730.85        72.62406
731.27        72.62973
731.69        72.67928
732.10        72.74998
732.52        72.81635
732.94        72.93315
733.36        73.05837
733.78        73.05288
734.20        72.90114
734.62         72.9419
735.04        72.46553
735.46        72.72099
735.88        73.31564
736.30        73.30214
736.72        72.75169
737.13        72.66572
737.55        73.02225
737.97        73.20116
738.39        73.12813
738.81        72.87668
739.23        72.55512
739.65        72.60696
740.06        72.95133
740.48        73.10242
740.90        73.00674
741.32        73.05031
741.74        73.13937
742.16        73.23573
742.57        73.30492
742.99         73.3657
743.41        73.40791
743.83        73.39734
744.25        73.33301
744.67        73.21882
745.08        73.10429
745.50        73.03385
745.92        73.03758
746.34        73.09685
746.75        73.17314
747.17        73.21547
747.59        73.21326
748.01        73.13105
748.42        73.00803
748.84        73.03185
749.26        73.15707
749.68        73.07302
750.09        72.82728
750.51        72.76849
750.93        72.91268
751.35        73.10348
751.76        73.28733
752.18         73.3951
752.60        73.40639
753.01        73.36918
753.43        73.29351
753.85        73.22539
754.27        73.18877
754.68        73.17589
755.10        73.20894
755.52        73.31843
755.93        73.50109
756.35        73.74507
756.77         73.9856
757.18         74.1524
757.60        74.25278
758.02        74.17084
758.43        73.93219
758.85        73.99684
759.26        74.06416
759.68        73.48503
760.10        74.22299
760.51        73.21667
760.93        73.51859
761.34        73.37382
761.76          74.053
762.18        74.17701
762.59        73.94445
763.01        73.79939
763.42        73.85267
763.84        73.85441
764.26        73.85577
764.67        74.03984
765.09        74.34012
765.50        74.41105
765.92        74.25315
766.33        74.05124
766.75        73.84223
767.16        73.62216
767.58        73.45808
768.00        73.82003
768.41        74.53584
768.83        74.65649
769.24        74.22434
769.66        74.05924
770.07        74.18646
770.49        74.28831
770.90         74.3272
771.32        74.26816
771.73        74.17138
772.15        74.19308
772.56        74.35041
772.97        74.58851
773.39        74.79257
773.80        74.75262
774.22        74.49928
774.63        74.47466
775.05        74.66924
775.46        74.78941
775.88        74.79424
776.29        74.92804
776.70        75.13678
777.12        75.22244
777.53        75.17961
777.95        75.04848
778.36        74.89021
778.77        74.77216
779.19        74.72544
779.60        74.76656
780.02        74.85512
780.43        74.91639
780.84         74.9408
781.26        75.00242
781.67        75.18105
782.09        75.42215
782.50        75.52003
782.91        76.09543
783.33        75.21616
783.74        75.10458
784.15        75.21625
784.57        75.17179
784.98        75.01254
785.39        75.17943
785.81        75.60648
786.22         75.7942
786.63        75.73207
787.04        75.78713
787.46         75.9657
787.87        76.03377
788.28        75.98487
788.70        75.90382
789.11        75.78001
789.52        75.62518
789.93        75.50393
790.35        75.45163
790.76        75.53716
791.17        75.84025
791.58        76.23956
792.00        76.46046
792.41        76.47955
792.82        76.31113
793.23        76.10655
793.65        76.22294
794.06        76.64053
794.47        76.97677
794.88        77.13043
795.29        77.00669
795.71        77.05827
796.12        76.70337
796.53        76.19875
796.94        76.07348
797.35        76.31538
797.76        76.33401
798.18        76.12577
798.59        76.11998
799.00        76.31716
799.41        76.45403
799.82        76.49231
800.23        76.51382
800.64        76.51178
801.06        76.43177
801.47        76.34484
801.88        76.29363
802.29        76.29617
802.70        76.35022
803.11        76.42705
803.52        76.47004
803.93        76.47208
804.34        76.44863
804.75        76.44165
805.17        76.54293
805.58        76.79638
805.99        77.03472
806.40        77.20209
806.81         77.4624
807.22        77.65644
807.63         77.2597
808.04        76.44349
808.45        76.03426
808.86        76.15434
809.27        76.37894
809.68        76.59642
810.09        76.78365
810.50        76.88425
810.91        76.91525
811.32        76.90584
811.73        76.91688
812.14        76.97044
812.55        76.99072
812.96          76.997
813.37        77.14418
813.78        77.38042
814.19        77.44351
814.60        77.34116
815.01        77.30785
815.42        77.35415
815.83        77.32941
816.24        77.25922
816.65         77.2735
817.05        77.38825
817.46        77.52808
817.87        77.65193
818.28        77.64051
818.69        77.47605
819.10        77.20555
819.51        76.91607
819.92        76.76248
820.33        76.79916
820.74        76.97536
821.14        77.22984
821.55        77.50603
821.96        77.74812
822.37        77.96484
822.78         78.1299
823.19        78.19456
823.60        78.15124
824.00        78.03912
824.41         77.8336
824.82        77.59939
825.23         77.3687
825.64        77.14266
826.04         77.0172
826.45        77.09581
826.86        77.39752
827.27        77.88587
827.68         78.4037
828.08        78.71861
828.49        78.69213
828.90         78.4179
829.31        78.04474
829.72        77.83653
830.12        77.89742
830.53        78.11289
830.94        78.38367
831.35        78.50284
831.75        78.43681
832.16        78.20419
832.57        77.94334
832.97        77.84646
833.38        77.95248
833.79        78.19235
834.20        78.45517
834.60        78.57675
835.01        78.53548
835.42        78.38492
835.82        78.21149
836.23        78.07986
836.64        78.04937
837.04        78.09718
837.45        78.16998
837.86        78.28468
838.26        78.43823
838.67        78.62724
839.08        78.78785
839.48        78.79057
839.89        78.62286
840.29        78.32352
840.70        78.04238
841.11        78.02752
841.51         78.3427
841.92        78.86896
842.33        79.45135
842.73        79.81827
843.14        79.84042
843.54        79.63786
843.95        79.31796
844.35         79.0854
844.76        78.99406
845.17        78.97054
845.57        79.01048
845.98        79.06653
846.38         79.1392
846.79        79.24063
847.19        79.30573
847.60        79.15588
848.00        78.80083
848.41        78.25301
848.81        77.73196
849.22        77.52541
849.62        77.73395
850.03        78.24315
850.43        78.85243
850.84        79.15099
851.24        79.08409
851.65        78.68732
852.05        78.21956
852.46        78.03676
852.86        78.24094
853.27        78.71024
853.67        79.15025
854.07         79.3635
854.48        79.25957
854.88        78.95992
855.29        78.49885
855.69        78.16232
856.10        77.95918
856.50        77.91695
856.90        77.93228
857.31         77.8766
857.71        77.76402
858.12        77.57495
858.52        77.44763
858.92         77.4687
859.33        77.63393
859.73        77.94579
860.13        78.23039
860.54        78.21925
860.94        77.89058
861.34        77.29163
861.75        76.61076
862.15        76.20393
862.55        76.13129
862.96        76.32409
863.36        76.59658
863.76        76.61965
864.17        76.30714
864.57        75.77333
864.97        75.24457
865.38        75.05505
865.78        75.32961
866.18        75.94569
866.58        76.63048
866.99        76.91776
867.39        76.71149
867.79        76.12448
868.19        75.46302
868.60        75.14478
869.00         75.2569
869.40        75.70434
869.80        76.26086
870.21        76.51626
870.61        76.42017
871.01         76.0555
871.41        75.62792
871.81        75.41816
872.22        75.46227
872.62        75.69608
873.02        76.01363
873.42        76.21308
873.82        76.22913
874.22        76.15639
874.63        76.07474
875.03        76.05943
875.43        76.14141
875.83        76.25259
876.23        76.41447
876.63        76.67347
877.03        77.00496
877.44        77.38867
877.84        77.66499
878.24        77.53399
878.64        76.97527
879.04         76.1237
879.44        75.26426
879.84        74.79266
880.24         74.7803
880.64        75.10749
881.04        75.59241
881.44        75.91161
881.84        75.94886
882.24        75.79118
882.65        75.49841
883.05        75.28113
883.45        75.17173
883.85        75.12808
884.25        75.12354
884.65        75.12952
885.05        75.13558
885.45        75.14749
885.85         75.2179
886.25        75.42239
886.65        75.75331
887.05        76.17223
887.45        76.52702
887.85        76.59333
888.25        76.33956
888.65        75.83775
889.04        75.27442
889.44        75.00739
889.84        75.10627
890.24        75.45918
890.64        75.89861
891.04        76.15322
891.44        76.14688
891.84        75.98249
892.24        75.72254
892.64        75.45975
893.04        75.24687
893.44         75.0536
893.83        74.96404
894.23        75.05134
894.63        75.34035
895.03         75.7972
895.43        76.29631
895.83        76.62212
896.23        76.71388
896.63        76.62238
897.02        76.43131
897.42        76.32085
897.82         76.3215
898.22        76.39611
898.62        76.49557
899.01        76.54628
899.41        76.51647
899.81        76.46708
900.21        76.45215
900.61        76.55221
901.00        76.76801
901.40        77.05446
901.80        77.37181
902.20        77.68108
902.59        77.95602
902.99        78.18616
903.39        78.29348
903.79        78.14352
904.18        77.74179
904.58        77.17641
904.98        76.61259
905.38        76.29698
905.77        76.26787
906.17        76.45454
906.57        76.74984
906.96        76.98449
907.36        77.06174
907.76        77.05617
908.15        76.96898
908.55        76.72617
908.95        76.38608
909.34        75.95329
909.74        75.60113
910.14        75.55075
910.53        75.83988
910.93        76.36622
911.33        76.98933
911.72        77.44911
912.12        77.63762
912.52        77.65816
912.91        77.51115
913.31         77.2418
913.70        76.88416
914.10        76.39717
914.49         75.9792
914.89        75.92456
915.29        76.31049
915.68        77.05016
916.08        77.82976
916.47        78.13551
916.87        77.88096
917.26         77.2094
917.66        76.43501
918.05        76.02509
918.45        76.09156
918.84         76.4995
919.24        77.03749
919.64        77.44125
920.03        77.63057
920.42        77.70387
920.82         77.6999
921.21        77.65696
921.61        77.59257
922.00        77.47871
922.40        77.40848
922.79        77.64703
923.19        78.17173
923.58        78.92509
923.98         79.6018
924.37         79.7909
924.77         79.4035
925.16        78.55757
925.55        77.53661
925.95        76.84086
926.34        76.64291
926.74        76.80169
927.13        77.16087
927.52        77.35551
927.92        77.30553
928.31        77.11375
928.70        76.91935
929.10         76.9083
929.49        77.12691
929.89        77.46664
930.28        77.86187
930.67        78.09287
931.07        78.07551
931.46        77.88428
931.85        77.61213
932.24         77.4392
932.64        77.40987
933.03         77.4851
933.42          77.549
933.82        77.40997
934.21        77.04501
934.60        76.53101
934.99        76.05249
935.39        75.88206
935.78        76.12534
936.17        76.69308
936.56        77.39281
936.96        77.87605
937.35        78.07942
937.74        78.05854
938.13        77.96069
938.53        78.01852
938.92        78.28599
939.31         78.6678
939.70        79.05071
940.09        79.24353
940.49        79.15961
940.88        78.90678
941.27        78.56028
941.66        78.22802
942.05        77.96372
942.44        77.77003
942.84        77.64372
943.23        77.52213
943.62        77.41975
944.01        77.33823
944.40        77.35628
944.79        77.60074
945.18        78.05081
945.57        78.61269
945.97        79.04956
946.36        79.09248
946.75        78.66511
947.14        77.86994
947.53        76.89391
947.92        76.08206
948.31        75.58377
948.70        75.33607
949.09        75.29629
949.48        75.37114
949.87        75.51229
950.26        75.75727
950.65        76.05925
951.04         76.3312
951.43        76.54738
951.82        76.69447
952.21        76.80093
952.60        76.94696
952.99        77.13522
953.38         77.3152
953.77        77.44366
954.16        77.45867
954.55        77.34651
954.94         77.1454
955.33        76.85191
955.72        76.45763
956.11        75.98225
956.50        75.43541
956.89        74.92738
957.28        74.63596
957.66         74.6442
958.05        74.92049
958.44        75.30824
958.83        75.53677
959.22        75.52702
959.61        75.28941
960.00        75.05044
960.39         75.1874
960.78        75.74283
961.16          76.627
961.55        77.35459
961.94        77.21561
962.33        76.09595
962.72        74.32471
963.11        72.49471
963.49        71.45277
963.88        71.39709
964.27        72.07195
964.66        73.17947
965.04        74.17522
965.43        74.72903
965.82        75.03788
966.21        75.12634
966.60        75.05231
966.98        74.87325
967.37        74.46682
967.76        73.99223
968.15        73.76519
968.53        73.90113
968.92        74.38235
969.31        74.95188
969.69        75.16462
970.08        74.93034
970.47        74.36617
970.86        73.88375
971.24        74.20596
971.63        75.36457
972.02        77.05273
972.40        78.72295
972.79        79.51656
973.17        79.37209
973.56        78.47565
973.95        77.26196
974.33        76.46961
974.72        76.34341
975.11         76.6711
975.49        77.15105
975.88        77.29893
976.26        76.98054
976.65        76.36406
977.04        75.63654
977.42        75.07117
977.81        74.72642
978.19        74.48682
978.58        74.45331
978.96        74.75232
979.35        75.33596
979.74        76.22062
980.12        77.15656
980.51         77.4986
980.89        77.24789
981.28        76.46378
981.66        75.61463
982.05        75.58849
982.43        76.57802
982.82        78.21515
983.20        80.00273
983.59        81.01591
983.97        81.12023
984.35        80.55585
984.74        79.55318
985.12        78.54949
985.51        77.76647
985.89        77.11153
986.28         76.7135
986.66        76.82605
987.04        77.38988
987.43        78.30882
987.81        79.26318
988.20        79.55779
988.58         79.0675
988.96        77.99326
989.35         76.5565
989.73        75.20379
990.12        74.04034
990.50        72.89911
990.88        72.01756
991.27        71.91632
991.65         72.6736
992.03         74.1438
992.42        75.51861
992.80        76.03012
993.18        75.47427
993.56        73.98365
993.95        72.13353
994.33        71.33394
994.71        72.20149
995.10        73.98415
995.48        75.92978
995.86        77.25214
996.24        77.90424
996.63        78.14987
997.01        78.13312
997.39        77.95976
997.77        77.71728
998.15        77.30676
998.54        76.85979
998.92        76.60858
999.30        76.57405
999.68        76.79906
1000.06        77.07927
1000.45        76.93001
1000.83        76.33737
1001.21        75.40213
1001.59        74.54307
1001.97        74.35896
1002.35        74.99459
1002.73        76.38054
1003.12        78.02492
1003.50        78.74417
1003.88        78.20734
1004.26        76.75648
1004.64        75.27643
1005.02        74.89753
1005.40        75.76948
1005.78        77.59879
1006.16        79.55977
1006.54         80.1755
1006.92        79.04245
1007.30        76.59509
1007.69        73.95677
1008.07        72.89233
1008.45        73.89777
1008.83        76.35423
1009.21        79.08387
1009.59        80.40765
1009.97        79.87268
1010.35        77.80681
1010.73         74.9389
1011.11        73.18404
1011.49        73.52208
1011.86        75.48788
1012.24        77.89006
1012.62        79.35191
1013.00        79.57692
1013.38        79.04522
1013.76        78.34142
1014.14        78.39297
1014.52        79.47001
1014.90        81.22452
1015.28        83.18418
1015.66        84.43865
1016.04        84.63473
1016.41        84.21588
1016.79        83.29734
1017.17        82.41357
1017.55        81.74467
1017.93        81.10327
1018.31        80.73122
1018.69        81.01025
1019.06        82.03645
1019.44        83.85899
1019.82        85.78766
1020.20        86.33406
1020.58        85.09608
1020.95        82.47466
1021.33        79.83419
1021.71         78.8749
1022.09        79.79904
1022.46        82.12307
1022.84        84.74492
1023.22        85.50694
1023.60        83.66602
1023.97        79.40844
1024.35        74.16821
1024.73         71.1798
