SpectraSmart Spectrum 2.9.0.0
--------- Device Information -----------
Spectrum Name :  反射率_0
Saving Time :  2024/04/28 00:08:54
Spectro-Module Model Name : SE2030-DUVN
Spectro-Module Serial Number : OS361AC55029948
Wavelength Start : 200
Wavelength End : 1025
Wavelength Unit : Wavelength(nm)
Spectrum Unit : Reflectance(%)
-----------Spectrum Setting ------------
Integration Time : 20ms
Average : 10
Boxcar : 0
Background removal :  enabled
linearity correction :  enabled
SC :  disabled
Intensity correction :  disabled
DWT denoise :  enabled
savitzky-golay :  disabled
FFT :  disabled
Running average :  disabled
Kalman :  disabled
High pass :  disabled
---------------BEGIN--------------------
Wavelength(nm)             Reflectance(%)
200.29               0
200.75        68.06351
201.21        94.95332
201.67        111.4585
202.13        115.2579
202.58        110.9903
203.04        102.5258
203.50        93.18054
203.96         88.2319
204.42        88.39439
204.88        91.19504
205.34        94.28384
205.80        95.65826
206.26        94.85754
206.72        91.64695
207.18        86.17475
207.64        82.85371
208.10        84.94991
208.55        89.80247
209.01        92.15922
209.47        89.81786
209.93        81.07101
210.39        56.58642
210.85       -18.98844
211.31       -113.4655
211.77       -6.120698
212.23        66.34514
212.69         91.2511
213.14        96.55337
213.60         91.1727
214.06        75.60287
214.52        47.60424
214.98        27.70044
215.44        37.66773
215.90         58.3909
216.36        74.60249
216.81        81.56033
217.27          81.912
217.73        78.98237
218.19        74.36315
218.65        70.14857
219.11        67.24151
219.57         64.6998
220.02        62.26083
220.48        61.02872
220.94        60.96083
221.40        62.05709
221.86        63.86311
222.32        65.72444
222.77        67.35086
223.23        68.60184
223.69        69.20232
224.15        68.78748
224.61        67.44105
225.06        65.22583
225.52        62.83064
225.98        61.35082
226.44        61.05761
226.90        61.23856
227.36        61.53918
227.81        61.62138
228.27        61.43368
228.73        61.09158
229.19        60.09714
229.65        57.64069
230.10        53.81084
230.56        49.40998
231.02        45.62341
231.48        44.09051
231.93        44.78568
232.39        47.00704
232.85        49.79219
233.31        51.83767
233.77        52.83728
234.22        53.38563
234.68        53.37777
235.14        52.73267
235.60        51.55963
236.05        49.61087
236.51        47.95369
236.97        48.89885
237.43        53.01119
237.88        59.62395
238.34        66.17204
238.80        70.11304
239.26        70.96207
239.71        68.68989
240.17         63.0413
240.63        58.65499
241.08        60.48455
241.54        65.55862
242.00        70.36519
242.46        73.51821
242.91        75.81809
243.37        78.60129
243.83        83.22984
244.28        89.11902
244.74        89.98018
245.20        84.74437
245.66        79.16832
246.11        75.55058
246.57        72.72979
247.03        69.86929
247.48        66.89878
247.94        65.81059
248.40         68.2428
248.85        72.58865
249.31        77.32838
249.77        81.23025
250.22        84.09715
250.68        86.27983
251.14        87.52962
251.59        87.75766
252.05        87.09275
252.51          84.754
252.96        81.19425
253.42        80.11637
253.88        82.53769
254.33        86.56738
254.79        88.70195
255.25        85.93482
255.70        79.71008
256.16        72.86983
256.62        68.24758
257.07        68.82882
257.53        73.52585
257.99        79.21324
258.44        83.54086
258.90        85.18478
259.35        84.12003
259.81        82.00006
260.27        79.35706
260.72        76.83902
261.18        75.05437
261.63        73.38273
262.09         72.0799
262.55          70.927
263.00        69.75813
263.46        68.81406
263.91        67.84334
264.37        66.93505
264.83        66.00357
265.28        65.00028
265.74        64.07561
266.19        63.14344
266.65        62.27392
267.11        61.39413
267.56        60.42533
268.02         59.3765
268.47        58.20612
268.93        56.96048
269.38        55.69944
269.84        54.55365
270.30        53.54353
270.75        52.63989
271.21         51.7639
271.66        50.72694
272.12        49.53159
272.57        48.20467
273.03        46.91746
273.48        45.83787
273.94        45.05767
274.39        44.44946
274.85         43.9462
275.31        43.34769
275.76        42.58996
276.22        41.78712
276.67        40.94091
277.13        40.17992
277.58        39.46868
278.04        38.82067
278.49        38.17694
278.95        37.59282
279.40        37.00577
279.86        36.48351
280.31        35.94699
280.77        35.41759
281.22         34.8549
281.68        34.32362
282.13          33.827
282.59        33.43742
283.04        33.13461
283.50        32.92181
283.95        32.75536
284.41         32.6214
284.86        32.49028
285.32        32.39242
285.77        32.31209
286.22         32.2767
286.68        32.30108
287.13        32.33117
287.59        32.38359
288.04        32.40173
288.50          32.408
288.95        32.38126
289.41         32.3534
289.86        32.31345
290.32          32.297
290.77        32.30701
291.22        32.36706
291.68        32.49922
292.13        32.71055
292.59        33.03301
293.04        33.49368
293.50         34.1548
293.95        35.01818
294.40        36.08607
294.86        37.31411
295.31        38.62366
295.77        39.99559
296.22        41.40652
296.68        42.90969
297.13        44.55893
297.58        46.34074
298.04         48.2226
298.49        50.06453
298.95         51.7183
299.40        53.17714
299.85        54.52179
300.31        55.95863
300.76        57.74728
301.21        59.92139
301.67          62.374
302.12        64.85092
302.58        67.07545
303.03        68.95005
303.48        70.61295
303.94        72.23396
304.39         73.9723
304.84         75.9129
305.30        77.99662
305.75        80.13847
306.20        82.31796
306.66        84.51994
307.11        86.69683
307.57         88.8222
308.02        90.71415
308.47        92.36572
308.93        93.82684
309.38        95.13181
309.83        96.45672
310.29        97.86922
310.74        99.30199
311.19         100.733
311.65        102.0887
312.10        103.3035
312.55        104.4085
313.00        105.4184
313.46        106.3645
313.91        107.2446
314.36         108.065
314.82        108.8154
315.27        109.4784
315.72        110.0544
316.18        110.5689
316.63         111.039
317.08        111.5308
317.53         112.059
317.99        112.5998
318.44        113.1278
318.89        113.5719
319.35        113.9149
319.80        114.1927
320.25        114.4317
320.70        114.6829
321.16        114.9544
321.61        115.2506
322.06        115.5695
322.51        115.9201
322.97        116.2762
323.42        116.6688
323.87        117.0471
324.32        117.3505
324.78        117.5472
325.23        117.6968
325.68        117.8109
326.13        117.9446
326.59        118.0939
327.04        118.3019
327.49        118.5552
327.94        118.8674
328.39        119.2392
328.85        119.6364
329.30        120.1034
329.75         120.531
330.20        120.8924
330.66        121.1602
331.11        121.4449
331.56        121.8056
332.01        122.2674
332.46        122.8056
332.92        123.3031
333.37        123.7315
333.82        124.0096
334.27        124.1779
334.72        124.3202
335.17         124.574
335.63        124.9535
336.08         125.482
336.53        126.0751
336.98         126.639
337.43        127.1394
337.88        127.6022
338.34        128.0327
338.79        128.5016
339.24        129.0029
339.69        129.5193
340.14        130.0315
340.59        130.5143
341.05        130.9661
341.50        131.4091
341.95        131.8567
342.40        132.3465
342.85        132.8806
343.30        133.4258
343.75        133.9682
344.20        134.4857
344.66         134.967
345.11        135.4214
345.56        135.7898
346.01         135.976
346.46         135.985
346.91        135.8562
347.36        135.7437
347.81        135.8844
348.26        136.3109
348.72        136.9405
349.17        137.5891
349.62         137.983
350.07        138.0451
350.52        137.8629
350.97          137.54
351.42        137.2481
351.87        137.0492
352.32        136.8877
352.77        136.7492
353.22        136.6163
353.67        136.4654
354.13        136.3153
354.58        136.0981
355.03        135.7621
355.48        135.2957
355.93        134.7198
356.38        134.0581
356.83        133.3523
357.28        132.6277
357.73        131.8863
358.18        131.1608
358.63        130.4928
359.08        129.8897
359.53        129.3468
359.98        128.8177
360.43        128.2274
360.88         127.549
361.33        126.7811
361.78        125.9731
362.23        125.2037
362.68        124.4812
363.13        123.7996
363.58        123.0728
364.03        122.0597
364.48        120.9203
364.93        119.6038
365.38        118.2838
365.83        117.1436
366.28        116.2373
366.73        115.5045
367.18        114.8976
367.63        114.3388
368.08        113.7843
368.53        113.2505
368.98        112.6881
369.43        112.0186
369.88        111.2286
370.33        110.3253
370.78        109.3814
371.23        108.5301
371.68        107.8029
372.13        107.1646
372.58        106.5521
373.03        105.8566
373.48        105.0557
373.93        104.2001
374.38         103.333
374.83        102.5142
375.28        101.7641
375.72        101.0393
376.17        100.3809
376.62        99.78195
377.07        99.23163
377.52        98.72057
377.97        98.21017
378.42        97.64082
378.87         97.0053
379.32        96.33054
379.77         95.6467
380.22        94.99529
380.67        94.38966
381.11        93.82305
381.56        93.30109
382.01        92.84626
382.46        92.46638
382.91        92.16179
383.36        91.89962
383.81        91.62251
384.26        91.31272
384.71        90.97741
385.15        90.62791
385.60        90.34998
386.05        90.13081
386.50        89.94109
386.95        89.74092
387.40        89.47655
387.85        89.14136
388.29        88.71021
388.74        88.30367
389.19        87.88379
389.64        87.44428
390.09        86.95966
390.54        86.46494
390.98        86.00291
391.43        85.64775
391.88        85.38968
392.33        85.11829
392.78        84.77344
393.23        84.38242
393.67        83.70712
394.12        82.96685
394.57        83.25033
395.02        83.20185
395.47        83.13396
395.91        82.69052
396.36        82.47404
396.81        82.50137
397.26        82.45174
397.71        82.26938
398.15        82.01524
398.60        81.78509
399.05        81.33433
399.50         80.8166
399.95         80.8303
400.39        81.21835
400.84        81.01974
401.29         80.2823
401.74        79.76883
402.18        79.61668
402.63        79.64108
403.08        79.74319
403.53        79.66266
403.97        79.36073
404.42        79.05682
404.87        78.80892
405.32        78.62277
405.76        78.49532
406.21        78.42675
406.66        78.38897
407.11        78.28693
407.55        78.10647
408.00        78.02313
408.45        78.00747
408.90        77.45796
409.34        76.62439
409.79        76.69275
410.24        77.48222
410.68        77.74762
411.13        77.39889
411.58        77.13232
412.03        77.03268
412.47        76.94596
412.92        76.87199
413.37        76.85839
413.81        76.85308
414.26        76.84222
414.71        76.79528
415.15        76.73942
415.60        76.64531
416.05        76.53704
416.49        76.43016
416.94        76.30553
417.39        76.19774
417.83         76.1528
418.28         76.1748
418.73        76.25162
419.17        76.33788
419.62        76.36083
420.07        76.30646
420.51        76.18528
420.96        76.07018
421.41        76.02264
421.85        76.02317
422.30        76.08067
422.74        76.12311
423.19        76.20564
423.64        76.27664
424.08        76.28762
424.53        76.18018
424.98        76.08096
425.42        76.02829
425.87        75.87176
426.31        75.67315
426.76        75.74174
427.21        75.98705
427.65        75.91294
428.10        75.59533
428.54         75.5415
428.99        75.79567
429.44        76.21342
429.88        76.60794
430.33        76.46107
430.77        75.87623
431.22          75.857
431.66        76.34598
432.11        76.36909
432.56        75.97103
433.00        76.17452
433.45         76.7442
433.89        76.57529
434.34         75.7856
434.78        75.44125
435.23        75.32489
435.67        75.90737
436.12        76.88491
436.57        77.11901
437.01        76.69621
437.46        76.46986
437.90        77.02709
438.35        77.10712
438.79        76.98593
439.24        76.84647
439.68        76.78932
440.13        76.75084
440.57        76.79689
441.02        77.07973
441.46        77.38284
441.91        77.40582
442.35        77.26068
442.80        76.59406
443.24        77.52699
443.69        77.65728
444.13        77.58552
444.58        77.64609
445.02        77.80932
445.47        77.93629
445.91        77.98975
446.36        77.94536
446.80        77.76004
447.24         77.9954
447.69        77.60911
448.13        77.75664
448.58        78.03531
449.02        77.99429
449.47         77.7053
449.91        77.64647
450.36        77.86639
450.80          78.056
451.25        78.17107
451.69        78.24397
452.13          78.244
452.58        78.10384
453.02        77.88417
453.47        77.70203
453.91        77.56766
454.36        77.59099
454.80        77.66704
455.24        77.24188
455.69        76.82473
456.13        76.46157
456.58        76.34336
457.02        76.49166
457.46        76.64149
457.91        76.31749
458.35        75.85239
458.79        75.56959
459.24        75.58907
459.68        75.56813
460.13        75.49534
460.57        75.28355
461.01         75.2961
461.46        74.99167
461.90        74.73543
462.34        74.85895
462.79        74.80735
463.23        74.77566
463.68        74.59741
464.12        74.51031
464.56        74.52802
465.01        74.62274
465.45        74.64527
465.89         74.5936
466.34        74.50672
466.78        74.18583
467.22        73.71733
467.67        74.03001
468.11        74.00048
468.55        73.91666
468.99        73.50204
469.44         73.3148
469.88        73.37034
470.32        73.36041
470.77        73.27385
471.21        73.22849
471.65        73.21073
472.10        73.20046
472.54        73.15136
472.98        73.03444
473.42        72.85205
473.87        72.63175
474.31        72.39375
474.75         72.2892
475.20        72.29735
475.64          72.331
476.08        72.34393
476.52        72.33936
476.97        72.30231
477.41        72.41785
477.85        72.08302
478.29        72.15292
478.74        72.51398
479.18        71.58562
479.62        72.04671
480.06         71.8932
480.50        71.92387
480.95        72.02608
481.39        72.11496
481.83        72.05099
482.27        72.26058
482.72         71.6392
483.16        71.84382
483.60        71.67503
484.04        71.58275
484.48        71.50879
484.93        71.63626
485.37        71.75501
485.81        72.16065
486.25        72.65514
486.69        73.69643
487.14        72.81752
487.58        71.54171
488.02        71.89387
488.46        72.12488
488.90        71.67471
489.34        71.45324
489.79        70.68768
490.23        71.31554
490.67         71.1431
491.11        70.70052
491.55         70.5946
491.99        70.80515
492.43        70.87993
492.88        70.77568
493.32        70.76347
493.76        70.83391
494.20        70.88776
494.64        70.91856
495.08         70.9673
495.52         71.0407
495.96        71.03873
496.41        70.98669
496.85        71.14323
497.29        71.37878
497.73        71.33416
498.17        70.96577
498.61        70.87282
499.05        71.02595
499.49        71.11509
499.93        71.10332
500.37        70.91322
500.82        70.58871
501.26         70.5781
501.70        70.97265
502.14        70.51668
502.58        70.81815
503.02         70.8784
503.46        70.86848
503.90        70.91034
504.34         70.9052
504.78        70.87295
505.22        70.78751
505.66        70.59965
506.10        70.38038
506.54        70.29345
506.98        70.36114
507.42         70.3865
507.86         70.7625
508.30        70.54513
508.74        70.71444
509.18        70.57641
509.62        70.43533
510.06        70.33084
510.50        70.28461
510.94        70.27144
511.38        70.25982
511.82        70.22594
512.26        70.16013
512.70        70.07803
513.14        69.99687
513.58        69.94039
514.02        69.91792
514.46        69.92081
514.90        69.93452
515.34        69.95729
515.78        69.95845
516.22        69.95625
516.66        69.95782
517.10        69.98536
517.54        70.03864
517.98        70.10803
518.42        70.16177
518.86        70.14975
519.30         70.0662
519.74        69.93242
520.18        69.79192
520.62        69.71036
521.06        69.70694
521.50        69.76601
521.93        69.86226
522.37        69.93832
522.81        69.98086
523.25        69.99759
523.69        70.00542
524.13        70.03202
524.57        70.08044
525.01        70.13799
525.45        70.17522
525.89        70.14826
526.32         70.0481
526.76        69.90991
527.20        69.77098
527.64        69.69759
528.08         69.7041
528.52        69.76405
528.96        69.85186
529.40        69.92578
529.83        69.96315
530.27        69.99229
530.71        69.99138
531.15        69.93687
531.59        69.83204
532.03        69.68091
532.46        69.52995
532.90        69.47878
533.34        69.53607
533.78        69.67354
534.22        69.81972
534.66        69.86339
535.09        69.77433
535.53        69.61042
535.97        69.42252
536.41        69.30713
536.85        69.29263
537.28        69.35239
537.72         69.4498
538.16        69.51824
538.60        69.53686
539.04        69.53375
539.47        69.51251
539.91        69.51616
540.35        69.53449
540.79        69.57354
541.22         69.5873
541.66        69.51456
542.10        69.35075
542.54        69.12255
542.97         68.9097
543.41        68.87147
543.85         69.0159
544.29        69.29752
544.72        69.59142
545.16        69.72954
545.60        69.65494
546.04        69.44068
546.47         69.1882
546.91         69.0083
547.35        68.96532
547.79        69.15842
548.22        69.44348
548.66        69.48328
549.10        69.26917
549.53        69.10606
549.97        69.05428
550.41        69.04145
550.84        69.04836
551.28        69.07494
551.72        69.11855
552.15          69.105
552.59        69.01536
553.03        69.28232
553.46        69.10093
553.90        69.11504
554.34        69.04756
554.77        69.14436
555.21        69.44406
555.65        68.85815
556.08        69.12685
556.52        69.06013
556.96        69.13943
557.39         69.0596
557.83        68.88512
558.27        68.96058
558.70        69.19901
559.14         69.1061
559.57        68.74783
560.01        68.74319
560.45        69.04678
560.88        69.17152
561.32        69.14155
561.75         69.1207
562.19        69.13983
562.63        69.18484
563.06        69.21743
563.50        69.06122
563.93        68.76389
564.37        68.68987
564.80        68.80212
565.24        68.83698
565.68        68.77929
566.11        68.79951
566.55        68.91699
566.98        68.98391
567.42        69.01454
567.85        69.09237
568.29        69.24001
568.72        69.19499
569.16        69.02602
569.60          69.114
570.03        69.47926
570.47        69.27586
570.90        69.36983
571.34        69.86807
571.77        69.79743
572.21        69.74694
572.64        70.16282
573.08        69.71562
573.51        69.18482
573.95        69.30859
574.38         69.8853
574.82        70.13442
575.25         70.0345
575.69        69.85609
576.12        69.77135
576.56        69.64742
576.99        69.43556
577.42        69.99036
577.86         69.9779
578.29        70.32821
578.73        70.15692
579.16        70.04096
579.60        69.82893
580.03         69.6666
580.47        69.46407
580.90        70.10561
581.33         70.3626
581.77        69.99647
582.20        70.56624
582.64        70.49708
583.07        70.18937
583.51         69.7838
583.94        69.55427
584.37        69.57439
584.81        69.87909
585.24        70.02065
585.68        69.99677
586.11        70.12354
586.54        70.17105
586.98        69.89011
587.41        69.84554
587.85        69.63824
588.28        70.00385
588.71         69.7935
589.15        69.84146
589.58         69.5358
590.01        69.48613
590.45         69.5312
590.88        68.94337
591.31        68.93341
591.75        69.13483
592.18         69.2334
592.61        68.98384
593.05        69.02004
593.48        70.16594
593.91        69.67393
594.35        69.78646
594.78        69.81448
595.21        69.17052
595.65        69.32905
596.08        69.39957
596.51         69.5425
596.94        69.03358
597.38        68.99927
597.81        69.39928
598.24        68.96004
598.68        69.35181
599.11        69.37946
599.54         69.3442
599.97        69.71962
600.41        69.66274
600.84        69.70048
601.27        69.54583
601.70        69.51949
602.14        69.05662
602.57        69.21909
603.00        69.05013
603.43        69.35415
603.87         69.4102
604.30        69.14042
604.73        69.26753
605.16        69.51545
605.60        69.18868
606.03        69.38055
606.46        69.76997
606.89        69.45455
607.32        69.47763
607.76        69.61031
608.19        69.36846
608.62        69.29045
609.05        69.19458
609.48        69.09969
609.92        68.98235
610.35        69.07622
610.78        69.30046
611.21        68.85727
611.64         69.3067
612.07        69.16276
612.50        68.94582
612.94        68.79187
613.37        68.75117
613.80        68.83652
614.23        68.74055
614.66        68.79046
615.09        68.83054
615.52        68.91575
615.96        69.08981
616.39        68.62434
616.82        68.73664
617.25        68.93078
617.68        68.83134
618.11        68.65818
618.54        68.33449
618.97        68.48863
619.40        68.99768
619.84        69.09589
620.27        69.01561
620.70        68.75401
621.13        68.39822
621.56        68.69827
621.99         68.5046
622.42        68.38924
622.85        68.59362
623.28        69.08302
623.71        68.69501
624.14        68.47894
624.57        68.51379
625.00        68.34589
625.43        68.24989
625.86        68.23473
626.29        68.40094
626.72        68.24036
627.15        68.38856
627.58        68.57738
628.01        69.02079
628.44        68.51825
628.87        68.11887
629.30        68.58245
629.73        68.41517
630.16        67.83319
630.59        68.12507
631.02        68.14627
631.45        68.33845
631.88        68.44553
632.31        68.48125
632.74        68.15743
633.17         68.1916
633.60        68.12234
634.03        68.16752
634.46         68.2819
634.89        68.41635
635.32        68.46995
635.75        68.41159
636.18        68.31354
636.61        68.21415
637.04        68.08855
637.47        67.98208
637.89        68.09718
638.32        68.36311
638.75        68.42614
639.18        68.22768
639.61        68.38025
640.04        68.08698
640.47        68.02908
640.90        67.98024
641.33        67.93479
641.76         67.8685
642.18        67.91534
642.61        67.80563
643.04        67.80473
643.47        67.75777
643.90        67.78278
644.33        67.85017
644.76        67.95324
645.18        68.05038
645.61        68.06517
646.04        67.98408
646.47        67.81933
646.90        67.63898
647.33        67.55027
647.75        67.58691
648.18        67.74468
648.61        67.92769
649.04         67.9827
649.47        67.89777
649.89        67.66963
650.32        67.42807
650.75        67.55167
651.18        67.95411
651.61        68.10675
652.03        67.94743
652.46        67.73741
652.89        67.65107
653.32        67.57267
653.74        67.76545
654.17        68.09697
654.60        68.19097
655.03         67.4845
655.46        67.81625
655.88        68.44521
656.31        70.83695
656.74         73.6949
657.16        72.27649
657.59        70.75748
658.02        68.82686
658.45        68.32922
658.87        68.52022
659.30        68.36974
659.73        67.92043
660.15        68.26124
660.58        67.89378
661.01        68.03221
661.44         68.1277
661.86        68.23473
662.29        68.26947
662.72        68.10535
663.14        67.84808
663.57        67.85264
664.00         68.1134
664.42        68.20669
664.85        68.10911
665.27        68.20758
665.70        68.20432
666.13         68.1818
666.55        68.05907
666.98        67.87108
667.41        67.69147
667.83        67.65018
668.26        67.76772
668.69        68.00845
669.11        68.28457
669.54        68.46243
669.96        68.51185
670.39        68.41426
670.82        68.25876
671.24        68.28928
671.67        68.48363
672.09        68.55865
672.52         68.5051
672.94        68.44147
673.37        68.38905
673.80        68.31934
674.22        68.25357
674.65        68.17025
675.07         68.0975
675.50        68.04821
675.92         68.0358
676.35        68.04656
676.77         68.0827
677.20        68.14954
677.62        68.22977
678.05        68.27425
678.47        68.27345
678.90        68.24873
679.32        68.22872
679.75         68.2583
680.17         68.3415
680.60        68.49761
681.02        68.68063
681.45        68.65421
681.87         68.6821
682.30        68.50061
682.72        68.27665
683.15        68.31934
683.57        68.58044
684.00        68.55508
684.42        68.30185
684.85        68.29964
685.27        68.54471
685.70        68.83517
686.12         69.0653
686.54        69.06002
686.97        68.84933
687.39        68.80252
687.82        68.93408
688.24        68.80793
688.66        68.76188
689.09        68.71538
689.51        68.76251
689.94        68.76838
690.36        68.73747
690.78        68.63635
691.21        68.51792
691.63        68.60685
692.06        68.84319
692.48        68.86893
692.90        68.69275
693.33        68.57172
693.75        68.58796
694.17        68.51357
694.60        68.39265
695.02        68.36781
695.44        68.45251
695.87        68.64353
696.29        68.87975
696.71        69.03182
697.14        69.05376
697.56        69.00983
697.98        68.93173
698.41        68.90639
698.83        68.93046
699.25        68.98924
699.68         69.0509
700.10        69.12227
700.52        69.18188
700.94        69.23841
701.37        69.25694
701.79        69.21694
702.21        69.10022
702.64         68.9288
703.06        68.75307
703.48        68.67255
703.90        68.71388
704.33        68.84945
704.75        69.01884
705.17        69.09777
705.59        69.05431
706.01        68.89458
706.44        68.71228
706.86        68.77068
707.28        68.90128
707.70        69.24549
708.12        69.61755
708.55        69.69432
708.97        69.48444
709.39        69.32955
709.81        69.29326
710.23        69.23465
710.66        69.17997
711.08        69.26853
711.50        69.43434
711.92        69.52038
712.34        69.50274
712.76        69.42853
713.19        69.33594
713.61        69.33337
714.03        69.42126
714.45        69.56094
714.87          69.703
715.29        69.77592
715.71        69.76005
716.13        69.68803
716.56        69.58787
716.98        69.51528
717.40        69.46201
717.82        69.54202
718.24        69.78327
718.66        69.57703
719.08        69.94771
719.50        70.05254
719.92        70.18958
720.34         70.3142
720.76        70.42274
721.19        70.50101
721.61        70.52473
722.03        70.45751
722.45        70.30016
722.87        70.06774
723.29        69.84415
723.71        69.76199
724.13        69.84939
724.55        70.07732
724.97        70.35379
725.39        70.48334
725.81        70.41692
726.23        70.27785
726.65        70.17684
727.07        69.92059
727.49        70.13641
727.91         70.2937
728.33        70.49719
728.75         70.6038
729.17        70.58142
729.59        70.50354
730.01        70.39612
730.43        70.25294
730.85        70.13091
731.27        70.14414
731.69         70.2757
732.10        70.44506
732.52        70.48906
732.94        70.65334
733.36        70.85342
733.78        70.84646
734.20        70.60148
734.62        70.69742
735.04        70.09844
735.46        70.24986
735.88         70.7007
736.30        70.59777
736.72        70.04555
737.13        70.09472
737.55        70.68669
737.97        70.99157
738.39        70.91082
738.81        70.74445
739.23        70.54355
739.65        70.39265
740.06        70.30064
740.48        70.20928
740.90        70.10413
741.32        70.14035
741.74        70.19372
742.16        70.48476
742.57        70.55287
742.99        70.74796
743.41        70.91399
743.83        70.96543
744.25        70.90022
744.67         70.7823
745.08        70.67323
745.50        70.58245
745.92        70.55017
746.34        70.59754
746.75        70.68261
747.17        70.71954
747.59        70.69139
748.01        70.59966
748.42        70.51566
748.84        70.57235
749.26        70.75527
749.68        70.98602
750.09        71.17225
750.51        71.11623
750.93        70.88257
751.35        70.85442
751.76        71.01871
752.18        71.01449
752.60        70.84225
753.01        70.73377
753.43        70.70362
753.85        70.70352
754.27        70.73849
754.68         70.8259
755.10        70.93811
755.52        71.02467
755.93        71.08131
756.35        71.11913
756.77        71.12636
757.18        71.20614
757.60         71.3809
758.02        71.37209
758.43        71.17661
758.85        71.75185
759.26        71.51231
759.68        71.64816
760.10        71.82069
760.51        70.72378
760.93        70.77101
761.34        70.98289
761.76        71.46295
762.18        71.73071
762.59        71.62862
763.01        71.54162
763.42        71.58982
763.84        71.63728
764.26        71.74583
764.67        72.03688
765.09        72.40372
765.50        72.43156
765.92        72.15741
766.33        71.87177
766.75        71.63761
767.16        71.48293
767.58        71.39817
768.00        71.63007
768.41        72.04886
768.83        71.92993
769.24        71.41624
769.66         71.4341
770.07        71.90493
770.49        72.14453
770.90         72.0801
771.32        71.92194
771.73        71.76086
772.15        71.67802
772.56        71.70631
772.97        71.80245
773.39        71.89426
773.80        71.87481
774.22        71.76086
774.63        71.86663
775.05        72.13449
775.46        72.29183
775.88         72.2837
776.29        72.30326
776.70        72.36842
777.12        72.44218
777.53        72.54528
777.95        72.66167
778.36        72.76583
778.77        72.79494
779.19         72.7467
779.60        72.66261
780.02         72.5613
780.43        72.52346
780.84        72.54733
781.26        72.52894
781.67        72.57162
782.09        72.83417
782.50         73.0915
782.91        73.75189
783.33        72.91481
783.74         72.8086
784.15        72.89724
784.57        72.75395
784.98        72.46049
785.39        72.54919
785.81        72.97683
786.22        73.23226
786.63         73.2653
787.04        73.36751
787.46        73.53147
787.87        73.55306
788.28        73.45374
788.70        73.36805
789.11        73.29556
789.52        73.19171
789.93         73.1006
790.35        73.10896
790.76        73.23682
791.17        73.39381
791.58        73.51026
792.00        73.55176
792.41        73.52299
792.82        73.33461
793.23        73.12315
793.65        73.23661
794.06        73.66057
794.47        74.08038
794.88        74.37204
795.29        74.33279
795.71        74.38631
796.12        74.06198
796.53        73.63926
796.94        73.39352
797.35        73.74369
797.76        73.80557
798.18         73.6794
798.59        73.71274
799.00        73.90094
799.41        74.00677
799.82        74.01262
800.23          74.035
800.64        74.07346
801.06        74.06416
801.47        74.04454
801.88         74.0009
802.29        73.94257
802.70        73.89423
803.11        73.85862
803.52        73.83112
803.93        73.81523
804.34        73.80111
804.75        73.83836
805.17         73.9938
805.58        74.29301
805.99        74.69003
806.40        75.04935
806.81         75.1348
807.22         74.9072
807.63        74.45865
808.04        73.95837
808.45        73.70732
808.86        73.79526
809.27        74.12969
809.68        74.56702
810.09        74.84846
810.50        74.88916
810.91        74.77245
811.32        74.57085
811.73        74.41933
812.14         74.3693
812.55        74.32305
812.96        74.29344
813.37        74.42245
813.78        74.65335
814.19        74.74212
814.60        74.68174
815.01        74.67231
815.42        74.72038
815.83        74.68356
816.24        74.60835
816.65        74.66229
817.05        74.87066
817.46        75.14398
817.87        75.41312
818.28        75.52422
818.69        75.44521
819.10        75.21927
819.51          74.945
819.92        74.80007
820.33        74.84187
820.74        75.01885
821.14        75.23138
821.55        75.35899
821.96        75.34713
822.37        75.23804
822.78        75.09534
823.19        75.02786
823.60        75.07404
824.00        75.22218
824.41        75.36876
824.82        75.44116
825.23        75.41545
825.64        75.31955
826.04        75.24284
826.45        75.28981
826.86        75.49021
827.27        75.79887
827.68        76.11114
828.08        76.28767
828.49        76.22004
828.90        75.99693
829.31        75.71103
829.72        75.52091
830.12         75.5014
830.53        75.56067
830.94        75.67353
831.35        75.75773
831.75        75.80749
832.16        75.81166
832.57        75.79413
832.97          75.755
833.38        75.69389
833.79        75.60542
834.20        75.53252
834.60        75.54147
835.01         75.6513
835.42        75.84016
835.82        76.05582
836.23        76.12043
836.64        76.02699
837.04        75.84777
837.45        75.63208
837.86        75.56186
838.26        75.69245
838.67        75.95228
839.08        76.28728
839.48        76.58885
839.89        76.80873
840.29        76.96883
840.70        77.07555
841.11        77.14524
841.51        77.20454
841.92        77.20545
842.33         77.1611
842.73         77.0956
843.14        76.97263
843.54        76.83123
843.95        76.69161
844.35        76.59996
844.76        76.55538
845.17         76.5497
845.57        76.56641
845.98        76.53362
846.38        76.46046
846.79        76.34444
847.19        76.21674
847.60          76.075
848.00        75.95429
848.41        75.82049
848.81        75.73312
849.22        75.71121
849.62        75.79348
850.03        75.94817
850.43        76.13687
850.84        76.21371
851.24        76.19593
851.65        76.04536
852.05        75.91346
852.46        75.95452
852.86        76.19468
853.27         76.5889
853.67        76.90229
854.07        77.00213
854.48         76.8217
854.88        76.44747
855.29        75.93177
855.69        75.60049
856.10        75.46487
856.50        75.53558
856.90        75.65936
857.31        75.61646
857.71        75.40376
858.12        75.04373
858.52        74.70057
858.92        74.50703
859.33        74.48906
859.73         74.6307
860.13         74.8287
860.54        74.93122
860.94        74.92194
861.34        74.81113
861.75        74.62656
862.15        74.47398
862.55        74.35794
862.96         74.2699
863.36         74.1779
863.76        74.02108
864.17        73.78712
864.57        73.51235
864.97        73.28791
865.38        73.23233
865.78        73.40709
866.18        73.74868
866.58           74.09
866.99        74.15324
867.39        73.89768
867.79        73.37683
868.19        72.78442
868.60        72.36712
869.00        72.17987
869.40        72.19733
869.80        72.30698
870.21        72.30744
870.61        72.22078
871.01        72.05893
871.41        71.94798
871.81        72.06456
872.22        72.40646
872.62        72.93109
873.02        73.50065
873.42        73.84934
873.82        73.88822
874.22        73.71348
874.63        73.46049
875.03        73.29642
875.43        73.28449
875.83        73.36297
876.23        73.52297
876.63        73.75185
877.03        74.01671
877.44        74.30859
877.84        74.55604
878.24        74.60025
878.64        74.41709
879.04        74.06704
879.44        73.65817
879.84        73.34212
880.24        73.16333
880.64        73.09274
881.04        73.11155
881.44        73.18194
881.84        73.27685
882.24        73.38921
882.65        73.48947
883.05        73.62838
883.45        73.75736
883.85         73.8726
884.25        73.90964
884.65        73.78085
885.05         73.4885
885.45        73.06084
885.85        72.64818
886.25        72.51025
886.65        72.70454
887.05        73.15405
887.45        73.65562
887.85        73.89315
888.25        73.79069
888.65        73.43359
889.04        72.98401
889.44        72.75946
889.84        72.82462
890.24        73.07968
890.64        73.37405
891.04        73.47639
891.44        73.33138
891.84        73.03092
892.24        72.68802
892.64        72.46778
893.04        72.42441
893.44        72.51073
893.83        72.69316
894.23        72.85354
894.63        72.98033
895.03         73.0921
895.43        73.21648
895.83        73.39268
896.23        73.61641
896.63        73.85542
897.02        74.04037
897.42        74.11969
897.82        74.07405
898.22        73.93813
898.62        73.77256
899.01          73.689
899.41        73.69975
899.81        73.78319
900.21        73.90697
900.61        74.01529
901.00        74.07159
901.40        74.10537
901.80        74.09729
902.20        74.02868
902.59        73.91303
902.99        73.74501
903.39        73.56635
903.79        73.43404
904.18        73.37193
904.58        73.39058
904.98        73.47247
905.38        73.59598
905.77        73.73568
906.17        73.87963
906.57        74.03925
906.96        74.25668
907.36        74.49595
907.76        74.76157
908.15        74.94122
908.55        74.78222
908.95        74.29395
909.34        73.54429
909.74        72.82686
910.14        72.53547
910.53        72.76057
910.93        73.37177
911.33        74.12152
911.72        74.57207
912.12        74.58384
912.52        74.31948
912.91        73.94233
913.31        73.72173
913.70        73.72019
914.10         73.8228
914.49        74.02277
914.89        74.24863
915.29         74.4741
915.68        74.72901
916.08         74.9259
916.47         74.9135
916.87        74.69556
917.26        74.28972
917.66        73.87245
918.05        73.69391
918.45        73.79756
918.84        74.13818
919.24        74.52212
919.64        74.70508
920.03        74.64183
920.42        74.41615
920.82        74.16106
921.21        74.07333
921.61        74.18938
922.00        74.43627
922.40        74.76848
922.79        75.19013
923.19        75.61034
923.58        76.05842
923.98        76.35044
924.37        76.26292
924.77        75.76868
925.16        74.93251
925.55        74.02142
925.95        73.50603
926.34        73.52337
926.74        73.93274
927.13        74.53556
927.52        74.89567
927.92        74.91389
928.31         74.7065
928.70        74.41956
929.10        74.26477
929.49        74.30126
929.89        74.40923
930.28         74.5809
930.67        74.69731
931.07        74.70595
931.46        74.68566
931.85        74.61219
932.24        74.47093
932.64         74.2765
933.03         74.0341
933.42        73.82233
933.82        73.76717
934.21        73.89725
934.60        74.18487
934.99        74.53362
935.39        74.75504
935.78        74.82531
936.17        74.76857
936.56        74.67343
936.96        74.68489
937.35        74.88683
937.74        75.19939
938.13        75.50774
938.53        75.65499
938.92        75.61311
939.31        75.41165
939.70        75.17803
940.09        75.12945
940.49         75.2859
940.88        75.61066
941.27        75.90848
941.66        75.88594
942.05        75.50471
942.44        74.89069
942.84        74.26108
943.23        73.91408
943.62        73.96037
944.01        74.27944
944.40        74.77026
944.79        75.24277
945.18        75.58609
945.57        75.84555
945.97        75.90383
946.36        75.65895
946.75        75.09511
947.14        74.24447
947.53        73.33795
947.92        72.80124
948.31        72.75528
948.70        73.09611
949.09        73.58986
949.48        73.84525
949.87         73.7598
950.26        73.45683
950.65         73.0814
951.04        72.86353
951.43        72.87523
951.82        73.03267
952.21        73.26655
952.60        73.47164
952.99        73.59808
953.38        73.67317
953.77        73.71452
954.16        73.74802
954.55        73.76579
954.94        73.72736
955.33         73.6018
955.72        73.34914
956.11        72.96832
956.50        72.51013
956.89         71.9889
957.28        71.41652
957.66        70.88229
958.05        70.42047
958.44        70.17067
958.83        70.32824
959.22        70.88779
959.61        71.70357
960.00        72.62919
960.39        73.45177
960.78        74.05413
961.16        74.49396
961.55        74.54802
961.94        73.98517
962.33        72.84934
962.72        71.32189
963.11        69.81246
963.49         68.8956
963.88        68.71063
964.27        69.12507
964.66        69.96251
965.04        70.87318
965.43        71.58421
965.82        72.18187
966.21        72.62152
966.60        72.88321
966.98        72.97582
967.37        72.80112
967.76        72.42375
968.15         71.9904
968.53        71.60839
968.92        71.34097
969.31        71.12786
969.69        70.81688
970.08        70.38509
970.47        69.86623
970.86        69.59511
971.24        70.13277
971.63        71.43842
972.02         73.2687
972.40        75.00877
972.79          75.694
973.17        75.27561
973.56        73.94629
973.95        72.33549
974.33        71.54656
974.72        71.89919
975.11        73.05588
975.49        74.42558
975.88        75.03035
976.26        74.59142
976.65        73.42905
977.04         71.9189
977.42        70.67194
977.81        69.89941
978.19        69.38896
978.58        69.28536
978.96        69.76756
979.35        70.75647
979.74        72.25222
980.12        73.80723
980.51        74.44648
980.89        74.08359
981.28        72.83613
981.66        71.31229
982.05         70.7182
982.43        71.36599
982.82        72.80964
983.20        74.49145
983.59        75.37689
983.97        75.28472
984.35        74.51234
984.74        73.28367
985.12         71.9955
985.51        70.90804
985.89         69.9846
986.28        69.41267
986.66        69.54398
987.04        70.33707
987.43         71.6545
987.81         73.2093
988.20        74.35203
988.58        74.88928
988.96        74.94854
989.35        74.55453
989.73        73.88814
990.12        73.00643
990.50        71.79739
990.88         70.5893
991.27         70.1655
991.65        70.74429
992.03        72.11322
992.42        73.49249
992.80        74.14796
993.18         73.8485
993.56        72.76003
993.95        71.25864
994.33        70.25816
994.71        70.30726
995.10        70.95433
995.48         71.8359
995.86        72.47021
996.24        72.80938
996.63        73.04324
997.01        73.27343
997.39        73.51647
997.77        73.75875
998.15        73.85011
998.54        73.89538
998.92        74.14474
999.30        74.60463
999.68        75.28419
1000.06        75.80153
1000.45        75.38378
1000.83        74.00813
1001.21         71.9483
1001.59        69.96873
1001.97        69.13485
1002.35        69.69885
1002.73        71.48641
1003.12        73.88197
1003.50        75.32522
1003.88        75.28439
1004.26         74.1964
1004.64        72.89127
1005.02        72.46358
1005.40        73.08932
1005.78        74.40906
1006.16        75.85138
1006.54        76.42065
1006.92         75.8257
1007.30        74.44131
1007.69        72.88282
1008.07        72.01588
1008.45        72.18785
1008.83        73.08611
1009.21        74.27884
1009.59        75.18279
1009.97        75.60608
1010.35        75.66962
1010.73        75.51099
1011.11        75.43469
1011.49         75.5702
1011.86        75.87211
1012.24         75.9378
1012.62        75.47969
1013.00        74.53622
1013.38        73.36146
1013.76        72.32777
1014.14        72.03999
1014.52        72.66033
1014.90        73.91284
1015.28        75.71346
1015.66        77.77811
1016.04        79.77719
1016.41        81.83759
1016.79        83.05978
1017.17         82.5679
1017.55        80.40036
1017.93        76.86349
1018.31        73.33904
1018.69        72.05124
1019.06        73.55687
1019.44        77.39357
1019.82        82.10886
1020.20        84.45892
1020.58        83.30491
1020.95        79.78923
1021.33         75.5329
1021.71        72.48633
1022.09        71.06419
1022.46        70.55775
1022.84         70.7301
1023.22        71.07336
1023.60        71.39565
1023.97        71.96587
1024.35        72.89051
1024.73          73.556
