SpectraSmart Spectrum 2.9.0.0
--------- Device Information -----------
Spectrum Name :  反射率_0
Saving Time :  2024/04/27 23:48:03
Spectro-Module Model Name : SE2030-DUVN
Spectro-Module Serial Number : OS361AC55029948
Wavelength Start : 200
Wavelength End : 1025
Wavelength Unit : Wavelength(nm)
Spectrum Unit : Reflectance(%)
-----------Spectrum Setting ------------
Integration Time : 20ms
Average : 10
Boxcar : 0
Background removal :  enabled
linearity correction :  enabled
SC :  disabled
Intensity correction :  disabled
DWT denoise :  enabled
savitzky-golay :  disabled
FFT :  disabled
Running average :  disabled
Kalman :  disabled
High pass :  disabled
---------------BEGIN--------------------
Wavelength(nm)             Reflectance(%)
200.29               0
200.75        127.1491
201.21        104.9841
201.67        82.19484
202.13        69.13712
202.58        62.53915
203.04        58.60753
203.50        57.96521
203.96        61.96549
204.42        69.01263
204.88        77.47052
205.34        84.82299
205.80        89.14369
206.26        90.59952
206.72        89.20868
207.18         84.4595
207.64          79.127
208.10        77.22496
208.55        78.37715
209.01        78.70253
209.47        75.99651
209.93        68.37078
210.39        48.25718
210.85       -13.17347
211.31       -91.28463
211.77       -5.570334
212.23        53.10388
212.69        73.28162
213.14         77.4212
213.60        72.44964
214.06        59.07424
214.52        35.29163
214.98        18.29721
215.44        26.68484
215.90        44.08854
216.36        58.44284
216.81        66.56483
217.27        70.32567
217.73        72.20877
218.19        72.37476
218.65        70.39458
219.11         66.2047
219.57         59.3338
220.02        50.39742
220.48        43.51594
220.94        40.55236
221.40         40.8732
221.86        43.15265
222.32        45.53436
222.77        47.50031
223.23        49.29082
223.69        50.42285
224.15        50.23508
224.61        48.81106
225.06        46.04744
225.52         43.2833
225.98        42.70322
226.44        44.31244
226.90        46.70271
227.36        48.48843
227.81        48.54176
228.27        46.93519
228.73         44.0535
229.19        40.37281
229.65        37.09807
230.10        34.86582
230.56        33.72741
231.02        33.27436
231.48        32.96855
231.93        32.62006
232.39        32.49295
232.85        32.83016
233.31        33.96067
233.77        35.80673
234.22        38.17654
234.68         40.4269
235.14        41.93397
235.60        42.62931
236.05        42.57941
236.51        42.49341
236.97        43.66177
237.43         46.3938
237.88        50.32874
238.34        53.99542
238.80        56.25541
239.26        56.94777
239.71        56.02803
240.17        53.80975
240.63        53.32544
241.08        56.77489
241.54        61.56924
242.00        65.26307
242.46         67.2421
242.91        68.17271
243.37         68.1578
243.83        67.96814
244.28         71.6603
244.74        81.41733
245.20        90.51772
245.66        93.39658
246.11        90.80754
246.57        83.37304
247.03         68.3266
247.48        45.02229
247.94        28.16877
248.40        33.98449
248.85         54.8543
249.31        76.52922
249.77        86.84649
250.22        87.25294
250.68        83.61792
251.14        79.57835
251.59        78.03367
252.05        79.44462
252.51        82.64238
252.96        87.38476
253.42        92.07964
253.88        93.77841
254.33        93.11438
254.79         91.0112
255.25        87.08644
255.70        81.87722
256.16        76.68102
256.62         72.7469
257.07        71.60334
257.53        72.93163
257.99        74.93649
258.44        76.23508
258.90        76.16077
259.35        74.51414
259.81        72.36494
260.27        69.92984
260.72        67.53282
261.18        65.68015
261.63        63.93138
262.09        62.50344
262.55        61.18721
263.00        59.84388
263.46        58.66158
263.91        57.50085
264.37        56.55977
264.83        55.75312
265.28        54.98448
265.74        54.25301
266.19        53.32021
266.65        52.24237
267.11        51.04633
267.56        49.77491
268.02         48.6109
268.47         47.5666
268.93        46.61264
269.38        45.77232
269.84        45.11004
270.30        44.59668
270.75        44.19972
271.21        43.75968
271.66        42.98199
272.12        41.84661
272.57        40.40679
273.03        38.91943
273.48        37.70133
273.94        36.89118
274.39        36.36219
274.85        35.97584
275.31        35.44269
275.76        34.68989
276.22        33.83968
276.67        33.00842
277.13        32.45905
277.58        32.15992
278.04        32.04966
278.49          31.889
278.95        31.45656
279.40        30.67885
279.86        29.73332
280.31        28.77303
280.77        28.13487
281.22        27.83971
281.68         27.8171
282.13         27.9021
282.59        27.91941
283.04        27.80174
283.50        27.61826
283.95        27.42503
284.41        27.34291
284.86        27.37404
285.32        27.49133
285.77         27.5961
286.22        27.59365
286.68        27.49035
287.13          27.295
287.59          27.129
288.04        27.09604
288.50        27.24025
288.95        27.48034
289.41        27.74636
289.86         27.8848
290.32        27.89008
290.77        27.81531
291.22        27.73477
291.68        27.74649
292.13        27.88742
292.59         28.1667
293.04         28.5948
293.50         29.2088
293.95        30.00298
294.40        30.98299
294.86        32.12973
295.31        33.39986
295.77        34.77494
296.22        36.22353
296.68        37.73301
297.13         39.2586
297.58        40.77734
298.04        42.28961
298.49        43.76776
298.95        45.22137
299.40        46.67336
299.85        48.15513
300.31        49.75323
300.76        51.53775
301.21        53.50496
301.67        55.61205
302.12        57.73122
302.58        59.76184
303.03        61.64182
303.48        63.43343
303.94         65.2049
304.39        66.97483
304.84        68.79592
305.30        70.66944
305.75        72.56956
306.20        74.55137
306.66        76.62267
307.11        78.70381
307.57         80.7714
308.02        82.66207
308.47         84.3551
308.93        85.89406
309.38        87.25579
309.83        88.51544
310.29        89.72871
310.74        90.86324
311.19        91.97782
311.65        93.13445
312.10         94.3041
312.55        95.47764
313.00        96.60299
313.46        97.60592
313.91        98.45422
314.36        99.18066
314.82        99.81424
315.27        100.3993
315.72        100.9533
316.18        101.4813
316.63        101.9632
317.08        102.4078
317.53        102.8223
317.99        103.2081
318.44        103.5954
318.89         103.999
319.35          104.42
319.80        104.8641
320.25        105.2974
320.70        105.6749
321.16        105.9751
321.61        106.2218
322.06         106.457
322.51        106.7627
322.97        107.1354
323.42        107.5854
323.87        108.0195
324.32        108.3067
324.78         108.406
325.23        108.4039
325.68        108.3791
326.13         108.491
326.59        108.7593
327.04        109.1845
327.49        109.6875
327.94        110.1733
328.39        110.6044
328.85        110.9754
329.30        111.3521
329.75        111.6801
330.20        111.9611
330.66         112.163
331.11         112.392
331.56        112.7093
332.01        113.1407
332.46        113.6635
332.92        114.1866
333.37        114.7038
333.82         115.131
334.27        115.4882
334.72        115.7889
335.17        116.0605
335.63        116.2978
336.08        116.5577
336.53        116.8311
336.98         117.152
337.43        117.5287
337.88        117.9505
338.34        118.4048
338.79        118.9206
339.24        119.4703
339.69        120.0553
340.14        120.6114
340.59        121.0372
341.05        121.3256
341.50        121.5195
341.95        121.7222
342.40        122.1184
342.85        122.7417
343.30        123.5175
343.75        124.3406
344.20        125.0388
344.66        125.5566
345.11        125.9402
345.56         126.197
346.01        126.3407
346.46        126.3992
346.91        126.3684
347.36        126.3418
347.81        126.4662
348.26        126.7625
348.72        127.1977
349.17        127.6383
349.62        127.8856
350.07        127.8856
350.52        127.6908
350.97        127.4137
351.42        127.2372
351.87        127.2114
352.32        127.2876
352.77        127.3628
353.22        127.2802
353.67        127.0051
354.13        126.5953
354.58        126.1376
355.03        125.8345
355.48        125.7115
355.93        125.6874
356.38        125.6035
356.83        125.2158
357.28        124.4838
357.73        123.5164
358.18         122.452
358.63        121.5002
359.08          120.73
359.53        120.0774
359.98        119.5219
360.43        119.0296
360.88        118.5658
361.33        118.1411
361.78        117.6847
362.23        117.0705
362.68        116.2796
363.13        115.3583
363.58        114.3994
364.03        113.4978
364.48        112.7962
364.93        112.1693
365.38        111.5857
365.83        110.9424
366.28         110.207
366.73        109.4115
367.18        108.5785
367.63        107.7439
368.08         106.927
368.53        106.1212
368.98        105.3282
369.43        104.5529
369.88        103.7989
370.33        103.0705
370.78         102.379
371.23        101.7374
371.68        101.1395
372.13        100.5704
372.58         100.002
373.03        99.39388
373.48        98.73579
373.93        98.04186
374.38        97.32541
374.83        96.60462
375.28        95.89337
375.72        95.17875
376.17        94.50995
376.62        93.89102
377.07         93.3223
377.52        92.78599
377.97        92.28305
378.42        91.81583
378.87        91.37348
379.32        90.95623
379.77        90.50773
380.22        89.93732
380.67        89.23863
381.11        88.45155
381.56        87.67171
382.01         87.0713
382.46        86.70304
382.91        86.52244
383.36        86.44199
383.81        86.31937
384.26        86.10326
384.71        85.81917
385.15        85.49223
385.60        85.22455
386.05        85.01308
386.50        84.82934
386.95         84.6139
387.40        84.28768
387.85        83.85387
388.29        83.30721
388.74         82.8263
389.19        82.46832
389.64        82.22606
390.09        82.02803
390.54        81.82209
390.98         81.5081
391.43        81.13161
391.88         80.7508
392.33        80.30495
392.78        79.81972
393.23        79.35296
393.67        78.59603
394.12        77.82053
394.57        78.26482
395.02        78.60121
395.47        78.82232
395.91         78.5021
396.36        78.32055
396.81        78.27091
397.26        77.94148
397.71        77.41972
398.15        76.99759
398.60        76.78467
399.05        76.59959
399.50        76.45967
399.95        76.40985
400.39        76.40556
400.84        76.41911
401.29        76.37533
401.74        75.89973
402.18        75.16853
402.63        74.95742
403.08        75.24677
403.53        75.27079
403.97         75.0016
404.42        74.93215
404.87        75.02787
405.32        75.06996
405.76        75.03365
406.21        74.83846
406.66        74.55055
407.11        74.60092
407.55        74.87064
408.00        74.58436
408.45         73.8199
408.90        73.20927
409.34        72.91311
409.79        72.95234
410.24        73.21169
410.68         73.3374
411.13        73.27232
411.58        73.25117
412.03        73.29862
412.47        73.34162
412.92        73.35412
413.37        73.37008
413.81        73.35728
414.26        73.32764
414.71        73.26675
415.15        73.19928
415.60        73.12305
416.05        73.09772
416.49        73.14146
416.94        73.22474
417.39        73.32667
417.83         73.4118
418.28        73.45707
418.73        73.45163
419.17        73.40841
419.62        73.35582
420.07        73.31707
420.51        73.29469
420.96        73.26277
421.41          73.194
421.85        73.07328
422.30        72.77334
422.74          72.425
423.19        72.76416
423.64        73.60368
424.08        73.86245
424.53        73.44434
424.98        73.34471
425.42        73.61691
425.87        73.50739
426.31        73.10213
426.76        73.15511
427.21        73.54684
427.65        73.40876
428.10        72.84731
428.54        72.69051
428.99          73.006
429.44         73.4312
429.88        73.76263
430.33        73.77561
430.77         73.4826
431.22        73.26562
431.66        73.21813
432.11        73.52891
432.56        74.16626
433.00        74.38611
433.45        73.93497
433.89         73.9786
434.34        74.64003
434.78        73.28247
435.23        73.21048
435.67        73.91813
436.12        74.73978
436.57        75.10828
437.01        74.74398
437.46        74.47805
437.90        74.78159
438.35        75.64083
438.79        75.13897
439.24        75.12344
439.68        75.05694
440.13        74.86932
440.57        74.67139
441.02        75.02381
441.46        75.70802
441.91        75.75153
442.35        75.19433
442.80        75.11749
443.24        75.44556
443.69        75.46619
444.13        75.19901
444.58        75.14968
445.02        75.30988
445.47        75.50615
445.91        75.67474
446.36        75.81018
446.80        75.87396
447.24        75.86699
447.69        75.84807
448.13        75.91239
448.58         76.0621
449.02         76.1673
449.47        76.21652
449.91        76.24646
450.36         76.2711
450.80         76.2184
451.25        76.14904
451.69        76.16929
452.13        76.28182
452.58        76.39667
453.02        76.45368
453.47        76.41499
453.91        76.26224
454.36        76.07372
454.80         75.8819
455.24        75.61472
455.69        75.37395
456.13        75.30671
456.58        75.50924
457.02        75.35167
457.46        76.18958
457.91        75.70113
458.35        74.82191
458.79        74.36734
459.24         74.4929
459.68         74.5565
460.13        74.50784
460.57        74.55734
461.01        74.21396
461.46        74.34423
461.90        74.26482
462.34          73.852
462.79        74.35949
463.23        74.36247
463.68         74.2907
464.12        74.09052
464.56        73.85877
465.01         74.0689
465.45        74.46175
465.89          74.265
466.34        73.62189
466.78        73.60664
467.22        73.36319
467.67         74.0433
468.11        73.76096
468.55        73.66126
468.99        73.35322
469.44        73.23573
469.88        73.33229
470.32        73.38847
470.77        73.37152
471.21        73.33629
471.65        73.26818
472.10        73.16799
472.54        73.01585
472.98        72.85375
473.42        72.70366
473.87        72.49083
474.31        72.24051
474.75        72.31439
475.20         72.6139
475.64        72.54723
476.08        72.13601
476.52        72.08036
476.97        72.43727
477.41        72.25636
477.85        72.27451
478.29        72.52997
478.74        72.64549
479.18        71.82884
479.62        72.51146
480.06        72.34114
480.50        72.32014
480.95        72.20091
481.39        72.03849
481.83        72.31428
482.27        72.01947
482.72        72.10667
483.16        72.43958
483.60        71.98312
484.04        72.01276
484.48         71.8241
484.93        72.18623
485.37        71.43774
485.81        72.16972
486.25        73.20218
486.69        72.54008
487.14        71.77089
487.58         71.9883
488.02        72.43459
488.46        71.86893
488.90        71.99299
489.34        71.72382
489.79        71.17567
490.23        72.19299
490.67        72.21532
491.11        71.87913
491.55        71.57352
491.99        71.41242
492.43        71.28907
492.88        71.21533
493.32        71.28477
493.76        71.41727
494.20        71.54626
494.64        71.66401
495.08        71.62836
495.52        71.52364
495.96        71.84769
496.41        72.43875
496.85        72.38744
497.29        71.77267
497.73        71.56593
498.17        71.69375
498.61        71.82657
499.05        71.82776
499.49        71.67917
499.93        71.47243
500.37        71.35378
500.82        71.31011
501.26        71.52872
501.70        72.03831
502.14        71.20782
502.58        71.63118
503.02         71.5882
503.46        71.54755
503.90        71.54623
504.34        71.50944
504.78        71.54416
505.22        71.60918
505.66        71.56835
506.10        71.44641
506.54        71.47459
506.98        71.66966
507.42         71.6144
507.86        71.80656
508.30        71.83817
508.74        71.85354
509.18        71.82833
509.62        71.76675
510.06        71.67443
510.50        71.55656
510.94        71.42248
511.38        71.29852
511.82        71.22502
512.26        71.20907
512.70        71.24259
513.14        71.30518
513.58         71.3328
514.02        71.30775
514.46        71.29601
514.90        71.31722
515.34        71.15163
515.78        71.21686
516.22        71.17498
516.66        71.16072
517.10        71.18478
517.54         71.2485
517.98        71.34019
518.42        71.42517
518.86        71.45753
519.30        71.42641
519.74        71.34765
520.18         71.2512
520.62        71.18469
521.06        71.16296
521.50        71.17376
521.93        71.20634
522.37        71.22781
522.81        71.23375
523.25        71.23067
523.69         71.2233
524.13        71.21785
524.57        71.21552
525.01         71.2123
525.45        71.20111
525.89        71.17257
526.32         71.1207
526.76        71.06432
527.20        71.01152
527.64        70.98276
528.08        70.98208
528.52        71.00131
528.96        71.03094
529.40        71.05569
529.83        71.06299
530.27        71.06977
530.71        71.06544
531.15        71.04443
531.59        71.00742
532.03        70.95481
532.46        70.89436
532.90        70.86176
533.34        70.85787
533.78        70.87814
534.22        70.90256
534.66         70.8997
535.09        70.85463
535.53        70.79511
535.97        70.73463
536.41        70.71144
536.85        70.73215
537.28        70.78651
537.72        70.84413
538.16        70.84673
538.60         70.7872
539.04        70.70133
539.47        70.60406
539.91        70.55787
540.35         70.5569
540.79        70.59665
541.22        70.64618
541.66        70.66504
542.10        70.63968
542.54        70.58563
542.97        70.51704
543.41          70.495
543.85         70.5172
544.29        70.57147
544.72         70.6217
545.16        70.64961
545.60        70.63104
546.04        70.56907
546.47        70.49108
546.91        70.44318
547.35        70.42423
547.79        70.45347
548.22        70.47353
548.66        70.35728
549.10        70.14385
549.53         70.1164
549.97        70.26578
550.41        70.33024
550.84        70.29743
551.28         70.3296
551.72        70.43183
552.15        70.47652
552.59        70.45737
553.03        70.48743
553.46        70.59303
553.90        70.33341
554.34        70.48753
554.77        70.58659
555.21        70.55078
555.65        70.49251
556.08        70.26494
556.52        70.06417
556.96        69.92229
557.39        69.96653
557.83        70.15619
558.27        70.27547
558.70        70.28633
559.14        70.17125
559.57         70.0037
560.01        70.14979
560.45        70.50018
560.88        70.52338
561.32        70.28166
561.75        70.10935
562.19        70.07616
562.63        70.08008
563.06        70.08974
563.50        70.02784
563.93        69.91205
564.37        69.93404
564.80        70.08189
565.24        70.30589
565.68        70.51463
566.11         70.6207
566.55        70.63325
566.98        70.46815
567.42        70.24371
567.85        70.31084
568.29        70.64749
568.72        70.62106
569.16        70.27622
569.60        70.28835
570.03        70.68834
570.47        70.36364
570.90        70.16638
571.34        70.86922
571.77        70.50736
572.21        70.45094
572.64        70.51633
573.08        70.47957
573.51        70.20663
573.95        70.31942
574.38        70.64656
574.82         70.5473
575.25        70.69865
575.69        70.31876
576.12        70.12606
576.56        70.43343
576.99        70.19947
577.42        70.68333
577.86        70.74398
578.29        70.56775
578.73        70.62094
579.16        70.63524
579.60        70.72827
580.03        70.67944
580.47        70.34669
580.90        70.62663
581.33        70.69215
581.77         70.3452
582.20        70.61572
582.64        70.69528
583.07        70.53667
583.51        70.40614
583.94        70.45161
584.37        70.47842
584.81        70.49659
585.24        70.55619
585.68        70.73018
586.11        70.39165
586.54        70.44855
586.98        70.30211
587.41        70.73757
587.85        70.42046
588.28        70.27021
588.71        70.32422
589.15        70.58639
589.58         70.2075
590.01        70.55919
590.45        70.62438
590.88        69.99172
591.31        69.86246
591.75        69.98998
592.18        69.88773
592.61        69.71767
593.05        70.24306
593.48         70.4351
593.91        70.43427
594.35        70.17275
594.78        70.45782
595.21        70.14285
595.65        70.14573
596.08        70.08524
596.51        70.44038
596.94        70.09373
597.38        70.22468
597.81        70.63085
598.24          69.937
598.68        70.54382
599.11        70.22215
599.54        70.30003
599.97        70.20462
600.41        70.63406
600.84        70.64729
601.27        70.34246
601.70        70.25463
602.14        69.72829
602.57        69.92328
603.00        69.83623
603.43        70.23231
603.87        70.30149
604.30        70.11626
604.73        70.41467
605.16        70.32766
605.60        70.38749
606.03        70.40465
606.46        70.45116
606.89        70.57142
607.32        70.50912
607.76        70.80713
608.19        70.50002
608.62        70.31802
609.05        70.13202
609.48        70.09615
609.92        70.16543
610.35        70.24696
610.78        70.96758
611.21        69.75506
611.64        70.38121
612.07        70.18415
612.50        70.20258
612.94           70.24
613.37        70.37109
613.80        70.01318
614.23        70.35235
614.66        70.33401
615.09        70.39599
615.52        70.41183
615.96        70.50926
616.39        69.92646
616.82        69.91207
617.25        70.26537
617.68        70.10083
618.11        70.04596
618.54        69.81503
618.97        69.96057
619.40        70.31058
619.84        70.74199
620.27        70.44491
620.70        70.21178
621.13         69.8489
621.56        70.11611
621.99        69.97929
622.42        69.91337
622.85        69.79449
623.28        70.12824
623.71        69.83265
624.14        69.60069
624.57        69.99947
625.00         69.9806
625.43        69.80083
625.86        69.83191
626.29        70.15376
626.72        69.70879
627.15         69.9526
627.58          69.934
628.01        70.16911
628.44        69.74744
628.87        69.72565
629.30        70.12708
629.73        70.04482
630.16        69.54297
630.59        69.88062
631.02        69.86866
631.45        70.08652
631.88        70.15573
632.31        70.12898
632.74        70.00248
633.17        69.96817
633.60        69.92187
634.03        69.91995
634.46        69.95464
634.89        70.00365
635.32        69.98741
635.75        69.88898
636.18        69.82178
636.61        69.81841
637.04        69.58733
637.47        69.60307
637.89         69.6878
638.32        69.90896
638.75        70.07619
639.18        70.13731
639.61        70.13817
640.04        70.02351
640.47        69.96912
640.90        69.97031
641.33        69.93333
641.76        69.84023
642.18        69.87064
642.61        69.74716
643.04        69.68657
643.47        69.62215
643.90        69.57705
644.33        69.55314
644.76        69.55016
645.18         69.5566
645.61        69.53791
646.04        69.48953
646.47        69.41496
646.90        69.34209
647.33        69.31822
647.75         69.3616
648.18        69.46139
648.61         69.5675
649.04        69.64923
649.47        69.68271
649.89        69.53424
650.32        69.31041
650.75        69.43507
651.18        69.83714
651.61        69.97028
652.03        69.75247
652.46        69.52962
652.89        69.45447
653.32        69.07207
653.74        68.85807
654.17        69.32158
654.60        70.06143
655.03        69.52401
655.46         69.7324
655.88        70.42313
656.31        71.53629
656.74        71.93417
657.16        70.91638
657.59        70.15346
658.02        69.95527
658.45        70.10027
658.87        70.07164
659.30        70.34695
659.73         69.6105
660.15        69.59003
660.58        69.67847
661.01        69.68471
661.44        69.53378
661.86        69.65702
662.29        69.96382
662.72        69.88111
663.14        69.49922
663.57         69.4538
664.00        69.73706
664.42        69.80975
664.85        69.66547
665.27        69.60561
665.70        69.63528
666.13        69.63477
666.55        69.60496
666.98        69.56296
667.41        69.53253
667.83        69.55298
668.26        69.62344
668.69        69.74253
669.11        69.85674
669.54        69.90224
669.96        69.87469
670.39        69.70043
670.82        69.48698
671.24        69.58373
671.67        69.92191
672.09        70.04356
672.52        69.93304
672.94        69.81147
673.37        69.72558
673.80        69.65562
674.22        69.61828
674.65        69.54219
675.07        69.45561
675.50        69.41624
675.92        69.44455
676.35        69.50849
676.77         69.6049
677.20        69.74004
677.62        69.87491
678.05        69.92477
678.47        69.87411
678.90        69.75626
679.32        69.61608
679.75        69.54096
680.17        69.55432
680.60        69.64294
681.02        69.75454
681.45        69.80955
681.87        69.80469
682.30          69.673
682.72        69.50777
683.15         69.6474
683.57         70.0321
684.00        70.11697
684.42        69.92079
684.85        69.91637
685.27        70.09907
685.70        70.19232
686.12        70.17135
686.54        70.15494
686.97          70.129
687.39        70.07827
687.82        70.01562
688.24         69.8529
688.66        69.94328
689.09        69.90789
689.51        69.89112
689.94        70.09498
690.36        70.43908
690.78        70.50161
691.21        70.29864
691.63        70.21164
692.06        70.26291
692.48        70.22609
692.90        70.11098
693.33        70.02961
693.75        69.99206
694.17         69.9739
694.60        69.96442
695.02        69.97124
695.44        69.98051
695.87        70.00584
696.29        70.04078
696.71        70.06064
697.14        70.04886
697.56        70.04742
697.98        70.05831
698.41        70.11308
698.83        70.19292
699.25        70.30817
699.68        70.41508
700.10        70.49548
700.52         70.5258
700.94        70.51573
701.37        70.46226
701.79        70.40134
702.21        70.32856
702.64        70.25611
703.06        70.19066
703.48        70.16323
703.90        70.18432
704.33        70.23869
704.75        70.32039
705.17        70.39454
705.59        70.44697
706.01         70.4585
706.44        70.43802
706.86        70.51615
707.28        70.49624
707.70        70.57058
708.12        70.66399
708.55        70.61912
708.97        70.47823
709.39        70.53442
709.81        70.74857
710.23        70.80241
710.66        70.67249
711.08        70.55508
711.50        70.48106
711.92        70.44431
712.34        70.46054
712.76        70.52786
713.19        70.61922
713.61        70.73544
714.03        70.84388
714.45        70.94638
714.87        71.03255
715.29          71.089
715.71        71.11343
716.13        71.10368
716.56         71.0603
716.98        71.06662
717.40        71.11175
717.82        71.18611
718.24        71.26407
718.66        71.30273
719.08         71.2908
719.50        71.23894
719.92         71.1762
720.34        71.14757
720.76        71.16491
721.19        71.21038
721.61        71.26385
722.03        71.26065
722.45        71.18925
722.87        71.06685
723.29        70.95007
723.71         70.9286
724.13        71.02248
724.55        71.20681
724.97        71.40871
725.39        71.50967
725.81         71.4802
726.23        71.35101
726.65        71.20107
727.07        71.15791
727.49        71.24839
727.91        71.43068
728.33        71.62021
728.75        71.67651
729.17        71.56744
729.59        71.34707
730.01        71.09547
730.43        70.94033
730.85        70.91658
731.27        70.97553
731.69        71.08767
732.10        71.21075
732.52        71.30701
732.94        71.44149
733.36        71.58991
733.78         71.5949
734.20        71.43395
734.62        71.63839
735.04        71.13175
735.46        71.37772
735.88        71.88819
736.30        71.74602
736.72        71.07707
737.13        71.00674
737.55         71.5174
737.97        71.84165
738.39        71.87606
738.81        71.79493
739.23        71.65711
739.65        71.70205
740.06        71.87078
740.48        71.88024
740.90        71.69414
741.32        71.59856
741.74        71.53187
742.16        71.54951
742.57        71.63638
742.99        71.79605
743.41        71.97697
743.83        72.07527
744.25        72.06723
744.67        71.96547
745.08        71.85172
745.50        71.82355
745.92        71.92365
746.34        72.12414
746.75        72.32413
747.17        72.37607
747.59         72.2507
748.01        71.93648
748.42        71.58733
748.84        71.54724
749.26        71.79642
749.68        72.05254
750.09        72.19139
750.51        72.10107
750.93        71.84557
751.35        71.77399
751.76        71.89618
752.18        71.89754
752.60        71.78741
753.01        71.78822
753.43        71.88664
753.85        71.98408
754.27        72.06403
754.68        72.14686
755.10        72.22486
755.52        72.27993
755.93        72.32162
756.35         72.3689
756.77        72.38826
757.18        72.39841
757.60        72.41338
758.02        72.21996
758.43        71.96307
758.85         72.2328
759.26        72.79047
759.68        72.84064
760.10        72.51546
760.51        71.30397
760.93        71.70726
761.34         71.8623
761.76         72.5647
762.18        72.87451
762.59        72.82453
763.01        72.69994
763.42        72.64772
763.84        72.58723
764.26        72.58242
764.67        72.81368
765.09        73.16547
765.50        73.02773
765.92        72.53978
766.33        72.43037
766.75         72.6568
767.16        72.71163
767.58         72.5273
768.00        72.45795
768.41        72.54598
768.83         72.6862
769.24        72.84183
769.66         72.8877
770.07        72.82366
770.49        72.92532
770.90        73.16795
771.32        73.21692
771.73        73.11169
772.15        73.11058
772.56        73.23648
772.97        73.39838
773.39        73.50941
773.80        73.45178
774.22        73.23698
774.63        73.17036
775.05        73.24042
775.46        73.27332
775.88        73.23682
776.29        73.29705
776.70         73.4285
777.12        73.51958
777.53        73.57627
777.95        73.61599
778.36        73.64629
778.77        73.65711
779.19        73.65038
779.60        73.63029
780.02        73.62138
780.43          73.674
780.84        73.76585
781.26        73.93708
781.67        74.19601
782.09        74.21806
782.50        73.92501
782.91        74.46696
783.33        73.92395
783.74        73.93995
784.15        73.94318
784.57        73.88999
784.98        73.80336
785.39        73.92366
785.81        74.18217
786.22        74.15878
786.63        73.89052
787.04        73.80554
787.46        73.93258
787.87        74.01304
788.28         74.0386
788.70        74.10318
789.11        74.18264
789.52        74.24109
789.93        74.28164
790.35        74.34602
790.76        74.43087
791.17        74.40103
791.58        74.28769
792.00        74.23908
792.41        74.29018
792.82        74.37114
793.23        74.48201
793.65        74.57127
794.06        74.66319
794.47        74.92617
794.88        75.28009
795.29        75.22956
795.71        75.21832
796.12         74.9833
796.53        74.73335
796.94        74.61553
797.35        74.65388
797.76        74.69988
798.18        74.74095
798.59        74.84126
799.00         74.9882
799.41        75.12502
799.82        75.21133
800.23        75.22196
800.64        75.14865
801.06        74.97475
801.47        74.78969
801.88        74.66547
802.29        74.63255
802.70        74.67774
803.11        74.77003
803.52        74.84858
803.93        74.89066
804.34        74.90915
804.75        74.92918
805.17        74.96886
805.58         75.0623
805.99        75.20525
806.40        75.35075
806.81        75.35583
807.22         75.2307
807.63        75.14119
808.04        75.13684
808.45        75.15855
808.86        75.21349
809.27        75.37196
809.68        75.56084
810.09         75.6058
810.50        75.47903
810.91        75.23253
811.32        74.97609
811.73        74.90751
812.14        75.07304
812.55        75.36184
812.96        75.66876
813.37        75.92439
813.78        76.01967
814.19        75.76865
814.60        75.29552
815.01        75.00449
815.42        74.95691
815.83        74.95721
816.24        75.00232
816.65        75.16254
817.05        75.41898
817.46        75.71383
817.87        75.98734
818.28        76.09403
818.69        76.00834
819.10        75.76353
819.51        75.45673
819.92        75.27426
820.33        75.28087
820.74        75.42783
821.14        75.63377
821.55        75.80399
821.96         75.8829
822.37        75.89921
822.78        75.88221
823.19        75.87871
823.60        75.90622
824.00         75.9727
824.41         75.9934
824.82        75.92892
825.23        75.77897
825.64        75.57422
826.04        75.43025
826.45        75.49101
826.86        75.79134
827.27          76.271
827.68        76.79818
828.08        77.18452
828.49        77.29579
828.90        77.22422
829.31        77.04154
829.72        76.88018
830.12        76.81474
830.53         76.7552
830.94        76.72236
831.35        76.71542
831.75         76.7494
832.16        76.79475
832.57        76.83332
832.97        76.78333
833.38        76.62798
833.79        76.40421
834.20        76.18305
834.60        76.06873
835.01         76.0934
835.42        76.21093
835.82        76.39936
836.23        76.53416
836.64        76.60661
837.04        76.67521
837.45        76.68855
837.86        76.66383
838.26        76.62732
838.67        76.55547
839.08        76.52724
839.48        76.65883
839.89        76.95713
840.29        77.37103
840.70        77.79382
841.11         78.0594
841.51        78.13831
841.92        78.03959
842.33        77.82593
842.73        77.60196
843.14        77.37043
843.54        77.15071
843.95        76.96478
844.35        76.86631
844.76        76.85241
845.17        76.91485
845.57        77.03876
845.98        77.14692
846.38        77.23347
846.79         77.2832
847.19        77.28078
847.60        77.15326
848.00        76.92567
848.41        76.58822
848.81        76.25669
849.22         76.0472
849.62        76.02784
850.03         76.1393
850.43        76.32487
850.84         76.3996
851.24         76.3679
851.65        76.22074
852.05        76.07858
852.46        76.04172
852.86        76.13715
853.27        76.32685
853.67        76.48029
854.07        76.60589
854.48        76.65069
854.88        76.67974
855.29        76.59268
855.69        76.41586
856.10        76.07939
856.50        75.68067
856.90        75.30847
857.31        75.13988
857.71        75.25658
858.12        75.54408
858.52        75.93089
858.92        76.16764
859.33        76.15835
859.73         75.9978
860.13        75.70579
860.54        75.35559
860.94        75.04223
861.34        74.73253
861.75        74.43816
862.15        74.23611
862.55        74.11674
862.96        74.09187
863.36        74.15362
863.76        74.25911
864.17        74.37542
864.57         74.5052
864.97        74.63961
865.38        74.75489
865.78        74.88639
866.18        75.00742
866.58        75.06116
866.99        74.97659
867.39        74.77929
867.79        74.46326
868.19        74.13737
868.60        73.91798
869.00         73.8198
869.40        73.85575
869.80        73.92808
870.21        73.86195
870.61        73.69635
871.01        73.42878
871.41        73.19459
871.81        73.18395
872.22        73.39898
872.62          73.811
873.02        74.28653
873.42        74.56103
873.82         74.5574
874.22        74.37639
874.63        74.16724
875.03        74.12044
875.43        74.28776
875.83        74.57352
876.23        74.93647
876.63        75.31188
877.03        75.64484
877.44        75.95129
877.84        76.12537
878.24        75.95733
878.64        75.45124
879.04        74.70789
879.44        73.97573
879.84        73.60099
880.24        73.64734
880.64        74.02086
881.04        74.55192
881.44        74.93484
881.84        75.05495
882.24        74.97318
882.65        74.75954
883.05        74.64686
883.45        74.65563
883.85        74.73235
884.25        74.77883
884.65         74.6587
885.05        74.35454
885.45         73.9152
885.85        73.50351
886.25        73.38816
886.65        73.62374
887.05        74.12185
887.45        74.64251
887.85        74.82121
888.25        74.57706
888.65        74.01168
889.04        73.35016
889.44        73.01197
889.84        73.09216
890.24        73.47314
890.64        73.93525
891.04        74.13362
891.44        73.98492
891.84        73.60574
892.24        73.19083
892.64        73.03504
893.04        73.21251
893.44        73.62997
893.83        74.13468
894.23        74.42258
894.63        74.44222
895.03        74.26828
895.43        74.06264
895.83        74.08497
896.23        74.38133
896.63        74.84589
897.02        75.28569
897.42        75.46263
897.82          75.322
898.22        74.97648
898.62        74.57319
899.01        74.36304
899.41        74.40565
899.81        74.62534
900.21        74.96935
900.61        75.35146
901.00        75.70034
901.40        76.04361
901.80        76.29624
902.20        76.33777
902.59        76.16568
902.99         75.8003
903.39        75.35852
903.79        75.03123
904.18        74.88458
904.58        74.89767
904.98        75.01308
905.38         75.1441
905.77         75.2439
906.17        75.32323
906.57        75.40385
906.96         75.5397
907.36        75.70701
907.76        75.91546
908.15        76.04935
908.55        75.85524
908.95        75.34244
909.34        74.56689
909.74        73.86357
910.14         73.6889
910.53        74.13325
910.93        75.04897
911.33        76.06173
911.72        76.52855
912.12          76.276
912.52        75.53109
912.91        74.65366
913.31        74.18587
913.70        74.24216
914.10        74.65797
914.49        75.22643
914.89        75.51315
915.29        75.40484
915.68        75.03587
916.08        74.62398
916.47         74.4949
916.87        74.73292
917.26        75.18544
917.66        75.66539
918.05        75.85857
918.45        75.68209
918.84          75.277
919.24        74.76578
919.64        74.42725
920.03        74.37171
920.42        74.52045
920.82        74.79301
921.21        75.05605
921.61        75.24442
922.00        75.39262
922.40        75.55973
922.79        75.91792
923.19        76.42878
923.58        77.04684
923.98        77.50656
924.37        77.48231
924.77        76.91875
925.16        75.91331
925.55        74.80436
925.95        74.17733
926.34        74.20259
926.74        74.71284
927.13        75.41994
927.52        75.74261
927.92        75.56788
928.31        75.08073
928.70        74.54955
929.10        74.36887
929.49        74.64278
929.89        75.18983
930.28        75.91103
930.67        76.52362
931.07        76.88205
931.46        77.06647
931.85        77.07072
932.24        76.92266
932.64        76.66134
933.03        76.30412
933.42        75.88032
933.82        75.44379
934.21        75.03989
934.60        74.67638
934.99          74.466
935.39        74.54937
935.78        74.96859
936.17        75.67074
936.56        76.42325
936.96        76.81054
937.35        76.77869
937.74        76.41212
938.13        75.95419
938.53        75.78444
938.92        75.98573
939.31        76.41787
939.70        76.92794
940.09        77.24248
940.49        77.23441
940.88        77.03888
941.27         76.6925
941.66        76.24483
942.05        75.75095
942.44        75.22079
942.84        74.75302
943.23        74.45872
943.62        74.39363
944.01        74.52404
944.40         74.8101
944.79        75.15394
945.18        75.48486
945.57        75.79879
945.97        75.98404
946.36        75.96333
946.75        75.70377
947.14        75.22449
947.53        74.66674
947.92        74.29432
948.31        74.19109
948.70        74.30769
949.09         74.5117
949.48        74.57369
949.87        74.44711
950.26        74.22023
950.65        74.00901
951.04        73.99362
951.43        74.21674
951.82        74.59528
952.21        75.04533
952.60        75.43401
952.99        75.68256
953.38        75.80197
953.77        75.78098
954.16        75.60679
954.55        75.29501
954.94         74.8669
955.33        74.35215
955.72        73.80488
956.11        73.26798
956.50        72.75584
956.89        72.35409
957.28        72.18537
957.66        72.29835
958.05        72.64228
958.44        73.07952
958.83         73.3801
959.22        73.46162
959.61        73.32776
960.00         73.1059
960.39        73.01544
960.78        73.09898
961.16        73.33993
961.55        73.46445
961.94         73.1255
962.33        72.29271
962.72        71.15128
963.11        70.09097
963.49        69.66574
963.88        69.97988
964.27        70.85938
964.66        71.99685
965.04        72.83714
965.43        73.09875
965.82        73.00132
966.21        72.71529
966.60        72.52439
966.98        72.53767
967.37        72.59124
967.76        72.75449
968.15        73.13535
968.53        73.72734
968.92        74.52204
969.31        75.24702
969.69        75.45815
970.08        75.09029
970.47        74.27429
970.86        73.44758
971.24        73.40564
971.63        74.23583
972.02        75.63016
972.40        77.13734
972.79        78.01045
973.17        78.18111
973.56        77.81368
973.95        77.13137
974.33        76.49168
974.72        76.04282
975.11        75.66175
975.49        75.34566
975.88        75.13074
976.26        75.02376
976.65        75.06097
977.04        75.12524
977.42        74.96259
977.81        74.46116
978.19         73.6346
978.58        72.83676
978.96        72.64667
979.35        73.16615
979.74         74.2787
980.12        75.49342
980.51        75.78511
980.89         75.0546
981.28        73.48515
981.66        71.78701
982.05        71.28413
982.43        72.30634
982.82        74.35686
983.20        76.67466
983.59         77.9409
983.97        77.91288
984.35        76.92981
984.74        75.43505
985.12        74.22684
985.51         73.6339
985.89        73.45858
986.28        73.57812
986.66        73.90082
987.04        74.30634
987.43        74.79575
987.81         75.3348
988.20        75.71764
988.58        75.91086
988.96         75.9391
989.35          75.624
989.73        74.80625
990.12        73.43586
990.50        71.47956
990.88        69.47099
991.27        68.66444
991.65        69.44638
992.03        71.42045
992.42        73.46304
992.80        74.44525
993.18        74.07004
993.56         72.5991
993.95        70.56852
994.33        69.31855
994.71         69.5727
995.10        70.66188
995.48        72.01163
995.86        72.96694
996.24        73.43788
996.63        73.63891
997.01        73.66023
997.39        73.49512
997.77         73.1933
998.15        72.73066
998.54         72.1645
998.92        71.62404
999.30        71.12226
999.68        70.67793
1000.06         70.3855
1000.45        70.31037
1000.83        70.54198
1001.21        71.03447
1001.59        71.62662
1001.97         72.0783
1002.35        72.36404
1002.73        72.55312
1003.12        72.79195
1003.50        73.22174
1003.88        73.86767
1004.26         74.5268
1004.64        75.13527
1005.02        75.66599
1005.40        76.13829
1005.78        76.66961
1006.16        77.01994
1006.54         76.7663
1006.92        75.86069
1007.30        74.37083
1007.69        73.06011
1008.07         73.0673
1008.45        74.63063
1008.83        77.36078
1009.21        80.08425
1009.59        81.09454
1009.97        79.97729
1010.35        76.95976
1010.73        73.02506
1011.11        70.83821
1011.49        71.63387
1011.86        74.67528
1012.24        78.22614
1012.62        80.11385
1013.00        79.88157
1013.38        78.32838
1013.76        76.11618
1014.14        74.29781
1014.52        73.30859
1014.90        72.72085
1015.28         72.6825
1015.66        73.51492
1016.04        75.12384
1016.41        77.54082
1016.79        79.75781
1017.17        80.61937
1017.55        79.94904
1017.93        78.07188
1018.31        75.88411
1018.69        74.83345
1019.06        75.41335
1019.44        77.41423
1019.82        80.14251
1020.20        82.01933
1020.58         82.3712
1020.95        81.48736
1021.33        80.43741
1021.71        80.60497
1022.09         82.1608
1022.46        84.66609
1022.84        86.98573
1023.22        86.95845
1023.60        83.84083
1023.97        77.73343
1024.35        70.33271
1024.73        65.62684
