SpectraSmart Spectrum 2.9.0.0
--------- Device Information -----------
Spectrum Name :  反射率_0
Saving Time :  2024/04/27 23:46:18
Spectro-Module Model Name : SE2030-DUVN
Spectro-Module Serial Number : OS361AC55029948
Wavelength Start : 200
Wavelength End : 1025
Wavelength Unit : Wavelength(nm)
Spectrum Unit : Reflectance(%)
-----------Spectrum Setting ------------
Integration Time : 20ms
Average : 10
Boxcar : 0
Background removal :  enabled
linearity correction :  enabled
SC :  disabled
Intensity correction :  disabled
DWT denoise :  enabled
savitzky-golay :  disabled
FFT :  disabled
Running average :  disabled
Kalman :  disabled
High pass :  disabled
---------------BEGIN--------------------
Wavelength(nm)             Reflectance(%)
200.29               0
200.75        127.7575
201.21         140.047
201.67        144.0066
202.13        138.8492
202.58        127.7001
203.04        113.5037
203.50        100.5083
203.96        96.17964
204.42        100.4603
204.88        108.6316
205.34        117.4329
205.80         124.918
206.26        131.6194
206.72        139.9441
207.18        149.3643
207.64        151.2721
208.10         142.274
208.55        130.0058
209.01        121.0402
209.47        115.9896
209.93        112.8765
210.39        110.3876
210.85        108.4391
211.31        114.3861
211.77        121.9792
212.23        122.3066
212.69        122.2116
213.14        123.6619
213.60        126.1964
214.06        130.8951
214.52        136.6304
214.98        134.2366
215.44        121.6567
215.90        108.8794
216.36        101.5075
216.81        100.2224
217.27        103.1415
217.73        108.9971
218.19        115.5342
218.65        118.7483
219.11        117.3623
219.57        112.1914
220.02        105.0796
220.48        101.7471
220.94        103.9952
221.40        109.2207
221.86        114.5842
222.32        117.5287
222.77         117.737
223.23        116.3803
223.69        114.1803
224.15        111.7004
224.61        108.9794
225.06        105.7337
225.52        101.9659
225.98        98.00975
226.44        94.88167
226.90        92.89983
227.36        92.12907
227.81        92.42709
228.27        93.72274
228.73        95.76214
229.19        98.15576
229.65        99.94575
230.10        100.5634
230.56        100.4741
231.02        99.79034
231.48        98.88749
231.93        97.90508
232.39        96.97279
232.85        96.37537
233.31          96.663
233.77          97.799
234.22        99.56874
234.68        101.4646
235.14        102.7274
235.60        103.2996
236.05        103.5248
236.51        103.7195
236.97        104.6986
237.43        106.6488
237.88        109.1601
238.34        111.8533
238.80        115.2732
239.26        120.0415
239.71        127.9368
240.17        138.4984
240.63        144.5756
241.08        139.5049
241.54        127.8341
242.00        118.2067
242.46        114.4204
242.91        115.9472
243.37        123.4518
243.83        141.4611
244.28        166.0058
244.74        169.3648
245.20        151.0262
245.66        133.2355
246.11        125.5102
246.57        125.4384
247.03        130.1212
247.48        141.3196
247.94        156.7719
248.40        168.3424
248.85        175.9179
249.31        176.9681
249.77        169.4488
250.22        157.5295
250.68        144.6197
251.14        135.1221
251.59        133.2251
252.05        139.1032
252.51        152.8042
252.96        172.5594
253.42        184.6745
253.88        180.1491
254.33        166.2585
254.79        153.8589
255.25        147.4884
255.70        145.4476
256.16        145.9812
256.62        147.3768
257.07        148.1925
257.53        149.0067
257.99         149.572
258.44        149.2967
258.90        148.7386
259.35        147.2301
259.81         145.743
260.27        144.1128
260.72         142.372
261.18        141.2034
261.63        139.7772
262.09        138.5874
262.55        137.1828
263.00        135.3139
263.46        133.4539
263.91        131.2201
264.37        128.9393
264.83        126.5801
265.28        124.1356
265.74        121.9795
266.19        119.9669
266.65        118.2652
267.11        116.7133
267.56         115.275
268.02        114.0943
268.47        113.0556
268.93        112.1385
269.38        111.1427
269.84        109.8583
270.30         108.223
270.75        106.3139
271.21         104.259
271.66        102.1528
272.12         100.108
272.57        98.02767
273.03        96.08967
273.48        94.40199
273.94        93.06868
274.39        91.95517
274.85        90.93902
275.31        89.60326
275.76        87.86409
276.22        85.97798
276.67        84.07938
277.13        82.63697
277.58        81.58202
278.04        80.84496
278.49        80.14848
278.95        79.35937
279.40        78.30336
279.86        77.17648
280.31        75.89955
280.77        74.61351
281.22        73.27559
281.68        71.99584
282.13        70.76572
282.59        69.76279
283.04        68.91888
283.50        68.26039
283.95        67.67789
284.41        67.12714
284.86        66.54939
285.32        66.04253
285.77        65.56796
286.22        65.18867
286.68        64.93066
287.13        64.68426
287.59        64.52486
288.04        64.43353
288.50        64.44264
288.95        64.48129
289.41        64.48594
289.86        64.24653
290.32        63.80932
290.77         63.2348
291.22        62.71421
291.68        62.50722
292.13        62.66095
292.59        63.15386
293.04        63.89191
293.50        64.77706
293.95         65.7369
294.40        66.79637
294.86        67.97769
295.31        69.29741
295.77        70.75382
296.22        72.28762
296.68        73.81973
297.13        75.19727
297.58        76.39858
298.04        77.49463
298.49         78.5669
298.95        79.82807
299.40          81.307
299.85        82.96323
300.31        84.76964
300.76        86.60249
301.21        88.40554
301.67         90.2196
302.12        91.91994
302.58        93.47128
303.03        94.82285
303.48        96.04129
303.94        97.28812
304.39        98.68522
304.84        100.3014
305.30        102.1008
305.75        103.9179
306.20        105.6319
306.66        107.2256
307.11        108.6776
307.57        110.0632
308.02        111.3419
308.47        112.5454
308.93        113.6781
309.38        114.7045
309.83        115.7117
310.29        116.7399
310.74        117.7562
311.19         118.738
311.65        119.6101
312.10        120.3212
312.55        120.8971
313.00        121.4268
313.46        122.0562
313.91        122.7902
314.36        123.6089
314.82        124.3798
315.27        124.8846
315.72         125.088
316.18         125.081
316.63        125.0214
317.08        125.2054
317.53         125.693
317.99        126.3722
318.44        127.0975
318.89        127.6024
319.35        127.8119
319.80        127.8352
320.25        127.7415
320.70        127.6514
321.16        127.6082
321.61        127.5872
322.06        127.6395
322.51        127.8654
322.97        128.2443
323.42        128.7976
323.87         129.353
324.32        129.6413
324.78        129.5827
325.23        129.2958
325.68        128.9366
326.13        128.8118
326.59        128.9794
327.04         129.409
327.49        129.9488
327.94        130.3873
328.39        130.6548
328.85        130.7772
329.30        130.8977
329.75         131.058
330.20        131.2911
330.66        131.5241
331.11        131.8223
331.56        132.1616
332.01        132.5442
332.46        132.9784
332.92        133.3836
333.37        133.8025
333.82        134.1587
334.27        134.4517
334.72          134.72
335.17        135.0341
335.63        135.3842
336.08        135.8293
336.53        136.2791
336.98        136.6371
337.43        136.8861
337.88        137.0509
338.34        137.2214
338.79        137.6124
339.24        138.2336
339.69        139.0251
340.14        139.8244
340.59        140.3667
341.05        140.5995
341.50        140.6275
341.95           140.6
342.40        140.7729
342.85        141.2146
343.30        141.8255
343.75        142.5307
344.20        143.2108
344.66         143.806
345.11        144.3421
345.56        144.7538
346.01        144.9317
346.46        144.8793
346.91        144.6384
347.36        144.3536
347.81        144.2542
348.26        144.3905
348.72        144.7001
349.17        145.0659
349.62        145.3207
350.07        145.3988
350.52        145.3417
350.97        145.1798
351.42        144.9607
351.87        144.7135
352.32        144.4353
352.77        144.1149
353.22         143.744
353.67        143.3199
354.13        142.8441
354.58        142.3549
355.03        141.9769
355.48        141.7077
355.93        141.5053
356.38          141.19
356.83        140.4803
357.28        139.3491
357.73         137.919
358.18        136.4293
358.63         135.246
359.08        134.4635
359.53        133.9733
359.98        133.6247
360.43        133.1753
360.88         132.535
361.33        131.7591
361.78        130.8996
362.23        130.0289
362.68        129.1695
363.13        128.3135
363.58        127.4156
364.03        126.2954
364.48        125.1549
364.93        123.8841
365.38        122.6368
365.83        121.5448
366.28        120.6381
366.73        119.8744
367.18        119.1653
367.63        118.3704
368.08        117.4526
368.53        116.4544
368.98        115.4373
369.43        114.5021
369.88        113.6752
370.33        112.9187
370.78        112.1943
371.23        111.4434
371.68        110.6469
372.13        109.8293
372.58        109.0066
373.03        108.2044
373.48        107.4355
373.93        106.6899
374.38        105.9742
374.83        105.2966
375.28        104.6525
375.72        104.0231
376.17        103.4157
376.62        102.7664
377.07         102.066
377.52        101.3174
377.97        100.5724
378.42        99.91696
378.87        99.36517
379.32        98.89791
379.77        98.43335
380.22        97.83691
380.67        97.09074
381.11         96.2532
381.56        95.42857
382.01        94.80275
382.46        94.43036
382.91        94.25061
383.36        94.17547
383.81        94.06683
384.26         93.8669
384.71        93.59813
385.15        93.25824
385.60        92.91007
386.05        92.54855
386.50        92.16322
386.95        91.73722
387.40         91.2616
387.85        90.75278
388.29        90.17404
388.74        89.68619
389.19        89.30128
389.64        89.00785
390.09        88.76115
390.54        88.49755
390.98        88.12315
391.43        87.69901
391.88        87.19958
392.33        86.63965
392.78        86.32717
393.23        86.23757
393.67          85.634
394.12        84.76343
394.57        85.22461
395.02        85.54121
395.47        85.44558
395.91        84.61808
396.36        84.22655
396.81        84.32525
397.26        84.30168
397.71        84.10749
398.15        83.89591
398.60        83.74126
399.05        83.45547
399.50        83.13497
399.95         83.0593
400.39        83.15567
400.84        83.05459
401.29        82.70333
401.74        82.09395
402.18        81.38881
402.63        81.04388
403.08        81.05642
403.53        80.91393
403.97        80.60696
404.42        80.50742
404.87        80.57916
405.32        80.64388
405.76        80.66229
406.21        80.54967
406.66        80.35225
407.11        80.41137
407.55        80.60664
408.00        80.33138
408.45        79.63657
408.90        78.82489
409.34        78.15861
409.79        78.17886
410.24        78.69436
410.68        78.82524
411.13        78.48863
411.58        78.20368
412.03        78.08453
412.47        78.09275
412.92        78.22412
413.37        78.48248
413.81         78.7326
414.26        78.84335
414.71        78.76318
415.15        78.55449
415.60         78.2647
416.05        78.05347
416.49        77.98069
416.94        77.99225
417.39        78.05215
417.83        78.10001
418.28        78.10365
418.73        78.06496
419.17        78.00789
419.62        77.97191
420.07        77.97671
420.51        78.01017
420.96        78.02122
421.41        77.94817
421.85        77.77196
422.30        77.37579
422.74        76.91446
423.19        77.18612
423.64        77.99474
424.08        78.19266
424.53        77.70372
424.98        77.58252
425.42        77.88058
425.87          77.892
426.31        77.65408
426.76        77.66059
427.21        77.86734
427.65         77.8904
428.10        77.74091
428.54        77.69807
428.99        77.79067
429.44        77.97961
429.88        78.13729
430.33        77.95184
430.77        77.49397
431.22         77.3909
431.66        77.62061
432.11        77.80327
432.56        77.98799
433.00        78.18313
433.45        78.14928
433.89        78.43214
434.34        79.00038
434.78        77.45381
435.23        76.98945
435.67        77.20408
436.12         78.8804
436.57        79.10134
437.01        78.01601
437.46        78.04773
437.90        78.43999
438.35        78.92928
438.79        78.72689
439.24        78.73803
439.68        78.83478
440.13         78.8889
440.57        78.93063
441.02        79.16885
441.46        79.46847
441.91        79.40607
442.35        79.00401
442.80         78.9642
443.24        79.21005
443.69        79.24803
444.13        79.07983
444.58        79.07693
445.02        79.22378
445.47        79.38216
445.91        79.49244
446.36        79.58282
446.80        79.62797
447.24        79.54826
447.69        79.43713
448.13        79.60467
448.58        79.97762
449.02        80.04742
449.47         79.8454
449.91        79.78167
450.36        79.88664
450.80        79.88091
451.25        79.78654
451.69        79.74339
452.13        79.74737
452.58        79.69572
453.02        79.58266
453.47        79.46387
453.91        79.33871
454.36        79.24152
454.80        79.10565
455.24        78.83465
455.69        78.50269
456.13        78.06384
456.58        77.70097
457.02        77.86269
457.46        78.25796
457.91         78.4053
458.35        77.98106
458.79          77.775
459.24        77.74033
459.68        77.49603
460.13        77.10265
460.57        76.74572
461.01        76.86845
461.46        76.38523
461.90        76.30416
462.34        76.67935
462.79        76.82809
463.23        76.71818
463.68         76.2039
464.12        76.11173
464.56        76.42116
465.01        76.57713
465.45        76.41042
465.89        76.36854
466.34        76.47199
466.78         76.0133
467.22        75.03557
467.67        75.80318
468.11        75.15851
468.55        75.28127
468.99         75.2043
469.44        75.22669
469.88        75.31669
470.32        75.36791
470.77        75.36937
471.21        75.29346
471.65        75.13599
472.10        74.92118
472.54        74.67229
472.98        74.49303
473.42         74.4128
473.87        74.34751
474.31         74.2594
474.75        74.38683
475.20        74.61021
475.64        74.44546
476.08        73.98932
476.52        73.80894
476.97        73.91604
477.41        73.92168
477.85        74.27408
478.29        73.77699
478.74        73.98164
479.18        73.53458
479.62        73.75574
480.06         73.7025
480.50        73.62477
480.95        73.62981
481.39        73.66566
481.83        73.74448
482.27        73.33228
482.72        73.66651
483.16        73.64331
483.60        73.18337
484.04        73.40971
484.48        73.25441
484.93           73.42
485.37        73.18074
485.81        74.16402
486.25        74.25892
486.69        74.83714
487.14         73.6452
487.58        72.96598
488.02        74.00786
488.46        73.55717
488.90        73.29022
489.34        72.95133
489.79        72.18391
490.23        72.96002
490.67        72.88563
491.11        72.52924
491.55        72.33727
491.99        72.35136
492.43        72.34579
492.88        72.29892
493.32        72.33855
493.76        72.41107
494.20        72.47932
494.64        72.55293
495.08        72.49718
495.52        72.36437
495.96        72.60667
496.41        73.07748
496.85        72.85912
497.29        72.10484
497.73        72.02846
498.17        72.48296
498.61        72.66729
499.05        72.44795
499.49        72.27342
499.93        72.21524
500.37         72.0588
500.82        71.81667
501.26        71.91763
501.70        72.43011
502.14        71.68955
502.58        72.25378
503.02         72.2567
503.46         72.1477
503.90        72.04157
504.34        71.88874
504.78        71.80666
505.22        71.76976
505.66        71.64254
506.10        71.45383
506.54        71.43334
506.98        71.60293
507.42        71.54904
507.86        71.79088
508.30        71.81055
508.74        71.76302
509.18        71.65262
509.62        71.51401
510.06        71.39381
510.50         71.3082
510.94        71.24708
511.38        71.22546
511.82        71.26622
512.26        71.36285
512.70        71.51048
513.14        71.66035
513.58        71.70332
514.02        71.61833
514.46        71.48604
514.90        71.37512
515.34         71.1477
515.78        71.24031
516.22        71.28973
516.66        71.38895
517.10        71.47923
517.54        71.53974
517.98        71.58038
518.42        71.58298
518.86        71.52203
519.30        71.39884
519.74        71.24359
520.18        71.09231
520.62         70.9543
521.06        70.87183
521.50        70.94518
521.93        71.12906
522.37        71.23619
522.81        71.24403
523.25        71.22568
523.69        71.22504
524.13        71.28404
524.57        71.41039
525.01        71.58429
525.45        71.73596
525.89        71.75966
526.32        71.63335
526.76        71.40826
527.20         71.1676
527.64        71.05215
528.08        71.09253
528.52        71.24001
528.96        71.41995
529.40        71.51406
529.83        71.48381
530.27        71.38398
530.71        71.24347
531.15        71.11651
531.59        71.02483
532.03         70.9485
532.46        70.88762
532.90        70.86878
533.34         70.8836
533.78        70.92937
534.22        70.97906
534.66        70.98515
535.09        70.93305
535.53        70.86283
535.97        70.78384
536.41        70.72892
536.85        70.70674
537.28        70.70506
537.72        70.73618
538.16        70.78993
538.60        70.85593
539.04        71.00326
539.47        71.15713
539.91        71.10704
540.35        70.89217
540.79        70.85858
541.22         70.9794
541.66          70.953
542.10        70.77381
542.54        70.62476
542.97        70.53335
543.41         70.4996
543.85        70.51991
544.29        70.60092
544.72        70.68983
545.16        70.73951
545.60        70.72112
546.04        70.64024
546.47        70.53762
546.91        70.49825
547.35        70.52876
547.79         70.5992
548.22        70.64445
548.66        70.61412
549.10         70.5079
549.53        70.41462
549.97        70.36584
550.41        70.39604
550.84        70.48913
551.28        70.50043
551.72        70.43664
552.15         70.5108
552.59        70.67768
553.03        70.58768
553.46        70.28543
553.90        70.16609
554.34        70.24094
554.77        70.30732
555.21         70.3339
555.65        70.40051
556.08        70.46628
556.52        70.36919
556.96        70.17263
557.39        70.20302
557.83        70.44015
558.27        70.50028
558.70        70.36557
559.14        70.29577
559.57        70.29961
560.01        70.21526
560.45        70.07554
560.88        70.03816
561.32         70.1325
561.75        70.17401
562.19        70.17329
562.63        70.18765
563.06        70.19631
563.50        70.13627
563.93        70.02267
564.37        69.98489
564.80        70.01919
565.24        70.13889
565.68        70.27961
566.11        70.35169
566.55        70.36887
566.98        70.26768
567.42        70.13242
567.85        70.22194
568.29        70.51203
568.72        70.46554
569.16        70.16968
569.60        70.19382
570.03        70.55492
570.47         70.4332
570.90        70.50863
571.34        70.86189
571.77        70.83955
572.21        70.64413
572.64         70.8645
573.08        70.50393
573.51        70.49222
573.95        70.47768
574.38         70.5932
574.82         70.7462
575.25        70.65445
575.69        70.59797
576.12        70.49548
576.56        70.68378
576.99        70.77881
577.42        70.53358
577.86        71.03712
578.29        71.17574
578.73        70.86983
579.16        70.84068
579.60        70.90514
580.03        70.79697
580.47        70.37762
580.90        70.98555
581.33        70.96774
581.77        70.94972
582.20        71.20738
582.64         71.0885
583.07        70.93469
583.51        70.62854
583.94        70.50941
584.37        70.54038
584.81        70.78162
585.24        71.00907
585.68        71.12872
586.11        71.27256
586.54        70.67771
586.98        70.42971
587.41        70.77543
587.85        70.43099
588.28        70.88253
588.71        70.82183
589.15        71.03305
589.58        70.43526
590.01        70.57241
590.45        70.59545
590.88        70.11448
591.31        70.04494
591.75        70.12189
592.18        70.07712
592.61        70.14496
593.05        70.42673
593.48        71.30399
593.91        71.07915
594.35        70.66669
594.78        70.82335
595.21        70.56202
595.65         70.4374
596.08        70.06174
596.51        70.38383
596.94        70.05476
597.38        70.10175
597.81        70.18674
598.24        70.25892
598.68        70.34422
599.11        70.26865
599.54        70.94668
599.97        70.44702
600.41        70.59396
600.84        70.70775
601.27        70.57835
601.70        70.11196
602.14        69.77151
602.57        70.06491
603.00        70.37783
603.43        70.43935
603.87        70.32626
604.30        70.51147
604.73        70.16737
605.16        70.04086
605.60        70.14523
606.03        70.36187
606.46         70.6334
606.89        70.60673
607.32        70.23712
607.76        70.47895
608.19        70.25126
608.62        70.17077
609.05        69.99467
609.48        69.97638
609.92        70.02676
610.35        70.16896
610.78        70.13516
611.21        69.51879
611.64        70.05648
612.07           70.03
612.50        69.97433
612.94        69.90953
613.37        69.86189
613.80        70.01219
614.23        69.84761
614.66        69.92148
615.09        70.02517
615.52        70.08721
615.96        70.14371
616.39         69.7336
616.82        70.13147
617.25        69.95662
617.68        70.06948
618.11        70.00725
618.54        69.93513
618.97        70.14457
619.40        70.04598
619.84        70.14594
620.27        70.06002
620.70        69.93867
621.13         69.6983
621.56         69.7615
621.99        69.82294
622.42        69.48505
622.85        69.33697
623.28        69.63059
623.71        69.59073
624.14         69.0733
624.57        69.60192
625.00        69.84712
625.43        69.39632
625.86        69.38526
626.29        69.61868
626.72        69.23072
627.15        69.34595
627.58        69.31251
628.01        69.54835
628.44        69.11517
628.87        69.01977
629.30        69.49064
629.73        68.99466
630.16         68.7039
630.59        68.93548
631.02        69.14982
631.45        69.48464
631.88        69.64471
632.31        69.59929
632.74        69.56676
633.17        69.41078
633.60        69.34383
634.03        69.32887
634.46        69.38461
634.89        69.46319
635.32        69.40049
635.75        69.21837
636.18        69.16135
636.61        69.22086
637.04        69.13943
637.47        68.95589
637.89        68.96437
638.32        69.12885
638.75        69.22245
639.18        69.22729
639.61        69.25792
640.04        69.31288
640.47        69.35619
640.90        69.38868
641.33        69.38861
641.76        69.33648
642.18        69.37796
642.61        69.23858
643.04        69.13907
643.47        69.03452
643.90        68.98625
644.33        69.00272
644.76        69.07142
645.18        69.15319
645.61        69.16888
646.04        69.10467
646.47        68.97845
646.90        68.84103
647.33        68.78921
647.75        68.85812
648.18        68.99029
648.61        69.12609
649.04        69.31316
649.47        69.48647
649.89        69.29211
650.32        68.88319
650.75        69.01987
651.18        69.57628
651.61        69.65968
652.03        69.25082
652.46        68.86419
652.89        68.73183
653.32        68.82256
653.74        69.37657
654.17        69.67506
654.60        69.40463
655.03        68.84444
655.46        69.00511
655.88        69.95052
656.31        71.97955
656.74         73.1667
657.16        71.73133
657.59        70.85893
658.02        70.14086
658.45        70.00501
658.87        69.97208
659.30        70.34631
659.73        69.05557
660.15        68.90783
660.58        68.81007
661.01        69.00259
661.44        69.18273
661.86        69.35236
662.29        69.43047
662.72         69.2494
663.14        68.93564
663.57        68.91872
664.00        69.17686
664.42        69.22648
664.85         69.0608
665.27        68.98255
665.70        69.00823
666.13         69.0184
666.55         69.0133
666.98        69.01731
667.41        69.02427
667.83        69.02101
668.26        68.99966
668.69        68.97476
669.11        68.94788
669.54         68.9368
669.96        68.95555
670.39        68.92673
670.82        68.89374
671.24        69.06059
671.67        69.35374
672.09        69.43486
672.52        69.32952
672.94        69.24774
673.37        69.24558
673.80        69.31955
674.22        69.44344
674.65         69.4531
675.07        69.35526
675.50        69.24265
675.92         69.1614
676.35        69.11797
676.77        69.13077
677.20        69.19926
677.62        69.30075
678.05        69.37571
678.47        69.40566
678.90        69.41737
679.32        69.42773
679.75        69.46062
680.17        69.51859
680.60        69.66643
681.02        69.73711
681.45        69.75273
681.87        69.68238
682.30        69.47656
682.72        69.24426
683.15        69.31337
683.57        69.64878
684.00        69.78865
684.42         69.7134
684.85        69.75093
685.27        69.88354
685.70        69.90862
686.12         69.8266
686.54        69.77242
686.97        69.73739
687.39        69.68916
687.82        69.64842
688.24        69.51775
688.66         69.6362
689.09        69.70242
689.51        69.79741
689.94         69.8455
690.36        69.84216
690.78        69.79382
691.21        69.71687
691.63         69.6514
692.06        69.60633
692.48        69.54193
692.90        69.47444
693.33        69.44282
693.75        69.45701
694.17        69.50954
694.60        69.56512
695.02         69.6242
695.44        69.67316
695.87         69.6413
696.29        69.58633
696.71        69.76904
697.14         70.1047
697.56        70.19263
697.98        70.03328
698.41        70.02046
698.83        70.14214
699.25        70.19016
699.68        70.15601
700.10        70.19101
700.52        70.28987
700.94        70.41689
701.37        70.51156
701.79        70.51372
702.21        70.39346
702.64        70.19433
703.06        69.98206
703.48        69.87621
703.90         69.9094
704.33        70.04166
704.75        70.21497
705.17        70.30971
705.59        70.29237
706.01        70.17192
706.44        70.01434
706.86        70.04742
707.28        70.09832
707.70         70.3023
708.12        70.52766
708.55        70.59113
708.97        70.48835
709.39        70.40665
709.81         70.3855
710.23        70.36134
710.66        70.34972
711.08        70.42867
711.50        70.54407
711.92        70.59505
712.34        70.56841
712.76        70.49559
713.19         70.4157
713.61        70.44084
714.03        70.56849
714.45        70.75863
714.87        70.95592
715.29        71.07959
715.71        71.10625
716.13        71.06133
716.56        70.95114
716.98        70.86546
717.40        70.80774
717.82        70.76943
718.24        70.75627
718.66        70.77737
719.08        70.82867
719.50        70.90258
719.92        70.99182
720.34        71.08067
720.76        71.15757
721.19        71.21517
721.61        71.23886
722.03        71.17675
722.45        71.02842
722.87        70.81277
723.29        70.59881
723.71         70.4967
724.13        70.53693
724.55        70.69689
724.97        70.91177
725.39        71.06946
725.81        71.13598
726.23        71.13525
726.65         71.1211
727.07        71.18357
727.49        71.33787
727.91        71.54483
728.33        71.73652
728.75        71.80508
729.17         71.7258
729.59        71.54299
730.01          71.319
730.43        71.15109
730.85        71.07336
731.27        71.05935
731.69        71.09875
732.10        71.17339
732.52        71.25086
732.94         71.3863
733.36        71.56268
733.78        71.60493
734.20        71.47118
734.62        71.77565
735.04         71.3983
735.46        71.51437
735.88         71.7275
736.30        71.68357
736.72         71.4135
737.13        71.36797
737.55        71.54602
737.97        71.63123
738.39        71.61323
738.81        71.69559
739.23        71.85571
739.65        71.90125
740.06            71.8
740.48        71.77481
740.90         71.8092
741.32        71.65587
741.74        71.65015
742.16         71.6424
742.57        71.74306
742.99        71.90923
743.41        72.07082
743.83        72.08965
744.25        71.93997
744.67        71.65954
745.08        71.38694
745.50        71.30989
745.92        71.48902
746.34        71.86481
746.75        72.27181
747.17        72.45584
747.59         72.3562
748.01        71.99383
748.42         71.5519
748.84        71.41817
749.26        71.59303
749.68        71.79821
750.09        71.92111
750.51        71.81963
750.93        71.57782
751.35        71.64948
751.76        71.98061
752.18        72.04832
752.60        71.83637
753.01        71.66527
753.43        71.58392
753.85        71.56532
754.27        71.63023
754.68        71.78928
755.10        71.99625
755.52        72.16872
755.93        72.28587
756.35        72.36674
756.77        72.40193
757.18        72.45906
757.60        72.55592
758.02        72.51522
758.43        72.34173
758.85        72.69205
759.26         72.3849
759.68        72.59999
760.10        73.00713
760.51        72.11289
760.93        72.42215
761.34        71.99564
761.76        72.93903
762.18        73.22805
762.59        73.22341
763.01        72.96816
763.42        72.64201
763.84        72.48367
764.26        72.57851
764.67        72.85844
765.09        73.19516
765.50        73.22401
765.92        72.97862
766.33        72.75454
766.75        72.59563
767.16        72.49245
767.58        72.42707
768.00        72.60921
768.41        72.94086
768.83        72.88099
769.24        72.51752
769.66        72.47541
770.07        72.73204
770.49        72.91806
770.90         72.9989
771.32        73.06778
771.73        73.14695
772.15        73.22871
772.56        73.31922
772.97        73.43767
773.39        73.51584
773.80        73.39128
774.22        73.11729
774.63        73.12679
775.05        73.37198
775.46         73.4949
775.88        73.43932
776.29        73.46254
776.70          73.565
777.12        73.64297
777.53        73.70621
777.95        73.75742
778.36        73.78526
778.77        73.75219
779.19        73.67308
779.60        73.58353
780.02         73.5016
780.43         73.5432
780.84        73.70779
781.26        73.77593
781.67        73.85585
782.09        74.35218
782.50        74.90547
782.91        75.41679
783.33        74.03391
783.74          73.671
784.15        73.85385
784.57        73.79955
784.98        73.53551
785.39        73.66316
785.81        74.11488
786.22        74.35496
786.63        74.35882
787.04        74.46098
787.46        74.66721
787.87        74.76389
788.28        74.73454
788.70        74.69054
789.11        74.63059
789.52         74.4207
789.93        74.17854
790.35        74.34383
790.76        74.84621
791.17         75.0172
791.58        74.81435
792.00        74.74042
792.41        74.82249
792.82        74.65779
793.23        74.37977
793.65        74.47303
794.06        74.93774
794.47        75.45149
794.88        75.83904
795.29        75.84093
795.71        75.89105
796.12        75.42953
796.53        74.79076
796.94        74.76368
797.35        75.30988
797.76        75.46525
798.18        75.19521
798.59        75.19967
799.00        75.47714
799.41        75.58608
799.82        75.50943
800.23        75.46349
800.64        75.45821
801.06          75.402
801.47        75.34289
801.88        75.28379
802.29         75.2355
802.70        75.22327
803.11         75.2341
803.52        75.23011
803.93         75.2043
804.34        75.15709
804.75        75.14986
805.17        75.25496
805.58        75.50478
805.99        75.89475
806.40        76.28767
806.81         76.3381
807.22         76.0535
807.63        75.75616
808.04        75.56213
808.45        75.45245
808.86        75.47506
809.27        75.71004
809.68        76.05141
810.09        76.23606
810.50        76.20311
810.91        76.03689
811.32        75.81866
811.73        75.69586
812.14        75.71719
812.55        75.78259
812.96        75.86733
813.37        76.04952
813.78        76.25285
814.19        76.24045
814.60        76.05284
815.01        75.96858
815.42        76.01391
815.83        76.03067
816.24        76.02427
816.65        76.08914
817.05        76.22692
817.46        76.36271
817.87        76.49172
818.28        76.55403
818.69        76.53494
819.10        76.45972
819.51        76.33136
819.92        76.15857
820.33        75.96821
820.74        75.76976
821.14        75.61826
821.55        75.62936
821.96        75.79869
822.37        76.09924
822.78        76.45041
823.19        76.69716
823.60        76.78532
824.00        76.77406
824.41        76.66417
824.82        76.56233
825.23        76.50614
825.64        76.46955
826.04        76.49629
826.45        76.61733
826.86        76.83961
827.27        77.15428
827.68         77.4803
828.08         77.7075
828.49        77.73096
828.90        77.61272
829.31        77.42912
829.72        77.31973
830.12        77.34919
830.53        77.43322
830.94        77.52806
831.35        77.52175
831.75        77.40871
832.16        77.18186
832.57        76.93109
832.97        76.76767
833.38        76.72149
833.79        76.77011
834.20        76.86288
834.60        76.91886
835.01        76.93095
835.42        76.91442
835.82        76.93186
836.23        77.00332
836.64        77.16491
837.04        77.41806
837.45         77.6584
837.86        77.82642
838.26        77.90834
838.67        77.89287
839.08        77.85427
839.48        77.89733
839.89        78.04224
840.29        78.26389
840.70        78.46457
841.11        78.49281
841.51        78.34198
841.92         78.0233
842.33        77.68635
842.73        77.57202
843.14        77.68629
843.54        77.98801
843.95        78.32676
844.35        78.47939
844.76        78.37726
845.17        78.09618
845.57        77.75787
845.98         77.5229
846.38        77.47055
846.79        77.51798
847.19        77.62267
847.60        77.66058
848.00        77.61842
848.41        77.50766
848.81        77.38333
849.22        77.24921
849.62        77.15794
850.03        77.08047
850.43          77.042
850.84        76.99944
851.24         77.0025
851.65         77.0075
852.05        77.11195
852.46        77.34908
852.86        77.69553
853.27        78.11817
853.67        78.45189
854.07        78.67681
854.48        78.73962
854.88        78.69585
855.29        78.48161
855.69        78.21151
856.10        77.83778
856.50        77.44846
856.90         77.0598
857.31        76.72242
857.71        76.50656
858.12        76.36094
858.52        76.32919
858.92        76.33772
859.33        76.34476
859.73        76.39832
860.13        76.44919
860.54        76.44201
860.94        76.40045
861.34        76.29148
861.75        76.13026
862.15         76.0144
862.55        75.93631
862.96        75.89463
863.36        75.84518
863.76        75.69362
864.17        75.43005
864.57        75.11824
864.97        74.85813
865.38        74.78407
865.78        74.97032
866.18        75.33682
866.58        75.77648
866.99        76.10999
867.39        76.28509
867.79         76.2979
868.19         76.1799
868.60        75.94607
869.00        75.61284
869.40        75.22133
869.80        74.80441
870.21        74.44922
870.61        74.28622
871.01        74.24539
871.41        74.35654
871.81        74.65043
872.22          75.077
872.62        75.64697
873.02        76.22134
873.42        76.52399
873.82        76.47659
874.22        76.16984
874.63         75.7815
875.03        75.54765
875.43        75.54136
875.83        75.67997
876.23        75.92211
876.63        76.19414
877.03        76.44345
877.44        76.68459
877.84        76.84973
878.24        76.78436
878.64        76.48352
879.04        76.01446
879.44        75.52191
879.84         75.2139
880.24        75.13144
880.64        75.21121
881.04        75.39942
881.44        75.59071
881.84        75.73542
882.24        75.86446
882.65        75.90781
883.05        75.86154
883.45        75.68893
883.85         75.3941
884.25        75.08807
884.65        74.94171
885.05        74.98737
885.45        75.19562
885.85        75.43878
886.25         75.4911
886.65        75.31018
887.05        74.97667
887.45        74.65331
887.85         74.5901
888.25        74.82549
888.65        75.25366
889.04        75.72296
889.44        76.02527
889.84        76.07071
890.24         75.9376
890.64         75.6712
891.04        75.34732
891.44        75.02283
891.84        74.69013
892.24        74.42664
892.64        74.35216
893.04        74.48604
893.44        74.80379
893.83        75.22917
894.23        75.56017
894.63        75.75642
895.03         75.8335
895.43        75.84228
895.83        75.87746
896.23         75.9626
896.63        76.07254
897.02        76.12907
897.42        76.06036
897.82        75.85508
898.22        75.56879
898.62        75.32126
899.01        75.31542
899.41        75.57199
899.81        76.02519
900.21        76.55439
900.61        76.96161
901.00        77.16016
901.40        77.20807
901.80        77.12332
902.20        76.95512
902.59        76.75136
902.99        76.49761
903.39        76.24651
903.79        76.07468
904.18        76.00675
904.58        76.04709
904.98        76.18156
905.38        76.38664
905.77        76.62868
906.17        76.89935
906.57        77.14758
906.96        77.31569
907.36        77.34879
907.76        77.27136
908.15        77.09409
908.55        76.77283
908.95        76.36108
909.34        75.86681
909.74        75.42117
910.14        75.15676
910.53          75.108
910.93        75.23022
911.33        75.43339
911.72        75.54827
912.12        75.51715
912.52        75.41788
912.91        75.29777
913.31        75.26463
913.70         75.3421
914.10        75.47009
914.49        75.69273
914.89        76.02118
915.29        76.43869
915.68        76.90465
916.08        77.29145
916.47        77.40304
916.87        77.22421
917.26        76.80784
917.66        76.29037
918.05        75.84882
918.45        75.55338
918.84        75.41088
919.24        75.38875
919.64        75.50601
920.03        75.76345
920.42        76.13864
920.82        76.60446
921.21        77.10757
921.61        77.59608
922.00        78.06217
922.40        78.44607
922.79         78.7497
923.19          78.916
923.58        78.97548
923.98         78.8824
924.37        78.62859
924.77        78.22456
925.16        77.69022
925.55        77.14611
925.95        76.78783
926.34        76.67453
926.74        76.74844
927.13        76.93327
927.52         76.9873
927.92        76.87817
928.31        76.67158
928.70        76.45996
929.10         76.3739
929.49        76.44655
929.89        76.57867
930.28        76.80685
930.67        77.07692
931.07        77.32951
931.46        77.59295
931.85        77.74529
932.24        77.63353
932.64        77.25737
933.03        76.69156
933.42        76.10043
933.82        75.74702
934.21        75.71247
934.60        75.92572
934.99        76.31526
935.39        76.72527
935.78        77.11399
936.17        77.49951
936.56        77.82258
936.96        77.97268
937.35        77.98638
937.74        77.86048
938.13        77.67992
938.53        77.59096
938.92        77.62544
939.31        77.71874
939.70        77.86075
940.09        78.01834
940.49        78.13129
940.88        78.25679
941.27         78.2672
941.66        77.96861
942.05        77.36227
942.44        76.53014
942.84        75.73118
943.23        75.33609
943.62        75.47134
944.01        76.03611
944.40        76.81683
944.79        77.41142
945.18        77.65935
945.57        77.63895
945.97        77.44206
946.36        77.29712
946.75        77.23251
947.14        77.17426
947.53        77.05064
947.92        76.76173
948.31        76.30813
948.70        75.77802
949.09        75.27968
949.48        74.95028
949.87        74.82941
950.26        74.87875
950.65        75.05257
951.04        75.27332
951.43        75.50549
951.82        75.76282
952.21        76.01675
952.60        76.22397
952.99        76.36246
953.38        76.41042
953.77        76.40559
954.16        76.42448
954.55        76.47533
954.94        76.53635
955.33        76.53958
955.72        76.36935
956.11        76.00816
956.50         75.5096
956.89        74.97262
957.28        74.55977
957.66        74.37101
958.05        74.37008
958.44        74.51648
958.83         74.7253
959.22        74.94367
959.61        75.13818
960.00         75.3513
960.39         75.6592
960.78        76.04579
961.16        76.50967
961.55        76.76627
961.94        76.46928
962.33        75.59032
962.72        74.31017
963.11        73.04585
963.49        72.38692
963.88        72.47222
964.27        73.16763
964.66        74.17918
965.04        74.97243
965.43        75.26015
965.82        75.20058
966.21        75.03581
966.60        75.16751
966.98        75.69259
967.37        76.42903
967.76        77.10789
968.15         77.2306
968.53        76.68792
968.92        75.68922
969.31        74.59407
969.69        73.89648
970.08        73.73674
970.47        74.00087
970.86        74.60198
971.24        75.38565
971.63        76.15575
972.02        76.91476
972.40        77.62221
972.79        78.09956
973.17        78.41405
973.56         78.5427
973.95        78.49981
974.33        78.29765
974.72        77.96425
975.11        77.49287
975.49        77.06654
975.88        77.01527
976.26        77.40806
976.65        78.14324
977.04         78.8866
977.42         79.0361
977.81        78.37907
978.19        77.07335
978.58        75.60614
978.96        74.80718
979.35        74.90821
979.74        75.72865
980.12        76.87383
980.51        77.46246
980.89        77.38123
981.28        76.78445
981.66        76.09231
982.05        76.06361
982.43        76.88085
982.82        78.20569
983.20        79.62238
983.59        80.36179
983.97        80.33845
984.35        79.74117
984.74        78.86904
985.12        78.25143
985.51        78.07481
985.89        78.19918
986.28        78.50792
986.66        78.90184
987.04          79.292
987.43        79.69477
987.81        80.06907
988.20        80.21798
988.58        80.14955
988.96         79.8907
989.35        79.43548
989.73        78.89526
990.12        78.25682
990.50        77.45872
990.88        76.70158
991.27         76.4347
991.65        76.79955
992.03        77.71158
992.42        78.53636
992.80        78.70036
993.18        77.98814
993.56        76.40601
993.95        74.56181
994.33        73.89777
994.71        74.97993
995.10        77.14059
995.48        79.17766
995.86        79.76379
996.24        78.81519
996.63          76.562
997.01        73.97191
997.39         73.1332
997.77        74.78023
998.15        78.13332
998.54         81.5769
998.92        82.92545
999.30        81.76299
999.68        78.77869
1000.06        75.05151
1000.45        72.61429
1000.83         72.3166
1001.21        73.44048
1001.59        75.30425
1001.97           76.94
1002.35        78.01633
1002.73        78.91271
1003.12        79.47918
1003.50        79.23242
1003.88        78.21898
1004.26        76.57156
1004.64        74.95604
1005.02        74.24149
1005.40        74.55101
1005.78        75.73981
1006.16         77.3364
1006.54        78.42376
1006.92        78.69376
1007.30         78.3432
1007.69        77.92446
1008.07        78.25088
1008.45        79.52029
1008.83        81.34178
1009.21        83.02241
1009.59        83.61502
1009.97        82.88501
1010.35        81.02813
1010.73        78.53001
1011.11        76.74226
1011.49        76.43086
1011.86        77.35264
1012.24         78.8168
1012.62         80.0606
1013.00        80.85255
1013.38        81.49015
1013.76        81.96494
1014.14        82.22241
1014.52        82.29769
1014.90        82.08561
1015.28        81.86638
1015.66        82.25835
1016.04        83.34358
1016.41        84.96409
1016.79        86.39877
1017.17        86.93832
1017.55        86.48203
1017.93        85.40639
1018.31        84.09175
1018.69        83.08441
1019.06        82.68808
1019.44        82.77398
1019.82        83.56102
1020.20         85.3591
1020.58        87.88162
1020.95        90.56804
1021.33        92.88784
1021.71        94.21278
1022.09        94.45448
1022.46        93.81675
1022.84        92.18861
1023.22        89.26582
1023.60        85.05229
1023.97        79.33643
1024.35        73.37788
1024.73        69.91644
