SpectraSmart Spectrum 2.9.0.0
--------- Device Information -----------
Spectrum Name :  反射率_0
Saving Time :  2024/04/27 23:49:52
Spectro-Module Model Name : SE2030-DUVN
Spectro-Module Serial Number : OS361AC55029948
Wavelength Start : 200
Wavelength End : 1025
Wavelength Unit : Wavelength(nm)
Spectrum Unit : Reflectance(%)
-----------Spectrum Setting ------------
Integration Time : 20ms
Average : 10
Boxcar : 0
Background removal :  enabled
linearity correction :  enabled
SC :  disabled
Intensity correction :  disabled
DWT denoise :  enabled
savitzky-golay :  disabled
FFT :  disabled
Running average :  disabled
Kalman :  disabled
High pass :  disabled
---------------BEGIN--------------------
Wavelength(nm)             Reflectance(%)
200.29               0
200.75         124.438
201.21        119.8353
201.67        106.4969
202.13        89.42068
202.58        69.96552
203.04        48.92783
203.50        32.74262
203.96        31.85517
204.42        44.62839
204.88        63.50362
205.34        81.85876
205.80        95.41867
206.26        105.0464
206.72        113.6009
207.18        120.4286
207.64        119.1378
208.10        109.0097
208.55        97.29188
209.01        88.01265
209.47        79.91426
209.93        69.15214
210.39        47.10176
210.85       -13.96358
211.31       -82.64417
211.77        8.057075
212.23        64.96987
212.69        84.69395
213.14         90.9959
213.60         91.0005
214.06          86.606
214.52        75.21215
214.98        59.81292
215.44        52.13324
215.90        51.01159
216.36        53.14314
216.81        56.54009
217.27        60.44265
217.73         65.7121
218.19        70.74049
218.65         72.1729
219.11        69.11469
219.57        62.02762
220.02        52.96719
220.48        48.86134
220.94        51.78662
221.40        58.72818
221.86        66.48599
222.32        72.05206
222.77         75.0024
223.23        76.36519
223.69        76.45049
224.15        75.35376
224.61        73.28403
225.06        70.10957
225.52        66.53773
225.98        63.98168
226.44        62.98096
226.90        62.85742
227.36        63.08843
227.81        63.12828
228.27        62.87821
228.73         62.4571
229.19        61.43499
229.65        59.12843
230.10        55.62764
230.56        51.66792
231.02        48.23745
231.48        46.72197
231.93        47.11337
232.39        48.84696
232.85        51.19225
233.31        53.18158
233.77        54.50837
234.22        55.56117
234.68         56.0978
235.14        55.85302
235.60         54.8949
236.05        53.11947
236.51        51.42617
236.97        51.80418
237.43        54.84804
237.88        60.04476
238.34        65.43152
238.80        69.27164
239.26        71.35002
239.71        72.00162
240.17        71.20901
240.63        70.63229
241.08        71.70823
241.54         73.1337
242.00        74.06078
242.46        74.04807
242.91        73.07383
243.37        70.51355
243.83        65.66826
244.28        61.46976
244.74        65.68796
245.20        75.83698
245.66        82.35328
246.11        82.65705
246.57        77.80799
247.03        66.50795
247.48        49.51736
247.94        41.47734
248.40        54.71766
248.85         79.7187
249.31        101.8145
249.77        109.6266
250.22         106.103
250.68        97.78738
251.14        89.78568
251.59        86.10173
252.05         86.8415
252.51         90.6337
252.96        95.68707
253.42         96.3457
253.88        90.21563
254.33        82.22527
254.79        76.30434
255.25        72.97284
255.70        71.36723
256.16        71.02059
256.62        71.78825
257.07        73.67929
257.53        76.34309
257.99        78.79171
258.44        80.04385
258.90        79.79236
259.35        77.95007
259.81        75.54633
260.27        72.94158
260.72        70.63717
261.18        69.12753
261.63        67.89504
262.09        66.99641
262.55        66.01218
263.00        64.81445
263.46        63.68924
263.91        62.64391
264.37        62.09929
264.83        61.93953
265.28        61.92455
265.74        61.89645
266.19        61.39729
266.65        60.47401
267.11        59.22524
267.56        57.78522
268.02        56.48629
268.47        55.37601
268.93        54.38039
269.38        53.47638
269.84        52.66628
270.30        51.90808
270.75        51.21182
271.21        50.45428
271.66        49.37332
272.12        47.97554
272.57        46.31635
273.03        44.66175
273.48        43.33413
273.94        42.47513
274.39        41.93802
274.85        41.59608
275.31        41.16423
275.76        40.54609
276.22        39.85102
276.67        39.12863
277.13        38.56922
277.58        38.13185
278.04        37.80093
278.49        37.39366
278.95        36.79005
279.40        35.92682
279.86         34.9456
280.31        33.96603
280.77        33.29151
281.22        32.91692
281.68        32.79301
282.13        32.72111
282.59        32.49084
283.04         32.0328
283.50        31.43837
283.95        30.82135
284.41        30.40416
284.86        30.21168
285.32        30.19621
285.77        30.20245
286.22        30.05454
286.68        29.74012
287.13        29.28904
287.59        28.87106
288.04        28.65747
288.50        28.70789
288.95        28.92021
289.41        29.16759
289.86        29.21085
290.32         29.0334
290.77        28.71276
291.22        28.39908
291.68        28.30531
292.13        28.47487
292.59        28.86082
293.04        29.37162
293.50        29.89144
293.95        30.37702
294.40        30.88377
294.86        31.46455
295.31        32.18821
295.77        33.07645
296.22        34.07434
296.68         35.1501
297.13        36.22949
297.58        37.28642
298.04        38.34046
298.49         39.3798
298.95        40.42222
299.40        41.48052
299.85        42.56097
300.31        43.72864
300.76        45.03103
301.21        46.47102
301.67        48.03519
302.12        49.60502
302.58        51.07496
303.03         52.4045
303.48        53.65619
303.94        54.96575
304.39        56.46221
304.84        58.19743
305.30        60.13237
305.75        62.12608
306.20        64.04225
306.66        65.86052
307.11        67.57466
307.57        69.28924
308.02        71.05605
308.47        72.89427
308.93         74.7636
309.38        76.54693
309.83         78.1652
310.29        79.63294
310.74        80.97626
311.19        82.27803
311.65        83.63924
312.10        85.04525
312.55        86.45027
313.00        87.83182
313.46        89.17202
313.91        90.44042
314.36        91.65977
314.82        92.76067
315.27        93.62393
315.72        94.24037
316.18        94.66247
316.63        95.01355
317.08        95.53159
317.53        96.26952
317.99        97.15299
318.44        98.06382
318.89        98.77702
319.35        99.22895
319.80        99.50031
320.25        99.66869
320.70        99.86716
321.16        100.1336
321.61        100.4436
322.06        100.7795
322.51        101.1269
322.97        101.4578
323.42        101.8202
323.87         102.177
324.32         102.479
324.78        102.7009
325.23        102.8855
325.68        103.0473
326.13        103.2465
326.59        103.4711
327.04         103.745
327.49        104.0295
327.94        104.2947
328.39        104.5316
328.85        104.7286
329.30        104.9375
329.75        105.0913
330.20        105.1929
330.66        105.2252
331.11         105.323
331.56        105.5874
332.01        106.0514
332.46        106.6872
332.92        107.3464
333.37        107.9168
333.82        108.2886
334.27        108.4907
334.72        108.6321
335.17        108.9037
335.63        109.3328
336.08        109.9287
336.53        110.5337
336.98        110.9303
337.43        111.0768
337.88        111.0501
338.34        111.0241
338.79        111.3311
339.24        112.0215
339.69        112.9898
340.14        114.0279
340.59        114.7979
341.05        115.2103
341.50        115.3844
341.95        115.4551
342.40        115.6539
342.85        116.0548
343.30        116.5688
343.75        117.1591
344.20        117.7733
344.66        118.3722
345.11        118.9665
345.56         119.481
346.01        119.7852
346.46        119.8652
346.91        119.7626
347.36        119.5979
347.81        119.5629
348.26        119.7092
348.72         119.996
349.17        120.3375
349.62        120.6101
350.07        120.7709
350.52        120.8548
350.97        120.9104
351.42        121.0087
351.87        121.1669
352.32        121.3584
352.77        121.5143
353.22        121.5448
353.67        121.4217
354.13        121.1559
354.58        120.8142
355.03        120.5706
355.48        120.4417
355.93         120.382
356.38        120.1985
356.83        119.5863
357.28        118.5268
357.73          117.17
358.18        115.7987
358.63          114.84
359.08        114.3961
359.53        114.3277
359.98        114.4438
360.43        114.4399
360.88        114.1977
361.33        113.7787
361.78        113.2231
362.23        112.5978
362.68         111.931
363.13        111.2032
363.58        110.3955
364.03        109.4487
364.48        108.4588
364.93        107.4165
365.38        106.4269
365.83        105.6023
366.28        104.9607
366.73        104.4563
367.18        104.0154
367.63        103.5175
368.08        102.9219
368.53        102.2652
368.98        101.5501
369.43        100.7859
369.88        99.99276
370.33         99.1656
370.78        98.37204
371.23        97.72723
371.68        97.24569
372.13        96.88956
372.58        96.56712
373.03         96.1216
373.48         95.5139
373.93         94.8002
374.38         94.0326
374.83         93.2934
375.28        92.61739
375.72        91.95978
376.17        91.37801
376.62         90.8954
377.07        90.49853
377.52        90.16026
377.97        89.81664
378.42        89.36466
378.87        88.78621
379.32        88.13037
379.77        87.42062
380.22        86.68832
380.67        85.95939
381.11        85.23241
381.56        84.58015
382.01        84.13337
382.46        83.91306
382.91        83.87992
383.36        83.90308
383.81        83.77175
384.26        83.43296
384.71        82.94114
385.15        82.38249
385.60        81.96001
386.05        81.70057
386.50        81.54273
386.95        81.41563
387.40        81.21695
387.85        80.92328
388.29          80.531
388.74        80.16841
389.19        79.82271
389.64        79.49233
390.09        79.14561
390.54        78.78644
390.98        78.41274
391.43        78.08487
391.88        77.80532
392.33        77.51731
392.78         77.2318
393.23        76.97728
393.67        76.50403
394.12        75.95805
394.57        76.26971
395.02        76.17933
395.47        75.97764
395.91        75.39632
396.36        75.09963
396.81        75.13227
397.26        75.16508
397.71        75.11712
398.15        74.99007
398.60        74.84388
399.05          74.504
399.50        74.11718
399.95        74.10928
400.39        74.38453
400.84        74.39286
401.29        74.06905
401.74        73.51855
402.18        72.91856
402.63         72.7131
403.08        72.88049
403.53        72.84284
403.97         72.5691
404.42         72.4715
404.87        72.50394
405.32         72.4142
405.76        72.17999
406.21        71.85867
406.66        71.51728
407.11        71.34269
407.55        71.34186
408.00        71.26991
408.45        71.13126
408.90        70.99671
409.34        70.88703
409.79        70.91284
410.24        71.01588
410.68        71.01566
411.13         70.8912
411.58        70.74089
412.03        70.61533
412.47        70.57169
412.92        70.60561
413.37        70.72266
413.81        70.84194
414.26        70.89703
414.71        70.85521
415.15        70.75609
415.60        70.64542
416.05        70.66306
416.49        70.84207
416.94        71.12189
417.39        71.40912
417.83         71.5639
418.28        71.53917
418.73        71.35078
419.17        71.09442
419.62        70.93225
420.07        70.92644
420.51        71.04868
420.96        71.17817
421.41        71.17099
421.85        70.99496
422.30        70.48429
422.74        69.90119
423.19        70.34214
423.64        71.57653
424.08        72.04608
424.53        71.59779
424.98        71.57339
425.42        72.01978
425.87          71.879
426.31        71.31065
426.76        71.44987
427.21        72.15297
427.65        72.16138
428.10        71.52761
428.54        71.33369
428.99        71.62863
429.44        71.83816
429.88         71.9022
430.33        71.90681
430.77        71.81383
431.22        71.98847
431.66        72.34362
432.11        72.28123
432.56        72.00381
433.00        72.13753
433.45        72.40386
433.89        72.83209
434.34        73.55806
434.78        71.41286
435.23        72.06791
435.67        72.83415
436.12        73.56576
436.57        73.79709
437.01        73.28783
437.46        72.95068
437.90        73.22775
438.35        74.35782
438.79        73.85886
439.24        73.99342
439.68        74.04716
440.13        73.98573
440.57        73.89716
441.02        74.24986
441.46        74.85646
441.91        74.91145
442.35        74.45096
442.80        74.37675
443.24        74.65887
443.69        74.83746
444.13        74.86132
444.58        74.94739
445.02        75.06803
445.47        75.17777
445.91         75.2579
446.36        75.31589
446.80        75.32926
447.24        75.33964
447.69        75.29017
448.13        75.32961
448.58        75.41931
449.02        75.41776
449.47        75.34722
449.91        75.31839
450.36        75.35992
450.80        75.37416
451.25        75.38852
451.69        75.46705
452.13        75.59454
452.58        75.68049
453.02        75.70869
453.47        75.69391
453.91        75.61835
454.36        75.59708
454.80        75.58205
455.24        75.19256
455.69        74.56464
456.13        74.29538
456.58        74.56592
457.02        74.07649
457.46        75.06222
457.91         74.7925
458.35        74.33688
458.79        74.10052
459.24        74.21101
459.68        74.22803
460.13         74.1285
460.57        73.86629
461.01        73.79376
461.46        73.53441
461.90        73.26378
462.34        73.32928
462.79        73.62904
463.23        73.72618
463.68        73.59018
464.12        73.41753
464.56         73.3015
465.01        73.48981
465.45         73.7186
465.89        73.60935
466.34        73.26488
466.78         72.7022
467.22         71.9638
467.67        72.80318
468.11         72.1442
468.55        72.20483
468.99        72.06762
469.44        72.04568
469.88        72.11285
470.32        72.10908
470.77        72.05123
471.21        71.99975
471.65        71.95979
472.10        71.92374
472.54         71.8545
472.98        71.77637
473.42        71.70071
473.87        71.53582
474.31        71.31882
474.75        71.45773
475.20        71.83028
475.64        71.78799
476.08        71.37753
476.52        71.20984
476.97        71.28453
477.41        71.12698
477.85        71.38577
478.29        70.77748
478.74        71.21358
479.18        70.99313
479.62        71.13219
480.06        71.10043
480.50        71.00932
480.95        71.48862
481.39        71.09438
481.83         71.3536
482.27         71.1431
482.72         70.7577
483.16        70.75022
483.60        70.59192
484.04        70.49847
484.48        70.51273
484.93        70.83473
485.37        70.80151
485.81        70.97966
486.25        71.56818
486.69        73.39146
487.14        71.79478
487.58        71.12969
488.02        70.77572
488.46        70.93676
488.90        71.26189
489.34        70.96143
489.79        70.23931
490.23          70.853
490.67        70.75632
491.11        70.55337
491.55        70.48058
491.99        70.54246
492.43         70.5282
492.88        70.41258
493.32         70.3418
493.76        70.32673
494.20        70.37875
494.64        70.51305
495.08        70.67165
495.52         70.8185
495.96        71.03324
496.41         71.2392
496.85        71.07732
497.29        70.64714
497.73        70.60603
498.17        70.92509
498.61        70.92018
499.05        70.58447
499.49        70.49923
499.93        70.67199
500.37        70.55297
500.82        70.17854
501.26        70.16791
501.70        70.92606
502.14        70.17651
502.58        70.56733
503.02         70.5491
503.46        70.57935
503.90        70.64437
504.34        70.63113
504.78        70.59286
505.22        70.45866
505.66        70.18073
506.10        69.90636
506.54        69.77589
506.98        69.73089
507.42        70.43772
507.86          70.408
508.30        70.29882
508.74        70.62354
509.18        70.56259
509.62        70.43029
510.06        70.32334
510.50        70.28662
510.94         70.2586
511.38        70.23011
511.82          70.214
512.26        70.20467
512.70        70.21221
513.14        70.22099
513.58        70.19868
514.02         70.1422
514.46        70.05849
514.90        69.97292
515.34        69.94622
515.78        69.96729
516.22        70.03731
516.66        70.12176
517.10        70.17481
517.54        70.18229
517.98        70.15495
518.42        70.11278
518.86        70.08853
519.30         70.0905
519.74         70.1076
520.18        70.12074
520.62        70.10021
521.06        70.04328
521.50        69.96638
521.93         69.8958
522.37        69.85574
522.81        69.85697
523.25        69.89284
523.69        69.97158
524.13        70.01043
524.57        69.98002
525.01        70.06682
525.45          70.305
525.89        69.81352
526.32        70.07755
526.76        69.92967
527.20        69.81756
527.64        69.72413
528.08        69.66779
528.52        69.62454
528.96         69.6021
529.40        69.65005
529.83        69.75464
530.27        69.91273
530.71        70.05178
531.15        70.06764
531.59        69.94344
532.03        69.71246
532.46        69.45001
532.90        69.30222
533.34        69.29887
533.78        69.39976
534.22        69.53907
534.66        69.61456
535.09        69.59132
535.53         69.5223
535.97        69.43751
536.41        69.39842
536.85        69.42099
537.28        69.48444
537.72        69.56013
538.16        69.59387
538.60        69.57445
539.04        69.54588
539.47        69.49163
539.91        69.47488
540.35        69.48059
540.79        69.51263
541.22        69.53918
541.66        69.52061
542.10        69.44791
542.54        69.33477
542.97        69.21877
543.41        69.19598
543.85        69.26762
544.29        69.41281
544.72        69.55447
545.16        69.60889
545.60        69.54315
546.04        69.38062
546.47        69.19911
546.91        69.13853
547.35        69.21509
547.79         69.3787
548.22        69.52669
548.66        69.54233
549.10        69.40824
549.53        69.25654
549.97        69.14244
550.41        69.07228
550.84        69.06717
551.28        69.14278
551.72        69.26973
552.15        69.37688
552.59        69.43139
553.03        69.49221
553.46        69.32664
553.90        69.31364
554.34         69.3761
554.77        69.44295
555.21         69.4891
555.65         69.5292
556.08        69.47225
556.52        69.47012
556.96        69.48473
557.39        69.47802
557.83        69.45689
558.27        69.39904
558.70        69.32124
559.14        69.25226
559.57         69.2041
560.01        69.27318
560.45        69.39679
560.88        69.39671
561.32        69.32579
561.75        69.24335
562.19        69.21524
562.63        69.29999
563.06        69.44662
563.50        69.45587
563.93        69.32198
564.37          69.281
564.80        69.32017
565.24        69.36263
565.68        69.38794
566.11         69.4015
566.55        69.42529
566.98        69.44173
567.42        69.47801
567.85        69.51285
568.29        69.58309
568.72        69.63378
569.16        69.70685
569.60        69.80489
570.03        69.90002
570.47         70.0191
570.90         69.8855
571.34        70.20948
571.77        70.19381
572.21        70.16421
572.64        70.27963
573.08        70.17384
573.51        69.61301
573.95        69.93027
574.38        70.83626
574.82         70.4387
575.25        70.29918
575.69        70.39543
576.12        69.96397
576.56        70.38668
576.99        70.33026
577.42        70.51778
577.86        70.35814
578.29        70.84271
578.73        70.64905
579.16        70.54926
579.60        70.57579
580.03        70.38972
580.47        70.00854
580.90        70.80898
581.33        70.51702
581.77         70.8374
582.20        71.17704
582.64        71.15743
583.07         70.7935
583.51        70.30005
583.94        70.04001
584.37        69.97897
584.81        70.20142
585.24        70.48428
585.68        70.75924
586.11        70.44492
586.54        70.79195
586.98        69.86701
587.41        70.33389
587.85        70.00845
588.28        70.38848
588.71        70.40585
589.15        70.56475
589.58        70.01033
590.01         70.0226
590.45        70.33189
590.88        69.49638
591.31         69.4242
591.75        69.53412
592.18        69.46635
592.61        69.46031
593.05          69.525
593.48        70.51612
593.91        70.14685
594.35        70.08286
594.78        70.17412
595.21        69.72024
595.65        69.73651
596.08         69.7352
596.51        70.39362
596.94        69.75199
597.38        69.76643
597.81         69.9412
598.24        69.72411
598.68        69.92076
599.11        69.49989
599.54        70.25218
599.97        70.05186
600.41        70.15802
600.84        70.08018
601.27        70.01431
601.70        70.12862
602.14        69.68353
602.57        69.86465
603.00        69.71783
603.43        69.79844
603.87        70.23849
604.30        69.92604
604.73        69.86739
605.16        70.00705
605.60        69.90002
606.03        70.16203
606.46        70.36123
606.89        70.86527
607.32        69.94259
607.76        70.39839
608.19         70.0522
608.62        69.99618
609.05        69.76617
609.48        69.70061
609.92        69.81426
610.35        69.82204
610.78        70.05291
611.21        69.83559
611.64        70.01379
612.07        69.85242
612.50        69.64177
612.94        69.56954
613.37        69.69655
613.80        69.69136
614.23        70.09577
614.66        69.94945
615.09        69.89925
615.52        69.92974
615.96        70.22388
616.39        69.75976
616.82        69.76339
617.25         69.8793
617.68        69.53465
618.11        69.59988
618.54        69.79752
618.97        69.97913
619.40        70.02016
619.84        70.24023
620.27        70.18781
620.70        70.02707
621.13        69.57995
621.56        69.92037
621.99        69.38573
622.42        69.35993
622.85        69.32778
623.28        69.88403
623.71        69.35077
624.14        69.38161
624.57        69.64689
625.00        69.82091
625.43        69.62079
625.86        69.52683
626.29        69.51281
626.72        69.32505
627.15        69.28492
627.58        69.35116
628.01        69.59009
628.44        69.32919
628.87        69.11333
629.30        69.24856
629.73        69.33726
630.16        69.21469
630.59         69.1469
631.02        69.17292
631.45        69.37364
631.88        69.42897
632.31        69.31967
632.74        69.26462
633.17        69.15545
633.60        69.11684
634.03        69.11855
634.46        69.15635
634.89        69.20545
635.32         69.2194
635.75        69.18556
636.18        69.14858
636.61        69.11694
637.04        69.02351
637.47        68.91325
637.89        68.97346
638.32        69.14054
638.75        69.19019
639.18        69.10222
639.61        68.99963
640.04        68.91528
640.47        68.86676
640.90         68.8696
641.33        68.88712
641.76        68.88565
642.18          68.983
642.61        68.89226
643.04        68.83988
643.47         68.7674
643.90         68.7122
644.33         68.6832
644.76        68.67779
645.18         68.6828
645.61         68.6614
646.04        68.61018
646.47        68.53629
646.90        68.47684
647.33        68.48773
647.75        68.58146
648.18        68.75017
648.61         68.9277
649.04        69.01166
649.47        68.98763
649.89        68.85317
650.32        68.69066
650.75        68.73096
651.18        68.94771
651.61         69.0416
652.03        68.92854
652.46        68.84211
652.89        68.94128
653.32        68.67876
653.74        68.44018
654.17        69.44246
654.60        69.55497
655.03        68.95853
655.46        68.80537
655.88         69.7679
656.31        71.84111
656.74         75.0445
657.16        73.47247
657.59        71.52625
658.02        69.68305
658.45         69.8307
658.87          69.689
659.30        69.69335
659.73        69.32866
660.15        69.24371
660.58        68.94129
661.01        69.10616
661.44         69.4371
661.86        69.45856
662.29        69.16866
662.72        69.07367
663.14        69.20988
663.57        69.26871
664.00        69.23146
664.42        69.18667
664.85        69.13859
665.27         69.0555
665.70        68.96364
666.13        68.92556
666.55        68.95295
666.98         69.0127
667.41        69.09458
667.83        69.18137
668.26        69.25509
668.69        69.33562
669.11        69.39782
669.54        69.41882
669.96        69.40933
670.39        69.28464
670.82        69.12045
671.24        69.25477
671.67        69.61845
672.09        69.68793
672.52        69.46049
672.94         69.5586
673.37        69.41944
673.80         69.4976
674.22        69.58468
674.65        69.55287
675.07        69.41164
675.50        69.25363
675.92          69.151
676.35        69.13584
676.77        69.22935
677.20        69.41837
677.62        69.64639
678.05            69.8
678.47        69.84478
678.90        69.81555
679.32         69.7539
679.75         69.7232
680.17        69.74081
680.60        69.83308
681.02        69.94966
681.45        69.83361
681.87         69.7972
682.30        69.51206
682.72        69.20221
683.15        69.31425
683.57        69.77556
684.00        69.89493
684.42        69.67938
684.85        69.69982
685.27         69.9455
685.70        70.08442
686.12        70.08929
686.54        70.08357
686.97        70.06175
687.39        70.05396
687.82        70.06434
688.24        69.90804
688.66        69.92841
689.09         69.8763
689.51        69.87236
689.94        69.89415
690.36        69.95149
690.78        69.99916
691.21        70.02964
691.63        70.11947
692.06        70.21884
692.48        70.12811
692.90          69.913
693.33        69.77241
693.75        69.71372
694.17        69.76122
694.60        69.94445
695.02        69.56341
695.44        69.87202
695.87        69.93356
696.29        70.09295
696.71        70.04889
697.14         69.8763
697.56        70.06808
697.98        70.51369
698.41        70.72642
698.83        70.65858
699.25        70.59747
699.68        70.56708
700.10        70.53902
700.52        70.51761
700.94        70.51402
701.37        70.49775
701.79         70.4573
702.21        70.37115
702.64        70.26543
703.06        70.15061
703.48        70.06242
703.90         70.0183
704.33        70.00356
704.75        70.02258
705.17        70.06222
705.59         70.1155
706.01         70.1552
706.44        70.19661
706.86        70.37981
707.28         70.4915
707.70        70.72066
708.12        70.96498
708.55        70.99047
708.97         70.7801
709.39        70.92297
709.81        70.71909
710.23        70.72948
710.66        70.74916
711.08        70.86172
711.50         71.0103
711.92          71.108
712.34        71.14407
712.76         71.1359
713.19        71.09872
713.61        71.10559
714.03         71.1501
714.45        71.21161
714.87        71.27093
715.29        71.30122
715.71        71.29494
716.13        71.26444
716.56        71.20412
716.98        71.18021
717.40        71.18267
717.82         71.2065
718.24        71.24878
718.66        71.30525
719.08        71.36913
719.50         71.4331
719.92        71.49721
720.34        71.56161
720.76        71.62103
721.19        71.66615
721.61        71.68603
722.03        71.63162
722.45        71.50375
722.87        71.32488
723.29        71.15404
723.71        71.08466
724.13        71.14138
724.55        71.29798
724.97         71.5079
725.39        71.69085
725.81        71.81534
726.23        71.89633
726.65        71.94596
727.07        71.98786
727.49        72.02991
727.91        72.05934
728.33         72.0704
728.75        72.05883
729.17        72.02667
729.59        71.98421
730.01        71.94281
730.43        71.91531
730.85        71.90705
731.27        71.91621
731.69        71.94347
732.10        71.98932
732.52        72.02975
732.94        72.10912
733.36        72.23006
733.78        72.24239
734.20        72.11202
734.62        72.49063
735.04        72.20557
735.46         72.3149
735.88        72.43908
736.30         72.3576
736.72        72.11756
737.13        72.12983
737.55        72.33479
737.97        72.33115
738.39        72.13116
738.81        71.96557
739.23        71.90859
739.65        72.08923
740.06        72.37702
740.48        72.48254
740.90        72.34612
741.32        72.21691
741.74        72.06162
742.16        72.02718
742.57        72.11926
742.99        72.30699
743.41        72.52261
743.83        72.64279
744.25        72.63587
744.67         72.5268
745.08        72.39888
745.50        72.34618
745.92        72.41515
746.34        72.58095
746.75        72.75018
747.17         72.7879
747.59        72.66768
748.01        72.37366
748.42        72.05797
748.84        72.05746
749.26         72.3455
749.68        72.64746
750.09          72.827
750.51        72.72744
750.93        72.42468
751.35        72.33681
751.76        72.46767
752.18        72.43676
752.60        72.25406
753.01        72.18656
753.43        72.23296
753.85        72.29165
754.27        72.35693
754.68          72.462
755.10        72.59209
755.52        72.71632
755.93        72.83355
756.35        72.94258
756.77        73.01073
757.18        73.12825
757.60         73.3255
758.02        73.28814
758.43        73.00004
758.85        73.67252
759.26        73.52503
759.68        73.54643
760.10        73.56502
760.51         72.9522
760.93         72.8201
761.34        73.18635
761.76        73.71561
762.18        73.90044
762.59        73.57407
763.01        73.16276
763.42        72.88747
763.84        72.74577
764.26        72.83729
764.67        73.21867
765.09        73.73185
765.50        73.89313
765.92        73.72322
766.33        73.55376
766.75        73.41569
767.16        73.30304
767.58        73.20253
768.00        73.24993
768.41         73.4265
768.83        73.45311
769.24        73.35268
769.66        73.46758
770.07        73.72086
770.49        73.74359
770.90        73.57835
771.32        73.60412
771.73        73.82819
772.15        73.92489
772.56        73.89346
772.97        73.96239
773.39        74.08343
773.80        74.01268
774.22        73.79017
774.63        73.85238
775.05        74.12323
775.46        74.21275
775.88        74.06015
776.29        73.93279
776.70        73.86475
777.12        73.81552
777.53        73.82297
777.95        73.88062
778.36        73.97942
778.77        74.08183
779.19        74.17725
779.60        74.27825
780.02        74.38094
780.43        74.52077
780.84         74.6721
781.26        74.78172
781.67        74.90772
782.09        75.03178
782.50         74.9834
782.91        75.43246
783.33        74.48278
783.74        74.31658
784.15        74.40313
784.57        74.40339
784.98        74.32198
785.39        74.50697
785.81        74.87674
786.22        74.96515
786.63        74.79934
787.04        74.80162
787.46        74.99828
787.87        75.13508
788.28        75.18224
788.70        75.22931
789.11        75.26593
789.52        75.18192
789.93        75.04287
790.35        75.20748
790.76        75.57883
791.17        75.48009
791.58        75.01787
792.00        74.85783
792.41        75.05099
792.82        75.40008
793.23        75.77134
793.65        75.62611
794.06        75.15292
794.47        75.47722
794.88        76.42533
795.29        76.57034
795.71        76.33299
796.12        76.00746
796.53        75.84222
796.94        75.66025
797.35        75.53653
797.76        75.66145
798.18        75.95209
798.59         76.1036
799.00        76.07556
799.41        75.99351
799.82        75.89137
800.23        75.79317
800.64        75.72166
801.06         75.6423
801.47         75.5975
801.88        75.58128
802.29        75.59557
802.70        75.64475
803.11        75.71957
803.52        75.79892
803.93        75.87856
804.34        75.95647
804.75        76.04204
805.17        76.16502
805.58        76.36048
805.99        76.52479
806.40        76.63742
806.81        76.83508
807.22        77.01325
807.63        76.80435
808.04        76.33573
808.45        76.16942
808.86        76.37504
809.27        76.67153
809.68        76.92353
810.09        77.00637
810.50        76.86841
810.91        76.55784
811.32         76.2025
811.73        76.02789
812.14        76.09853
812.55         76.3016
812.96        76.56271
813.37        76.86212
813.78        77.09318
814.19        77.04574
814.60        76.79134
815.01        76.66107
815.42        76.69592
815.83        76.71313
816.24        76.72218
816.65        76.82579
817.05        77.02288
817.46        77.24801
817.87        77.45515
818.28        77.51678
818.69        77.41116
819.10        77.17516
819.51         76.8921
819.92        76.71851
820.33         76.7078
820.74        76.81238
821.14        76.96884
821.55        77.11066
821.96        77.18999
822.37        77.23689
822.78        77.24791
823.19        77.21236
823.60        77.14064
824.00        77.05678
824.41        76.95217
824.82        76.91444
825.23        76.95858
825.64        77.06255
826.04        77.23222
826.45        77.42799
826.86        77.63705
827.27        77.86427
827.68        78.04728
828.08        78.11697
828.49        77.99498
828.90        77.74384
829.31        77.47022
829.72        77.36066
830.12        77.48401
830.53         77.7375
830.94        78.04098
831.35        78.21533
831.75        78.22841
832.16         78.0888
832.57         77.8637
832.97        77.63712
833.38        77.44568
833.79         77.2707
834.20        77.14895
834.60        77.13033
835.01        77.22697
835.42         77.4271
835.82        77.67265
836.23        77.77065
836.64        77.70368
837.04        77.53138
837.45         77.3082
837.86        77.23009
838.26        77.35834
838.67        77.63205
839.08        77.96385
839.48        78.19049
839.89        78.26433
840.29        78.22342
840.70        78.17659
841.11        78.30127
841.51        78.64539
841.92        79.10838
842.33         79.5448
842.73        79.71301
843.14        79.50876
843.54        79.04826
843.95         78.5082
844.35        78.19593
844.76        78.18279
845.17        78.38277
845.57        78.67281
845.98        78.80115
846.38        78.72303
846.79        78.50073
847.19        78.22513
847.60        77.98318
848.00        77.84351
848.41        77.73254
848.81        77.69678
849.22        77.74126
849.62        77.89095
850.03        78.12074
850.43        78.37537
850.84        78.47224
851.24        78.42989
851.65        78.22662
852.05        78.03225
852.46        78.03812
852.86        78.28047
853.27        78.68105
853.67        79.03278
854.07        79.25092
854.48          79.264
854.88        79.16528
855.29        78.87723
855.69        78.48831
856.10        77.96035
856.50        77.38329
856.90        76.85554
857.31        76.56319
857.71        76.59209
858.12        76.84583
858.52        77.23788
858.92        77.47996
859.33        77.47174
859.73        77.31586
860.13        77.06496
860.54        76.85806
860.94        76.78315
861.34        76.74297
861.75        76.69388
862.15         76.6361
862.55        76.53436
862.96         76.4418
863.36        76.30674
863.76        76.01759
864.17        75.57159
864.57         75.0138
864.97        74.53917
865.38        74.43865
865.78        74.81065
866.18        75.55697
866.58        76.38226
866.99        76.76195
867.39        76.58373
867.79        75.96794
868.19        75.24054
868.60        74.86096
869.00        74.92939
869.40        75.33417
869.80        75.86603
870.21        76.14458
870.61        76.11512
871.01        75.85031
871.41        75.50066
871.81        75.26184
872.22        75.16119
872.62        75.16676
873.02         75.2309
873.42        75.26983
873.82        75.26182
874.22         75.2581
874.63        75.31801
875.03        75.48717
875.43        75.77483
875.83        76.12615
876.23        76.49522
876.63        76.81562
877.03        77.04187
877.44        77.17187
877.84        77.16608
878.24        76.93519
878.64        76.49885
879.04        75.92268
879.44        75.34657
879.84        74.95308
880.24        74.78078
880.64          74.792
881.04         74.9211
881.44        75.04151
881.84        75.10543
882.24        75.13772
882.65        75.14133
883.05        75.22912
883.45        75.37608
883.85        75.54927
884.25         75.7029
884.65        75.78513
885.05        75.78443
885.45        75.70749
885.85        75.61457
886.25        75.60678
886.65        75.70566
887.05        75.89023
887.45        76.04404
887.85        75.98883
888.25        75.69082
888.65        75.19192
889.04        74.65565
889.44        74.39639
889.84        74.46444
890.24        74.77576
890.64         75.1085
891.04         75.1063
891.44        74.70948
891.84        74.06229
892.24        73.40019
892.64        73.08632
893.04        73.21571
893.44        73.66422
893.83        74.31026
894.23        74.89377
894.63        75.33861
895.03         75.6926
895.43        75.95707
895.83        76.13239
896.23        76.23273
896.63        76.25281
897.02         76.2022
897.42        76.15668
897.82        76.12373
898.22        76.09647
898.62        76.11583
899.01         76.2495
899.41        76.47337
899.81        76.77867
900.21        77.05168
900.61        77.10448
901.00        76.89407
901.40        76.49989
901.80        76.05685
902.20        75.79261
902.59        75.78179
902.99        75.95074
903.39        76.22517
903.79        76.45985
904.18        76.60188
904.58        76.70951
904.98        76.81167
905.38        76.96078
905.77        77.15695
906.17        77.36327
906.57        77.55955
906.96        77.74859
907.36        77.88409
907.76        77.98549
908.15        78.01199
908.55        77.81524
908.95        77.42934
909.34        76.90627
909.74        76.41789
910.14        76.16441
910.53        76.20416
910.93        76.45535
911.33        76.84628
911.72         77.2403
912.12        77.53867
912.52         77.7673
912.91         77.8696
913.31        77.81446
913.70        77.60474
914.10        77.23639
914.49        76.81664
914.89         76.4861
915.29        76.32864
915.68        76.31958
916.08        76.40797
916.47        76.48714
916.87        76.54107
917.26        76.58673
917.66        76.64777
918.05        76.72353
918.45        76.80086
918.84        76.87475
919.24        76.92542
919.64        77.01661
920.03        77.16917
920.42        77.37072
920.82        77.54694
921.21         77.5699
921.61        77.40546
922.00        77.09032
922.40        76.78323
922.79        76.84589
923.19        77.29626
923.58        78.05401
923.98        78.76094
924.37        78.92792
924.77         78.4561
925.16        77.49395
925.55        76.40617
925.95        75.82793
926.34        75.94498
926.74        76.54221
927.13        77.35094
927.52        77.83703
927.92        77.87273
928.31        77.61847
928.70        77.24911
929.10        77.00848
929.49        76.97958
929.89        77.03812
930.28        77.19436
930.67        77.36105
931.07        77.48115
931.46        77.60378
931.85        77.68998
932.24        77.70393
932.64        77.64042
933.03        77.51212
933.42        77.32751
933.82        77.10162
934.21        76.86531
934.60         76.6376
934.99        76.47961
935.39         76.4633
935.78        76.63431
936.17        76.94685
936.56        77.34104
936.96        77.69515
937.35         77.9938
937.74        78.21616
938.13        78.33107
938.53         78.3072
938.92         78.1584
939.31        77.88922
939.70        77.57979
940.09        77.37836
940.49        77.30733
940.88        77.36841
941.27        77.48403
941.66        77.52909
942.05        77.47516
942.44        77.37574
942.84        77.27199
943.23        77.17601
943.62         77.1228
944.01        77.07808
944.40         77.0723
944.79        77.16509
945.18        77.34587
945.57        77.58688
945.97        77.74489
946.36         77.6741
946.75        77.32261
947.14         76.7416
947.53        76.07915
947.92        75.60651
948.31        75.41248
948.70        75.43301
949.09        75.55239
949.48        75.57029
949.87        75.44638
950.26        75.27681
950.65        75.13333
951.04         75.1217
951.43        75.27733
951.82        75.53426
952.21        75.90651
952.60        76.42849
952.99         77.0407
953.38        77.67814
953.77        78.17204
954.16         78.2792
954.55        77.95853
954.94        77.28944
955.33        76.40743
955.72        75.55225
956.11        74.82454
956.50         74.1879
956.89        73.67377
957.28        73.30325
957.66         73.1209
958.05        73.17353
958.44        73.37493
958.83        73.54884
959.22        73.64694
959.61        73.63995
960.00        73.72417
960.39        74.24256
960.78        75.21503
961.16        76.54761
961.55        77.73339
961.94        78.02099
962.33        77.25312
962.72        75.72782
963.11        74.03577
963.49        73.03571
963.88        72.94812
964.27        73.55492
964.66        74.53464
965.04        75.30588
965.43        75.55888
965.82        75.50153
966.21        75.33103
966.60        75.35764
966.98        75.66556
967.37        76.07792
967.76        76.43323
968.15        76.44397
968.53        76.06313
968.92        75.45197
969.31        74.80415
969.69        74.36031
970.08        74.20237
970.47        74.27081
970.86        74.64479
971.24        75.45766
971.63        76.55923
972.02        77.82623
972.40        78.99693
972.79        79.60235
973.17        79.65459
973.56        79.21265
973.95        78.46333
974.33        77.73028
974.72        77.15326
975.11        76.66504
975.49        76.29085
975.88        76.07619
976.26        76.03927
976.65         76.2148
977.04        76.47525
977.42        76.55121
977.81        76.32175
978.19        75.79684
978.58        75.32789
978.96        75.50327
979.35        76.39307
979.74        77.82878
980.12        79.29317
980.51        79.73279
980.89        79.04204
981.28        77.43096
981.66        75.54255
982.05         74.5871
982.43        74.91685
982.82        76.08558
983.20        77.58971
983.59        78.47532
983.97        78.55792
984.35        78.10197
984.74        77.22461
985.12        76.13689
985.51          75.045
985.89        73.96702
986.28        73.18418
986.66        73.18587
987.04        73.97147
987.43        75.35571
987.81        77.03642
988.20        78.32821
988.58         79.0163
988.96        79.23934
989.35        78.97902
989.73         78.3579
990.12        77.39552
990.50        75.94398
990.88         74.3801
991.27        73.63706
991.65         74.0304
992.03        75.38876
992.42        76.73008
992.80        76.99392
993.18        75.88817
993.56        73.55427
993.95        70.81782
994.33        69.72546
994.71        71.09168
995.10        73.86854
995.48        76.66464
995.86         78.0313
996.24        77.86271
996.63        76.53046
997.01        74.67827
997.39        73.62025
997.77        73.97742
998.15        75.35551
998.54        76.98499
998.92        77.85898
999.30        77.74284
999.68        76.90459
1000.06        75.98038
1000.45        76.03358
1000.83        77.36135
1001.21        79.47964
1001.59        81.45317
1001.97         81.9429
1002.35        80.67844
1002.73        78.04791
1003.12        74.84884
1003.50        72.75827
1003.88        72.52041
1004.26        73.49068
1004.64        75.06655
1005.02        76.49658
1005.40        77.55095
1005.78        78.56503
1006.16        79.16626
1006.54        78.65102
1006.92        76.96841
1007.30        74.24794
1007.69        71.58517
1008.07        70.76768
1008.45        72.23528
1008.83         75.4236
1009.21        79.00288
1009.59        81.04024
1009.97         81.0357
1010.35        79.32731
1010.73        76.68362
1011.11        75.13984
1011.49        75.68282
1011.86          77.772
1012.24        80.11858
1012.62        81.23151
1013.00        80.81128
1013.38        79.40507
1013.76        77.78254
1014.14        77.13406
1014.52        77.86253
1014.90        79.67802
1015.28        81.92381
1015.66        83.32961
1016.04        83.40751
1016.41        82.54829
1016.79         81.4124
1017.17        81.36004
1017.55        82.61309
1017.93        84.76231
1018.31        86.87375
1018.69        87.47529
1019.06        86.23952
1019.44        83.48733
1019.82        80.24297
1020.20        78.70173
1020.58        79.57669
1020.95        81.96088
1021.33        84.62266
1021.71        85.92377
1022.09        85.53506
1022.46        83.97311
1022.84        81.68005
1023.22        79.25427
1023.60        77.01302
1023.97        74.59675
1024.35        72.42597
1024.73        71.09263
