SpectraSmart Spectrum 2.9.0.0
--------- Device Information -----------
Spectrum Name :  反射率_0
Saving Time :  2024/04/27 23:58:02
Spectro-Module Model Name : SE2030-DUVN
Spectro-Module Serial Number : OS361AC55029948
Wavelength Start : 200
Wavelength End : 1025
Wavelength Unit : Wavelength(nm)
Spectrum Unit : Reflectance(%)
-----------Spectrum Setting ------------
Integration Time : 20ms
Average : 10
Boxcar : 0
Background removal :  enabled
linearity correction :  enabled
SC :  disabled
Intensity correction :  disabled
DWT denoise :  enabled
savitzky-golay :  disabled
FFT :  disabled
Running average :  disabled
Kalman :  disabled
High pass :  disabled
---------------BEGIN--------------------
Wavelength(nm)             Reflectance(%)
200.29               0
200.75        2.236656
201.21        21.08144
201.67        40.53155
202.13        52.95253
202.58        60.65535
203.04         66.7314
203.50        72.31255
203.96        77.72793
204.42        82.33164
204.88        85.64339
205.34        87.48052
205.80         87.8371
206.26         86.6199
206.72        83.10822
207.18        76.16613
207.64        67.96162
208.10        63.79863
208.55        64.58398
209.01        64.97346
209.47        61.54572
209.93          51.888
210.39        26.46933
210.85       -49.82801
211.31       -139.0089
211.77        -26.0424
212.23         46.2862
212.69        70.99879
213.14        77.43143
213.60        74.58741
214.06        63.85313
214.52        43.51523
214.98        28.16212
215.44        34.06337
215.90        47.82618
216.36        58.95145
216.81        64.13834
217.27        64.94851
217.73        63.88593
218.19        61.39553
218.65        57.68629
219.11        53.10522
219.57        47.14091
220.02        40.88944
220.48        38.81971
220.94        41.70785
221.40        47.64482
221.86        53.98917
222.32        58.11117
222.77        59.88463
223.23        60.23411
223.69        59.55555
224.15        58.07254
224.61        55.98763
225.06        53.03614
225.52        50.26817
225.98        49.39858
226.44        50.43719
226.90        52.21051
227.36        53.63901
227.81        53.82195
228.27        52.77658
228.73         50.7822
229.19        47.88661
229.65        44.46603
230.10        40.99171
230.56        37.88597
231.02         35.4866
231.48        34.24788
231.93        34.06691
232.39        34.78001
232.85        36.14661
233.31        37.81792
233.77        39.59751
234.22        41.61995
234.68        43.35428
235.14        44.27276
235.60        44.38445
236.05        43.66121
236.51        43.16078
236.97        44.94479
237.43         49.4936
237.88         56.1482
238.34        62.68695
238.80        67.23958
239.26        69.67142
239.71        70.27229
240.17        69.41624
240.63        70.08186
241.08        73.85257
241.54        78.03582
242.00        80.82605
242.46        81.88511
242.91        81.71603
243.37        80.01685
243.83         76.6051
244.28        75.10358
244.74        81.40961
245.20         91.0775
245.66        96.32223
246.11        95.99702
246.57        91.08834
247.03        80.37595
247.48        62.71393
247.94        47.04065
248.40        45.88011
248.85        55.18336
249.31        68.49673
249.77         79.8054
250.22        87.64008
250.68        93.63432
251.14        97.57752
251.59        99.47601
252.05        99.88821
252.51        98.08746
252.96         94.6813
253.42        93.75512
253.88        96.51683
254.33        100.8494
254.79        103.2859
255.25        100.7519
255.70        94.63932
256.16        87.86224
256.62         83.2007
257.07        83.59435
257.53        88.05179
257.99        93.42297
258.44        97.28942
258.90        98.36937
259.35        96.61092
259.81        93.81886
260.27        90.56376
260.72        87.56061
261.18        85.47702
261.63         83.5926
262.09        82.17897
262.55        80.97034
263.00        79.74393
263.46         78.7304
263.91        77.62503
264.37        76.50958
264.83        75.28519
265.28        73.92623
265.74        72.57669
266.19        71.07973
266.65        69.54204
267.11        67.92877
267.56        66.27763
268.02        64.79051
268.47        63.45944
268.93        62.26245
269.38        61.16441
269.84        60.14392
270.30        59.16578
270.75        58.24332
271.21        57.28409
271.66        56.08309
272.12        54.64969
272.57        52.98661
273.03        51.36324
273.48        50.09802
273.94        49.31212
274.39        48.85177
274.85        48.48449
275.31        47.75935
275.76         46.5899
276.22        45.17394
276.67        43.75573
277.13        42.81916
277.58        42.35024
278.04        42.22991
278.49         42.0849
278.95        41.52859
279.40        40.44507
279.86        39.08865
280.31        37.69986
280.77        36.76876
281.22        36.32848
281.68        36.26269
282.13        36.31833
282.59        36.22462
283.04        35.89253
283.50        35.45744
283.95        35.02138
284.41        34.78802
284.86        34.77792
285.32         34.9355
285.77        35.15166
286.22        35.33863
286.68        35.48101
287.13        35.56017
287.59        35.64459
288.04         35.7439
288.50        35.89387
288.95        36.04322
289.41        36.17196
289.86        36.18827
290.32        36.12886
290.77        36.04119
291.22        36.02398
291.68        36.20388
292.13        36.61404
292.59        37.25798
293.04        38.11814
293.50        39.19114
293.95        40.44365
294.40         41.8766
294.86        43.45784
295.31        45.12875
295.77        46.87122
296.22        48.65485
296.68        50.47313
297.13        52.29042
297.58        54.08949
298.04        55.87281
298.49        57.62644
298.95        59.40173
299.40        61.21678
299.85        63.09423
300.31        65.08729
300.76        67.19674
301.21        69.41322
301.67         71.7432
302.12        74.06612
302.58        76.32361
303.03        78.45514
303.48        80.49964
303.94        82.58912
304.39        84.81818
304.84        87.22762
305.30        89.77988
305.75        92.27001
306.20        94.51282
306.66        96.48849
307.11        98.19349
307.57        99.80493
308.02        101.4501
308.47        103.1838
308.93        104.9684
309.38        106.6271
309.83        108.0204
310.29        109.1585
310.74        110.0864
311.19         110.965
311.65          112.01
312.10        113.2257
312.55        114.5336
313.00        115.8205
313.46        116.9277
313.91        117.7883
314.36        118.4725
314.82        119.0096
315.27        119.4403
315.72        119.7992
316.18         120.099
316.63        120.3686
317.08         120.701
317.53        121.1179
317.99        121.5946
318.44        122.1134
318.89        122.6039
319.35        123.0385
319.80        123.4483
320.25        123.8102
320.70        124.1002
321.16        124.3112
321.61        124.4639
322.06        124.6212
322.51        124.9057
322.97        125.3127
323.42        125.8388
323.87         126.363
324.32        126.7071
324.78        126.8099
325.23        126.7845
325.68        126.6866
326.13        126.6455
326.59         126.688
327.04        126.8323
327.49        127.0853
327.94        127.4982
328.39        128.0633
328.85        128.7328
329.30        129.4709
329.75        130.0055
330.20        130.2755
330.66        130.3024
331.11        130.3022
331.56        130.5066
332.01        130.9939
332.46        131.6809
332.92        132.4146
333.37         133.112
333.82        133.6405
334.27        134.0538
334.72        134.3619
335.17        134.5791
335.63        134.7095
336.08         134.826
336.53        134.9662
336.98        135.2526
337.43        135.7182
337.88        136.3313
338.34        137.0385
338.79        137.8061
339.24         138.567
339.69        139.3212
340.14        139.9969
340.59        140.4879
341.05        140.7869
341.50        140.9399
341.95        141.0415
342.40        141.2683
342.85        141.6695
343.30        142.1886
343.75        142.7836
344.20        143.3772
344.66        143.9286
345.11        144.4496
345.56        144.8775
346.01        145.1079
346.46        145.1394
346.91        145.0125
347.36        144.8492
347.81        144.8421
348.26        145.0341
348.72        145.3696
349.17        145.7542
349.62        146.0597
350.07        146.2286
350.52        146.2879
350.97        146.2428
351.42        146.1042
351.87        145.8864
352.32        145.5889
352.77        145.2236
353.22        144.8152
353.67        144.3751
354.13        143.9156
354.58        143.4358
355.03        142.9964
355.48        142.5956
355.93        142.2123
356.38        141.7787
356.83        141.1843
357.28        140.4153
357.73        139.5258
358.18        138.5815
358.63         137.681
359.08        136.8634
359.53        136.1038
359.98        135.4086
360.43        134.7883
360.88        134.2197
361.33        133.6795
361.78        133.1156
362.23        132.4304
362.68        131.5983
363.13        130.6785
363.58         129.686
364.03        128.5169
364.48        127.4202
364.93        126.2402
365.38        125.1145
365.83        124.1486
366.28        123.3585
366.73         122.706
367.18        122.1099
367.63         121.437
368.08        120.6497
368.53        119.7908
368.98        118.8889
369.43        117.9953
369.88        117.1333
370.33        116.2768
370.78         115.461
371.23        114.7472
371.68        114.1345
372.13        113.6063
372.58        113.0738
373.03        112.3882
373.48        111.5237
373.93        110.5315
374.38        109.5118
374.83        108.6221
375.28        107.9007
375.72        107.2767
376.17        106.7265
376.62        106.1342
377.07        105.4683
377.52          104.76
377.97        104.0311
378.42        103.3152
378.87        102.6297
379.32         101.969
379.77        101.3298
380.22        100.7026
380.67        100.0864
381.11        99.49708
381.56        98.94505
382.01        98.46014
382.46        98.05444
382.91        97.71537
383.36        97.42759
383.81        97.16566
384.26        96.90914
384.71        96.65263
385.15        96.35835
385.60        96.03642
386.05        95.66417
386.50        95.24462
386.95        94.79642
387.40        94.35867
387.85        93.94938
388.29        93.50968
388.74        93.13286
389.19        92.73119
389.64         92.2805
390.09        91.76814
390.54        91.23266
390.98        90.71844
391.43        90.31606
391.88         90.0246
392.33        89.73345
392.78        89.40212
393.23        89.06255
393.67        88.41317
394.12        87.71041
394.57        88.22362
395.02        88.48045
395.47        88.61774
395.91        88.20836
396.36        87.98857
396.81        87.96572
397.26        87.72008
397.71        87.28149
398.15        86.85889
398.60        86.57535
399.05        86.22994
399.50        85.89265
399.95        85.85332
400.39        86.03456
400.84        85.92648
401.29        85.53197
401.74        85.23251
402.18        85.06434
402.63        84.80918
403.08        84.49467
403.53         84.2268
403.97        84.02624
404.42         83.9146
404.87        83.82582
405.32        83.70686
405.76        83.53815
406.21        83.19519
406.66        82.78443
407.11        82.83765
407.55        83.23253
408.00        83.06564
408.45        82.38469
408.90        81.90258
409.34        81.71658
409.79        81.69225
410.24         81.7002
410.68        81.68619
411.13        81.60351
411.58        81.57718
412.03        81.58556
412.47        81.53036
412.92        81.37635
413.37        81.17351
413.81        80.96348
414.26        80.86726
414.71        80.87902
415.15        80.99197
415.60        81.09961
416.05        81.08731
416.49        80.93716
416.94        80.68674
417.39        80.42907
417.83        80.30209
418.28        80.32983
418.73        80.44412
419.17        80.60284
419.62        80.74233
420.07        80.83859
420.51        80.91296
420.96        80.92363
421.41        80.79773
421.85        80.51529
422.30        80.01434
422.74        79.46115
423.19        79.52178
423.64        80.07916
424.08        80.36828
424.53         80.1908
424.98        80.09583
425.42        80.09686
425.87        79.61691
426.31        78.90511
426.76        78.96184
427.21        79.66353
427.65        79.84134
428.10        79.46345
428.54        79.41768
428.99        79.73743
429.44        79.94416
429.88        79.94393
430.33        79.79179
430.77        79.49816
431.22        79.34406
431.66        79.35941
432.11        79.48645
432.56        79.78489
433.00        80.07762
433.45        80.06496
433.89        80.17887
434.34        80.55106
434.78        78.86046
435.23        79.28703
435.67        79.28976
436.12        80.27063
436.57        80.23544
437.01         79.5611
437.46        79.10123
437.90        79.37114
438.35        80.47589
438.79        80.03709
439.24         80.1837
439.68        80.22467
440.13        80.13088
440.57         79.9684
441.02         80.2109
441.46        80.66144
441.91        80.44264
442.35        79.68113
442.80        79.52252
443.24        79.92551
443.69        80.19473
444.13        80.20654
444.58        80.52374
445.02         80.5287
445.47         80.6275
445.91        80.64671
446.36        80.58121
446.80        80.40674
447.24        80.47922
447.69        80.14753
448.13        80.31248
448.58        80.67738
449.02        80.75532
449.47        80.57271
449.91        80.54278
450.36        80.69926
450.80        80.75034
451.25        80.70525
451.69        80.68756
452.13        80.68512
452.58        80.59434
453.02        80.43534
453.47        80.28012
453.91         80.1274
454.36        80.09734
454.80        80.08687
455.24        79.71131
455.69        79.11662
456.13        78.84968
456.58        78.67429
457.02        78.95213
457.46        79.52708
457.91        79.41347
458.35        78.98859
458.79        78.72604
459.24        78.75765
459.68        78.59482
460.13        78.29681
460.57        77.98405
461.01        78.06461
461.46        77.66066
461.90        77.80905
462.34        77.65531
462.79        77.80419
463.23        77.68919
463.68        77.45083
464.12        77.23454
464.56        77.11729
465.01        77.23544
465.45        77.38235
465.89        77.44068
466.34        77.43508
466.78        77.07723
467.22        76.45208
467.67        77.12143
468.11        77.02444
468.55         77.0172
468.99        76.56347
469.44        76.41358
469.88        76.58186
470.32        76.67886
470.77        76.65889
471.21        76.59734
471.65        76.48221
472.10        76.32133
472.54        76.11649
472.98        75.94614
473.42        75.84602
473.87        75.69761
474.31        75.50826
474.75        75.69555
475.20        76.13989
475.64        75.94118
476.08        75.82546
476.52        75.60294
476.97         75.4166
477.41        75.69132
477.85         75.4838
478.29         75.0487
478.74        75.05489
479.18         75.0725
479.62        75.08025
480.06        75.09396
480.50        75.00452
480.95        75.05825
481.39        75.25542
481.83        74.88783
482.27        75.07646
482.72        75.11082
483.16        75.25315
483.60        74.87789
484.04        75.04644
484.48         74.8555
484.93        74.81203
485.37        74.69022
485.81        74.91893
486.25        75.15971
486.69        74.78983
487.14        74.13332
487.58        74.38765
488.02        74.66998
488.46        74.00944
488.90        74.79105
489.34        74.76868
489.79        74.43613
490.23        74.74797
490.67        74.45853
491.11        74.13641
491.55        74.04028
491.99        74.18833
492.43        74.22765
492.88         74.1244
493.32        74.12808
493.76        74.22374
494.20        74.33192
494.64        74.46457
495.08        74.55607
495.52        74.58068
495.96        74.77446
496.41        75.03465
496.85        74.65876
497.29        73.85712
497.73         73.9176
498.17        74.60409
498.61        74.68892
499.05        74.09904
499.49        73.86669
499.93        74.05764
500.37        73.97211
500.82        73.61258
501.26        73.76033
501.70        74.44819
502.14        73.65876
502.58        74.06149
503.02        74.01102
503.46        73.99085
503.90        73.99275
504.34        73.93304
504.78        73.93359
505.22        73.95048
505.66        73.82993
506.10        73.66399
506.54        73.70235
506.98        73.90567
507.42        74.01459
507.86        74.50201
508.30        73.80381
508.74        74.33855
509.18        74.15542
509.62        73.97115
510.06        73.82647
510.50        73.75333
510.94        73.70947
511.38         73.6605
511.82        73.61285
512.26        73.55767
512.70         73.5096
513.14        73.48405
513.58        73.47093
514.02        73.46771
514.46        73.52121
514.90        73.63433
515.34        73.55244
515.78        73.69267
516.22        73.71262
516.66        73.74114
517.10        73.77207
517.54         73.8082
517.98        73.84396
518.42        73.86515
518.86        73.86185
519.30        73.83264
519.74        73.78207
520.18        73.73129
520.62        73.71171
521.06        73.72984
521.50        73.77827
521.93         73.8335
522.37        73.84166
522.81        73.79791
523.25        73.71513
523.69        73.62447
524.13        73.57516
524.57        73.57731
525.01        73.61448
525.45        73.65588
525.89        73.65247
526.32        73.58808
526.76        73.49542
527.20        73.39576
527.64        73.33149
528.08        73.31265
528.52        73.31946
528.96         73.3413
529.40        73.36266
529.83        73.36766
530.27        73.37708
530.71        73.36689
531.15        73.30782
531.59         73.2028
532.03         73.0666
532.46        72.93369
532.90        72.88361
533.34        72.92448
533.78        73.02889
534.22        73.16219
534.66         73.2717
535.09        73.32787
535.53        73.36331
535.97        73.36282
536.41        73.32114
536.85         73.2441
537.28        73.13789
537.72        73.02808
538.16        72.94719
538.60        72.91048
539.04        72.92966
539.47        72.96912
539.91        73.01266
540.35        73.03194
540.79        73.04282
541.22         73.0444
541.66        73.04544
542.10        73.04283
542.54        73.03204
542.97        72.99718
543.41        72.95721
543.85        72.90296
544.29        72.84406
544.72        72.77567
545.16        72.72193
545.60        72.67114
546.04        72.62486
546.47        72.59375
546.91        72.57012
547.35        72.55474
547.79        72.63226
548.22        72.73045
548.66        72.64896
549.10        72.42179
549.53        72.37011
549.97        72.49341
550.41        72.52061
550.84        72.43567
551.28        72.43001
551.72        72.50457
552.15        72.44572
552.59         72.2411
553.03        72.30365
553.46        72.20969
553.90         71.8969
554.34        72.13634
554.77        72.21311
555.21        72.33944
555.65        72.35039
556.08        72.30115
556.52         72.1978
556.96        72.09968
557.39        72.19463
557.83         72.4332
558.27        72.46233
558.70        72.29156
559.14        72.18606
559.57        72.16313
560.01        72.22495
560.45        72.29758
560.88        72.18092
561.32        71.97713
561.75        71.85725
562.19        71.87393
562.63        72.03488
563.06        72.23592
563.50        72.11827
563.93        71.75681
564.37         71.7158
564.80         71.9582
565.24        72.14072
565.68         72.1936
566.11         72.1563
566.55        72.08982
566.98        72.08781
567.42        72.16859
567.85        72.19875
568.29         72.2273
568.72        72.11523
569.16        71.95539
569.60        71.93966
570.03        72.08167
570.47        71.81426
570.90        72.08422
571.34        71.83499
571.77        72.28185
572.21        71.78131
572.64        72.13651
573.08        71.69775
573.51        71.68729
573.95        71.58276
574.38        71.57845
574.82        71.48588
575.25        71.70012
575.69        71.42023
576.12        71.36909
576.56        72.02296
576.99         71.7072
577.42        72.09472
577.86         71.8595
578.29        72.00478
578.73        71.76398
579.16        71.51743
579.60        71.86892
580.03         71.9072
580.47        71.78775
580.90        71.88998
581.33        72.01744
581.77        72.12606
582.20         71.9577
582.64        71.86153
583.07        71.87666
583.51        71.52402
583.94        71.81776
584.37         71.7989
584.81        71.72073
585.24        71.76127
585.68        71.99433
586.11        71.72887
586.54        71.63049
586.98        71.74233
587.41        71.83804
587.85        71.61946
588.28        71.72812
588.71        71.36819
589.15        71.89505
589.58        71.65458
590.01        71.86168
590.45         72.1937
590.88        71.09555
591.31        71.13521
591.75         71.6442
592.18        71.73624
592.61        71.49228
593.05        71.58034
593.48        71.54677
593.91        71.36591
594.35        71.10239
594.78        71.48507
595.21        71.26149
595.65        71.56995
596.08        71.43394
596.51        71.66273
596.94         71.3076
597.38         71.2744
597.81        71.41456
598.24        71.37157
598.68        71.41499
599.11         71.4559
599.54         71.5723
599.97        71.41873
600.41        71.57776
600.84        71.56015
601.27        71.54662
601.70        71.16566
602.14         70.9233
602.57        71.13006
603.00        71.34904
603.43        71.43185
603.87         71.5146
604.30        71.04921
604.73        70.88811
605.16        71.24429
605.60        71.08262
606.03        71.28906
606.46        71.43122
606.89        71.28316
607.32         71.3158
607.76        71.44209
608.19        71.34512
608.62        71.25104
609.05        71.08663
609.48        71.23772
609.92        71.56985
610.35        71.49962
610.78        71.07082
611.21        70.73032
611.64        71.22496
612.07        71.30727
612.50        71.18081
612.94        71.12003
613.37        71.14242
613.80        71.28231
614.23        71.12433
614.66        71.11335
615.09        71.15967
615.52        71.11405
615.96         71.0603
616.39        70.59223
616.82        71.02138
617.25        70.81255
617.68        71.01049
618.11        71.01369
618.54        71.06476
618.97        71.19453
619.40        71.31236
619.84        71.46211
620.27        71.35201
620.70        71.12212
621.13        70.74684
621.56        70.95402
621.99        71.15295
622.42        70.92254
622.85        70.85442
623.28        70.79417
623.71        70.73459
624.14        70.52962
624.57        71.14016
625.00        70.73708
625.43        70.82486
625.86         70.7887
626.29        71.02333
626.72        70.72894
627.15        70.93877
627.58        70.86373
628.01        70.86369
628.44        70.86086
628.87        70.73016
629.30        70.91835
629.73        70.55788
630.16        70.35184
630.59         70.5154
631.02        70.75326
631.45        71.06628
631.88         71.2339
632.31          71.241
632.74        70.81745
633.17        70.75419
633.60        70.60086
634.03        70.60388
634.46        70.71227
634.89         70.8633
635.32        70.92703
635.75        70.86343
636.18        70.75862
636.61        70.65039
637.04        70.51332
637.47        70.40749
637.89        70.50692
638.32        70.73544
638.75        70.84558
639.18        70.80645
639.61        70.75291
640.04        70.71275
640.47        70.68243
640.90         70.6823
641.33        70.70201
641.76         70.7089
642.18         70.8063
642.61        70.70283
643.04        70.64541
643.47        70.57816
643.90        70.53975
644.33        70.53593
644.76        70.55677
645.18        70.58324
645.61        70.56897
646.04        70.51018
646.47        70.42138
646.90        70.32497
647.33        70.27203
647.75        70.27973
648.18        70.29352
648.61        70.30562
649.04        70.41631
649.47        70.57706
649.89        70.51462
650.32        70.27748
650.75        70.29807
651.18        70.53799
651.61        70.45635
652.03        70.05918
652.46        69.98478
652.89        70.30493
653.32        70.14077
653.74        69.81726
654.17        70.65103
654.60        70.23143
655.03        70.30348
655.46        69.71451
655.88        70.43892
656.31        71.93749
656.74        71.63964
657.16        70.37978
657.59        69.88281
658.02        70.22609
658.45        70.53157
658.87         71.3122
659.30        70.87897
659.73        70.08237
660.15        70.39043
660.58        70.17933
661.01        70.39482
661.44        70.40943
661.86        70.41511
662.29        70.37613
662.72        70.22514
663.14        70.06654
663.57        70.12254
664.00        70.35944
664.42        70.44769
664.85        70.37323
665.27        70.32924
665.70        70.33204
666.13         70.3195
666.55        70.29996
666.98        70.28625
667.41        70.27499
667.83        70.25752
668.26        70.22499
668.69        70.19221
669.11        70.17135
669.54        70.17482
669.96        70.20954
670.39        70.25007
670.82        70.30251
671.24        70.37786
671.67        70.45877
672.09        70.52877
672.52        70.57943
672.94        70.50759
673.37        70.36116
673.80        70.31432
674.22        70.37866
674.65        70.36797
675.07        70.29797
675.50        70.26586
675.92         70.2767
676.35        70.26971
676.77        70.24801
677.20        70.22781
677.62        70.22208
678.05        70.23423
678.47        70.26342
678.90        70.30905
679.32         70.3617
679.75         70.4235
680.17        70.48998
680.60        70.56894
681.02        70.62162
681.45        70.60127
681.87         70.5222
682.30        70.28832
682.72        70.01015
683.15        70.11089
683.57        70.51283
684.00        70.54307
684.42        70.24693
684.85        70.24578
685.27        70.53947
685.70        70.76389
686.12        70.85509
686.54        70.92554
686.97        70.94571
687.39        70.86532
687.82        70.70879
688.24        70.55602
688.66         70.5006
689.09         70.4472
689.51        70.43502
689.94        70.45157
690.36         70.4969
690.78        70.57061
691.21        70.63264
691.63        70.60989
692.06        70.49483
692.48        70.29929
692.90        70.08931
693.33        69.96902
693.75        69.96459
694.17        70.05186
694.60        70.18418
695.02        70.29168
695.44        70.35112
695.87        70.43375
696.29        70.52879
696.71        70.57868
697.14        70.55885
697.56        70.49779
697.98        70.42107
698.41        70.41562
698.83        70.46636
699.25        70.57415
699.68        70.69153
700.10        70.75506
700.52        70.72593
700.94        70.80526
701.37        70.66482
701.79         70.6043
702.21        70.52242
702.64        70.43663
703.06        70.35401
703.48        70.31487
703.90        70.33317
704.33        70.38794
704.75        70.46935
705.17         70.5367
705.59        70.57787
706.01        70.57529
706.44         70.5421
706.86        70.64043
707.28        70.67986
707.70        70.77344
708.12         70.8478
708.55        70.92032
708.97         70.9516
709.39        70.84515
709.81        70.65056
710.23        70.56701
710.66        70.62174
711.08        70.73367
711.50        70.84192
711.92        70.90733
712.34        70.91309
712.76        70.87466
713.19        70.80779
713.61        70.78818
714.03        70.81239
714.45        70.85888
714.87        70.92239
715.29        70.99503
715.71        71.06905
716.13        71.15141
716.56        71.19945
716.98        71.21648
717.40        71.17649
717.82        71.08778
718.24        70.99657
718.66        70.98045
719.08        71.05155
719.50        71.18069
719.92        71.31639
720.34        71.37312
720.76        71.32959
721.19        71.21079
721.61        71.05845
722.03        70.90879
722.45        70.78417
722.87        70.67254
723.29        70.60284
723.71        70.61965
724.13        70.72752
724.55        70.92091
724.97        71.13581
725.39        71.26332
725.81        71.27682
726.23        71.19684
726.65        71.09974
727.07        71.11428
727.49        71.26517
727.91        71.50943
728.33        71.75627
728.75        71.85448
729.17        71.76841
729.59        71.55357
730.01        71.29537
730.43        71.13134
730.85        71.09953
731.27        71.15012
731.69        71.25134
732.10        71.35625
732.52        71.43442
732.94          71.549
733.36        71.66364
733.78        71.67746
734.20        71.58315
734.62        71.67344
735.04        71.09049
735.46        71.55495
735.88         72.0369
736.30        71.89892
736.72        71.48592
737.13        71.25391
737.55        71.39215
737.97        71.52706
738.39        71.60387
738.81        71.59007
739.23        71.48997
739.65         71.4959
740.06        71.57201
740.48        71.58498
740.90        71.50027
741.32        71.48341
741.74        71.45055
742.16        71.49772
742.57        71.60246
742.99        71.74345
743.41        71.88553
743.83        71.95744
744.25        71.94189
744.67        71.85047
745.08        71.73804
745.50        71.65529
745.92        71.64076
746.34        71.68551
746.75        71.74307
747.17        71.74788
747.59        71.68724
748.01        71.53043
748.42        71.36774
748.84        71.42504
749.26        71.65587
749.68        71.84926
750.09        71.94518
750.51        71.83808
750.93        71.63526
751.35         71.8761
751.76        72.47636
752.18        72.64265
752.60        72.29738
753.01        72.44396
753.43        72.07094
753.85        71.95981
754.27        71.82777
754.68        71.73212
755.10        71.67316
755.52        71.66054
755.93        71.71356
756.35        71.82831
756.77        71.96163
757.18        72.13657
757.60        72.34755
758.02        72.33867
758.43        72.15972
758.85         72.6217
759.26        72.68669
759.68        72.73242
760.10          72.722
760.51        71.47582
760.93        71.58522
761.34        71.54676
761.76        72.47227
762.18        72.83153
762.59        72.73477
763.01        72.62745
763.42        72.65871
763.84        72.67295
764.26        72.72405
764.67        72.99255
765.09        73.34647
765.50        73.20799
765.92        72.69038
766.33        72.40298
766.75        72.37576
767.16         72.3324
767.58        72.24143
768.00         72.4044
768.41        72.73463
768.83        72.82726
769.24        72.66977
769.66        72.44355
770.07        72.22808
770.49        72.25352
770.90        72.50037
771.32        72.62292
771.73        72.61842
772.15        72.70284
772.56        72.87493
772.97        73.04515
773.39        73.14025
773.80        73.03564
774.22        72.78222
774.63        72.79861
775.05        73.03621
775.46         73.1367
775.88         73.0485
776.29        73.04179
776.70        73.12343
777.12        73.19044
777.53        73.26244
777.95        73.35211
778.36        73.45309
778.77        73.53279
779.19        73.57982
779.60        73.60035
780.02        73.61516
780.43        73.65755
780.84        73.70245
781.26         73.8298
781.67        74.04836
782.09        73.94935
782.50        73.50756
782.91        74.06239
783.33        73.66887
783.74        73.72432
784.15        73.64029
784.57        73.51183
784.98        73.38788
785.39        73.49551
785.81        73.77512
786.22        73.80017
786.63        73.61053
787.04        73.64064
787.46        73.91373
787.87        74.16451
788.28        74.33167
788.70        74.45472
789.11        74.49989
789.52        74.37892
789.93        74.18352
790.35        74.24604
790.76        74.54066
791.17        74.57465
791.58        74.33816
792.00        74.28232
792.41        74.45117
792.82         74.3727
793.23        74.15378
793.65        74.52814
794.06        75.31067
794.47        75.43545
794.88        74.95837
795.29        74.59287
795.71        74.83249
796.12        74.64271
796.53        74.22617
796.94        74.36272
797.35        74.94656
797.76        74.99909
798.18        74.57769
798.59        74.53708
799.00        74.90816
799.41        75.20193
799.82        75.30654
800.23        75.28432
800.64        75.11677
801.06        74.77877
801.47        74.42258
801.88        74.22265
802.29        74.23307
802.70        74.40575
803.11        74.67185
803.52        74.90118
803.93        75.04626
804.34        75.14526
804.75        75.18821
805.17        75.17407
805.58         75.1478
805.99         74.9987
806.40        74.79207
806.81        74.84973
807.22         75.0852
807.63        75.02059
808.04        74.70684
808.45        74.62968
808.86         74.8198
809.27        74.99091
809.68        75.09553
810.09        75.18816
810.50        75.24995
810.91        75.25456
811.32        75.22298
811.73        75.21119
812.14        75.23345
812.55        75.23731
812.96        75.20183
813.37        75.20131
813.78        75.18448
814.19        74.92889
814.60        74.54314
815.01        74.39954
815.42        74.53893
815.83        74.78603
816.24        75.07402
816.65        75.34586
817.05        75.55199
817.46        75.66079
817.87        75.72344
818.28        75.77602
818.69        75.83355
819.10        75.87968
819.51        75.91539
819.92        75.94662
820.33        75.97331
820.74        75.99792
821.14        76.01045
821.55        76.02438
821.96         76.0215
822.37        76.00501
822.78        75.96864
823.19        75.90237
823.60        75.80989
824.00        75.71963
824.41        75.60853
824.82        75.52879
825.23        75.49205
825.64        75.49662
826.04        75.55444
826.45        75.64049
826.86        75.75449
827.27        75.89246
827.68        76.04124
828.08        76.21127
828.49        76.32738
828.90        76.42307
829.31        76.49292
829.72        76.53571
830.12        76.57591
830.53        76.56272
830.94        76.53104
831.35         76.5056
831.75        76.51196
832.16        76.49423
832.57        76.45379
832.97        76.35289
833.38        76.18604
833.79        75.99601
834.20        75.80582
834.60        75.63705
835.01        75.51422
835.42        75.41666
835.82        75.40732
836.23        75.51102
836.64        75.74882
837.04        76.12306
837.45        76.47507
837.86        76.64737
838.26        76.61582
838.67        76.41049
839.08        76.17098
839.48        76.11714
839.89        76.30204
840.29        76.64872
840.70        77.05787
841.11        77.37505
841.51         77.5638
841.92        77.63261
842.33        77.60896
842.73        77.53205
843.14        77.37796
843.54        77.16708
843.95        76.93463
844.35        76.76605
844.76        76.67085
845.17        76.63831
845.57        76.64655
845.98        76.60512
846.38        76.51797
846.79        76.39269
847.19        76.25156
847.60        76.07813
848.00         75.9046
848.41        75.69195
848.81        75.52953
849.22        75.48624
849.62        75.61091
850.03        75.86733
850.43        76.15725
850.84        76.23712
851.24        76.10611
851.65        75.74629
852.05        75.41077
852.46        75.44173
852.86        75.89717
853.27        76.64945
853.67        77.31614
854.07        77.57906
854.48        77.34254
854.88        76.74915
855.29        75.93968
855.69        75.41291
856.10        75.25108
856.50        75.42152
856.90        75.70609
857.31        75.77839
857.71        75.59999
858.12        75.22268
858.52        74.85348
858.92        74.69205
859.33        74.77391
859.73        75.04914
860.13        75.34914
860.54        75.41638
860.94        75.21477
861.34         74.8059
861.75        74.29153
862.15         73.8867
862.55        73.63319
862.96        73.49305
863.36         73.4297
863.76           73.37
864.17        73.28143
864.57        73.20221
864.97        73.17126
865.38        73.22095
865.78        73.40044
866.18        73.67175
866.58        73.93004
866.99        74.01337
867.39        73.91739
867.79         73.6547
868.19        73.38189
868.60        73.30316
869.00        73.44419
869.40        73.76897
869.80        74.13013
870.21        74.25713
870.61        74.14899
871.01        73.84995
871.41        73.48774
871.81         73.2317
872.22        73.10564
872.62        73.08994
873.02        73.18285
873.42        73.36933
873.82        73.61737
874.22         73.9239
874.63        74.24873
875.03        74.50411
875.43        74.68293
875.83        74.78912
876.23        74.83933
876.63        74.87807
877.03         74.9088
877.44        74.89333
877.84        74.84033
878.24        74.73174
878.64        74.57027
879.04        74.39441
879.44        74.18246
879.84        73.88468
880.24        73.50937
880.64        73.07723
881.04        72.70495
881.44        72.59119
881.84        72.77673
882.24        73.19509
882.65        73.65884
883.05        73.95442
883.45        73.96668
883.85         73.7705
884.25        73.48441
884.65        73.29106
885.05        73.24493
885.45         73.2925
885.85         73.3917
886.25         73.4763
886.65        73.52362
887.05        73.56575
887.45        73.61696
887.85        73.69057
888.25        73.78362
888.65        73.87395
889.04        73.94095
889.44        74.00088
889.84        74.03233
890.24        74.03542
890.64        74.00198
891.04        73.92004
891.44         73.8024
891.84         73.6749
892.24        73.56107
892.64        73.49286
893.04        73.48412
893.44        73.52261
893.83        73.65085
894.23        73.86734
894.63        74.17461
895.03         74.5403
895.43        74.86986
895.83        75.01427
896.23        74.94443
896.63        74.71578
897.02        74.40585
897.42        74.17049
897.82        74.04676
898.22        74.01731
898.62        74.06704
899.01        74.17937
899.41        74.31204
899.81        74.45932
900.21        74.62804
900.61        74.82912
901.00        75.02865
901.40         75.2215
901.80        75.29506
902.20        75.09123
902.59        74.62299
902.99        73.96667
903.39        73.31461
903.79        72.96551
904.18        72.99844
904.58        73.32106
904.98        73.83085
905.38        74.38239
905.77        74.89381
906.17         75.3915
906.57        75.79494
906.96        75.99377
907.36        75.93446
907.76        75.65046
908.15        75.23636
908.55        74.79955
908.95         74.4371
909.34        74.12877
909.74        73.93691
910.14        73.87263
910.53         73.9383
910.93        74.12756
911.33        74.38168
911.72        74.58566
912.12        74.68337
912.52        74.69955
912.91        74.67045
913.31        74.70258
913.70         74.8065
914.10         74.9278
914.49        75.05391
914.89        75.09533
915.29        75.04933
915.68        74.95566
916.08        74.81535
916.47        74.61835
916.87        74.40202
917.26        74.15766
917.66        73.98391
918.05        73.99836
918.45        74.19884
918.84        74.55933
919.24        74.93339
919.64        75.15654
920.03        75.20299
920.42        75.13526
920.82        75.00759
921.21        74.90292
921.61        74.83845
922.00        74.76576
922.40        74.78327
922.79        75.13902
923.19        75.79304
923.58        76.70549
923.98        77.46455
924.37        77.50086
924.77          76.717
925.16        75.26644
925.55        73.67226
925.95        72.85217
926.34        73.06566
926.74         74.0463
927.13         75.3013
927.52        75.92931
927.92        75.72659
928.31        74.95602
928.70        74.05226
929.10        73.66846
929.49        73.96696
929.89        74.69493
930.28        75.57127
930.67        76.00321
931.07        75.80029
931.46          75.192
931.85        74.43665
932.24        73.95294
932.64        73.85757
933.03         74.0122
933.42        74.26708
933.82        74.38855
934.21        74.31116
934.60        74.13084
934.99        73.93321
935.39        73.82236
935.78        73.86687
936.17        74.00212
936.56        74.19467
936.96         74.3832
937.35        74.58731
937.74        74.80231
938.13        74.99432
938.53        75.12061
938.92        75.17599
939.31        75.12971
939.70        75.06222
940.09        75.11845
940.49         75.2877
940.88        75.56779
941.27        75.75912
941.66        75.55492
942.05        74.93391
942.44        74.03476
942.84        73.15049
943.23        72.70043
943.62        72.82907
944.01        73.39668
944.40        74.22256
944.79        74.96371
945.18        75.44868
945.57        75.73918
945.97        75.78949
946.36        75.62027
946.75        75.23797
947.14         74.6356
947.53        73.93984
947.92        73.40164
948.31        73.11504
948.70        73.05608
949.09        73.14281
949.48        73.20961
949.87        73.20822
950.26        73.18985
950.65        73.18948
951.04        73.26364
951.43        73.41766
951.82        73.59644
952.21        73.76375
952.60        73.87988
952.99         73.9146
953.38         73.8739
953.77        73.74117
954.16        73.48512
954.55        73.11939
954.94        72.67862
955.33        72.21309
955.72        71.80674
956.11        71.49275
956.50         71.2495
956.89         71.1106
957.28        71.11272
957.66        71.27601
958.05        71.58765
958.44        71.91045
958.83        72.02071
959.22        71.87046
959.61        71.47343
960.00        71.07278
960.39         71.0704
960.78        71.52519
961.16        72.35146
961.55         73.1037
961.94        73.11919
962.33        72.27055
962.72        70.84681
963.11        69.35616
963.49        68.52577
963.88        68.53928
964.27         69.1935
964.66        70.22494
965.04        71.16319
965.43        71.70847
965.82        72.00056
966.21        72.14114
966.60        72.31129
966.98        72.56876
967.37        72.78831
967.76        72.86663
968.15        72.63067
968.53        72.09517
968.92        71.40458
969.31        70.76135
969.69        70.41453
970.08        70.42869
970.47        70.73475
970.86        71.35482
971.24        72.31055
971.63        73.42559
972.02        74.62294
972.40        75.67044
972.79        76.13846
973.17        76.06219
973.56        75.47517
973.95        74.63803
974.33        74.00575
974.72        73.72704
975.11        73.68459
975.49        73.72039
975.88        73.57209
976.26        73.18176
976.65        72.68079
977.04        72.12016
977.42        71.54625
977.81        70.96458
978.19        70.30636
978.58        69.89412
978.96        70.22703
979.35        71.32518
979.74         73.0535
980.12        74.81345
980.51        75.41805
980.89        74.73164
981.28        72.97185
981.66        70.88843
982.05        69.92105
982.43        70.48232
982.82        72.07582
983.20        74.06232
983.59         75.2775
983.97        75.49761
984.35        75.05316
984.74        74.18279
985.12        73.30065
985.51        72.63197
985.89         72.0621
986.28        71.73882
986.66        71.98946
987.04        72.75855
987.43        73.91741
987.81        75.15356
988.20        75.76809
988.58        75.62365
988.96        74.95755
989.35        73.88375
989.73        72.68679
990.12        71.45274
990.50        69.99358
990.88        68.81481
991.27        68.99731
991.65        70.69516
992.03        73.49348
992.42        76.01094
992.80        76.82859
993.18        75.62689
993.56        72.60172
993.95        68.66261
994.33        66.30539
994.71        66.77464
995.10        69.03072
995.48        71.65968
995.86        73.08176
996.24        73.10896
996.63        72.15224
997.01        70.79148
997.39        70.14861
997.77         70.7022
998.15        72.04704
998.54        73.38403
998.92        73.69176
999.30        72.78416
999.68        70.99301
1000.06         69.1369
1000.45        68.64325
1000.83        69.94046
1001.21        72.42349
1001.59        75.10723
1001.97        76.58845
1002.35        76.53925
1002.73        75.39561
1003.12        73.57674
1003.50        71.95018
1003.88        71.06556
1004.26        70.57953
1004.64        70.60042
1005.02        71.28123
1005.40        72.52058
1005.78        74.39116
1006.16         76.1416
1006.54        76.35298
1006.92        74.70505
1007.30        71.54476
1007.69         68.1579
1008.07        66.65614
1008.45        67.63589
1008.83         70.4439
1009.21        73.72253
1009.59         75.4949
1009.97        75.24051
1010.35        73.34358
1010.73         70.6428
1011.11        69.29287
1011.49        70.26217
1011.86        72.85818
1012.24        75.66452
1012.62        77.04255
1013.00        76.70626
1013.38        75.36906
1013.76        73.64316
1014.14        72.48626
1014.52         72.2625
1014.90        72.52752
1015.28        73.41473
1015.66        75.15804
1016.04        77.50952
1016.41        80.42912
1016.79        82.62028
1017.17        82.54003
1017.55        80.09402
1017.93        75.89381
1018.31         71.3567
1018.69        68.73633
1019.06        68.72385
1019.44        70.82423
1019.82        74.30415
1020.20        77.35941
1020.58        78.97206
1020.95        79.44614
1021.33        79.08607
1021.71        78.27932
1022.09        77.19286
1022.46        75.61262
1022.84        73.56792
1023.22        71.06946
1023.60        68.17915
1023.97        64.81255
1024.35        61.69845
1024.73        59.86936
