SpectraSmart Spectrum 2.9.0.0
--------- Device Information -----------
Spectrum Name :  反射率_0
Saving Time :  2024/04/28 00:08:28
Spectro-Module Model Name : SE2030-DUVN
Spectro-Module Serial Number : OS361AC55029948
Wavelength Start : 200
Wavelength End : 1025
Wavelength Unit : Wavelength(nm)
Spectrum Unit : Reflectance(%)
-----------Spectrum Setting ------------
Integration Time : 20ms
Average : 10
Boxcar : 0
Background removal :  enabled
linearity correction :  enabled
SC :  disabled
Intensity correction :  disabled
DWT denoise :  enabled
savitzky-golay :  disabled
FFT :  disabled
Running average :  disabled
Kalman :  disabled
High pass :  disabled
---------------BEGIN--------------------
Wavelength(nm)             Reflectance(%)
200.29               0
200.75        71.29818
201.21        109.2932
201.67        129.6414
202.13         130.615
202.58        119.7878
203.04        103.0549
203.50         85.3158
203.96        75.13403
204.42        73.95274
204.88        77.20812
205.34          82.794
205.80        89.89055
206.26        98.96842
206.72        113.0323
207.18        131.2429
207.64        136.9711
208.10        122.1529
208.55        101.2209
209.01         85.0518
209.47        74.22512
209.93        64.12421
210.39        46.69257
210.85        2.063226
211.31       -42.89176
211.77        26.17699
212.23        67.68941
212.69        81.60584
213.14        85.52103
213.60        84.25252
214.06        78.66705
214.52        66.91326
214.98        55.12998
215.44        53.73014
215.90        57.69166
216.36        62.41098
216.81        66.13607
217.27        68.93749
217.73        71.91707
218.19        73.95813
218.65        72.62887
219.11        67.37284
219.57        58.42232
220.02          47.783
220.48        42.48169
220.94        44.67345
221.40        51.35639
221.86        59.33802
222.32        65.44485
222.77        69.13086
223.23        71.45366
223.69        72.14363
224.15        70.65005
224.61        67.24859
225.06        61.91025
225.52        56.58381
225.98         54.8997
226.44        57.03256
226.90         60.7023
227.36        63.84501
227.81        64.83022
228.27        63.80124
228.73        61.36275
229.19        57.80056
229.65        53.94371
230.10        50.46497
230.56        47.60377
231.02        45.65051
231.48        45.00471
231.93        45.49862
232.39        47.01983
232.85        49.11707
233.31        51.16899
233.77        52.92561
234.22        54.50105
234.68        55.69461
235.14        56.40584
235.60        56.67785
236.05        56.43788
236.51        56.10903
236.97        56.53727
237.43        57.97943
237.88         60.3943
238.34        62.71569
238.80        64.15551
239.26        64.59441
239.71        63.99671
240.17        62.77162
240.63        63.68662
241.08        67.95702
241.54        72.74236
242.00        75.95808
242.46        77.23074
242.91        77.15372
243.37        75.45649
243.83        71.59904
244.28        68.28894
244.74        71.98547
245.20        79.97776
245.66        85.88898
246.11         88.9277
246.57        90.68112
247.03        92.05683
247.48        93.01523
247.94        92.66972
248.40        90.93555
248.85        88.66514
249.31        87.93596
249.77        90.11978
250.22        93.95058
250.68        98.03394
251.14        101.3546
251.59        103.3266
252.05        104.1752
252.51        103.9641
252.96         101.642
253.42        96.58418
253.88        90.38943
254.33        85.26447
254.79        82.44699
255.25        80.91929
255.70        79.94424
256.16        79.89577
256.62        80.67379
257.07        82.24956
257.53        84.43386
257.99        86.20821
258.44        86.81208
258.90         86.1946
259.35        84.17589
259.81        81.75779
260.27        79.02923
260.72         76.1992
261.18        73.87263
261.63        71.67264
262.09        69.98228
262.55        68.71227
263.00        67.66389
263.46        66.92695
263.91        66.20188
264.37        65.51514
264.83        64.75185
265.28        63.91029
265.74        63.04857
266.19        61.95695
266.65        60.73366
267.11        59.36311
267.56        57.99209
268.02        56.97938
268.47        56.32991
268.93        55.95752
269.38        55.64601
269.84         55.0919
270.30        54.20441
270.75        53.07425
271.21         51.8165
271.66        50.55416
272.12        49.36704
272.57        48.17136
273.03        47.02342
273.48        45.91835
273.94        44.92287
274.39        44.01797
274.85        43.20766
275.31        42.37498
275.76        41.48467
276.22        40.60529
276.67        39.76514
277.13        39.13233
277.58        38.65329
278.04        38.31933
278.49        37.95992
278.95         37.4673
279.40        36.76281
279.86        35.96806
280.31        35.14264
280.77        34.51115
281.22        34.06594
281.68        33.79985
282.13        33.58468
282.59        33.31096
283.04        32.92837
283.50        32.49792
283.95        32.09491
284.41         31.8805
284.86        31.85759
285.32         31.9978
285.77        32.15101
286.22        32.15547
286.68        31.99983
287.13        31.69343
287.59        31.40994
288.04        31.32689
288.50        31.50331
288.95        31.83923
289.41        32.18404
289.86        32.25521
290.32        32.04427
290.77        31.65262
291.22        31.29218
291.68        31.26491
292.13        31.63186
292.59        32.32354
293.04        33.19774
293.50         34.0591
293.95        34.84006
294.40        35.61731
294.86        36.47963
295.31        37.55135
295.77        38.86983
296.22        40.36275
296.68        41.95931
297.13        43.52091
297.58        45.00549
298.04        46.45189
298.49          47.897
298.95        49.44864
299.40        51.12992
299.85        52.91583
300.31        54.80178
300.76        56.71716
301.21         58.6291
301.67        60.56018
302.12        62.43563
302.58        64.23995
303.03         65.9495
303.48        67.61324
303.94        69.33921
304.39        71.19902
304.84        73.23704
305.30        75.42564
305.75        77.65556
306.20        79.85987
306.66        82.01778
307.11        84.08118
307.57        86.07272
308.02        87.89951
308.47        89.57249
308.93        91.12366
309.38        92.52977
309.83        93.87107
310.29        95.20423
310.74         96.5001
311.19        97.81183
311.65        99.18546
312.10        100.5744
312.55        101.9542
313.00        103.2632
313.46        104.4195
313.91        105.3866
314.36         106.205
314.82        106.8868
315.27         107.451
315.72        107.9235
316.18        108.3259
316.63        108.7002
317.08        109.1532
317.53        109.7044
317.99        110.3171
318.44        110.9479
318.89        111.4892
319.35        111.9079
319.80        112.2512
320.25        112.5206
320.70        112.7296
321.16        112.8892
321.61        113.0136
322.06        113.1727
322.51        113.4931
322.97        113.9732
323.42        114.6123
323.87        115.2715
324.32        115.7386
324.78        115.9401
325.23        115.9748
325.68        115.9307
326.13         115.994
326.59        116.1973
327.04        116.5389
327.49        116.9452
327.94        117.3341
328.39        117.6756
328.85        117.9674
329.30        118.2926
329.75        118.6064
330.20        118.9112
330.66        119.1703
331.11        119.4714
331.56        119.8359
332.01        120.2838
332.46        120.8065
332.92        121.3276
333.37        121.8824
333.82        122.3911
334.27        122.8465
334.72        123.2678
335.17        123.6939
335.63        124.1066
336.08        124.5653
336.53        124.9867
336.98        125.2839
337.43        125.4553
337.88        125.5395
338.34        125.6502
338.79        126.0288
339.24        126.6988
339.69         127.592
340.14        128.5472
340.59        129.2998
341.05        129.7755
341.50        130.0554
341.95        130.2435
342.40        130.5288
342.85        130.9678
343.30        131.4909
343.75         132.047
344.20        132.5581
344.66        132.9973
345.11        133.3947
345.56        133.7413
346.01         134.009
346.46        134.2059
346.91        134.3428
347.36         134.476
347.81        134.6973
348.26        135.0203
348.72        135.4125
349.17         135.812
349.62        136.1447
350.07         136.372
350.52        136.5064
350.97        136.5443
351.42        136.4813
351.87        136.3342
352.32        136.1233
352.77        135.8701
353.22        135.6114
353.67        135.3565
354.13        135.0931
354.58        134.8273
355.03        134.6334
355.48        134.4936
355.93        134.3748
356.38        134.1326
356.83        133.5413
357.28        132.5834
357.73        131.3667
358.18        130.0806
358.63         129.013
359.08        128.2525
359.53        127.7267
359.98         127.354
360.43        126.9998
360.88        126.5938
361.33        126.1434
361.78        125.6453
362.23        125.0854
362.68        124.4513
363.13        123.7564
363.58        122.9454
364.03        121.8447
364.48        120.6399
364.93        119.2588
365.38        117.9096
365.83        116.8285
366.28        116.0643
366.73        115.5428
367.18        115.1208
367.63        114.5607
368.08        113.7957
368.53        112.9031
368.98        111.9511
369.43        111.0525
369.88         110.252
370.33        109.5053
370.78        108.8259
371.23        108.2434
371.68        107.7462
372.13        107.3246
372.58        106.9112
373.03         106.391
373.48        105.7362
373.93         104.976
374.38        104.1646
374.83        103.3914
375.28        102.6856
375.72        102.0071
376.17         101.374
376.62         100.739
377.07        100.0905
377.52        99.43437
377.97        98.79061
378.42        98.18638
378.87        97.62852
379.32        97.12075
379.77        96.61317
380.22        96.02344
380.67        95.34554
381.11        94.61216
381.56         93.9202
382.01        93.44493
382.46        93.22055
382.91        93.17932
383.36        93.19443
383.81        93.06817
384.26        92.74204
384.71        92.27142
385.15        91.70207
385.60        91.17324
386.05         90.7086
386.50        90.27679
386.95        89.87341
387.40        89.50178
387.85        89.16122
388.29        88.80475
388.74        88.52174
389.19        88.22734
389.64        87.90154
390.09        87.52843
390.54        87.12022
390.98        86.71526
391.43        86.39643
391.88        86.07352
392.33        85.69692
392.78        85.49828
393.23        85.41056
393.67        84.71959
394.12        83.72845
394.57        84.02753
395.02        84.24796
395.47        84.37619
395.91        83.98647
396.36        83.77959
396.81         83.7545
397.26        83.53797
397.71        83.16117
398.15        82.79388
398.60        82.54253
399.05        82.24829
399.50         81.9652
399.95        81.86337
400.39        81.89973
400.84        81.81545
401.29        81.57036
401.74        81.19685
402.18        80.76291
402.63        80.40131
403.08        80.16964
403.53        79.97459
403.97        79.82952
404.42        79.86548
404.87        79.98502
405.32        79.99084
405.76        79.83442
406.21        79.53609
406.66        79.20399
407.11        79.08666
407.55        79.18846
408.00         79.2914
408.45         79.3086
408.90        78.99493
409.34        78.45771
409.79        78.28449
410.24        78.44987
410.68        78.45587
411.13        78.28574
411.58        78.26423
412.03        78.36488
412.47        78.38583
412.92         78.2802
413.37        78.12775
413.81        77.96118
414.26        77.88764
414.71        77.90319
415.15        77.99323
415.60          78.078
416.05         78.0945
416.49        78.02737
416.94        77.89072
417.39        77.73554
417.83        77.63037
418.28         77.5928
418.73        77.59892
419.17        77.62688
419.62        77.64516
420.07        77.64424
420.51        77.62481
420.96         77.6144
421.41        77.60574
421.85        77.56764
422.30        77.51883
422.74        77.44026
423.19        77.49504
423.64        77.63678
424.08        77.72723
424.53        77.67652
424.98         77.6497
425.42        77.67567
425.87        77.51675
426.31        77.27308
426.76        77.44164
427.21        77.90356
427.65         77.8931
428.10        77.46583
428.54        77.36103
428.99        77.63566
429.44         77.9237
429.88        78.08963
430.33        78.02215
430.77        77.72507
431.22        77.59731
431.66        77.65056
432.11        77.73482
432.56        77.92448
433.00        78.08071
433.45        77.94446
433.89        78.21114
434.34        78.87029
434.78        77.33307
435.23        76.73006
435.67        77.47911
436.12        78.43479
436.57        78.85998
437.01        78.32033
437.46        78.00836
437.90        78.44089
438.35        79.04275
438.79        78.62035
439.24        78.55501
439.68        78.52808
440.13        78.40953
440.57        78.31328
441.02        78.81252
441.46        79.62708
441.91        79.70712
442.35        79.14778
442.80        78.90281
443.24        79.52713
443.69        79.52995
444.13        79.13107
444.58        79.01453
445.02        79.17937
445.47        79.35852
445.91        79.49713
446.36        79.61062
446.80        79.64593
447.24        79.67709
447.69        79.80183
448.13        79.61887
448.58        80.05721
449.02        80.10488
449.47        79.63951
449.91        79.54053
450.36        79.71054
450.80        79.85107
451.25        79.91119
451.69        79.94981
452.13        79.94139
452.58        79.80708
453.02        79.60088
453.47        79.43845
453.91        79.32642
454.36        79.36041
454.80        79.43507
455.24        79.06145
455.69        78.50088
456.13         78.1721
456.58        78.26624
457.02        78.17194
457.46        78.15064
457.91        78.68665
458.35        77.89702
458.79        77.79031
459.24        77.79313
459.68        77.70571
460.13        77.55357
460.57        77.28803
461.01        77.30196
461.46        77.26868
461.90        76.94867
462.34        77.33148
462.79         77.1731
463.23        77.29496
463.68        77.29131
464.12        77.07001
464.56        76.74287
465.01        76.63809
465.45         76.6311
465.89        76.74509
466.34        76.93002
466.78        76.47911
467.22        75.46296
467.67        76.20454
468.11        75.78595
468.55        75.92775
468.99         75.7289
469.44        75.65571
469.88        75.69083
470.32        75.64252
470.77        75.54105
471.21        75.46777
471.65        75.42719
472.10        75.40833
472.54         75.3726
472.98        75.32014
473.42        75.25301
473.87        75.13427
474.31        74.95882
474.75        74.97624
475.20         75.1125
475.64        74.95816
476.08        74.55846
476.52        74.42002
476.97        74.58051
477.41        74.43501
477.85        74.56876
478.29         74.4783
478.74        74.82269
479.18        74.07885
479.62        74.56348
480.06        74.48986
480.50        74.49384
480.95        74.58307
481.39        74.68293
481.83        74.63043
482.27        74.70558
482.72          74.348
483.16        74.42731
483.60        74.29131
484.04        74.13033
484.48        74.18279
484.93        74.65582
485.37        74.09435
485.81        74.70294
486.25        75.01033
486.69        75.83563
487.14        74.86925
487.58         74.0458
488.02        74.90288
488.46        74.63363
488.90        74.22928
489.34        74.02805
489.79        73.65707
490.23        73.67059
490.67        73.61693
491.11        73.55452
491.55        73.51394
491.99        73.47409
492.43        73.43977
492.88        73.39674
493.32        73.34486
493.76        73.28694
494.20        73.29734
494.64        73.39713
495.08        73.48872
495.52        73.56433
495.96        73.79769
496.41        74.09087
496.85        73.96616
497.29        73.52733
497.73        73.46366
498.17        73.87293
498.61        73.87751
499.05        73.51952
499.49        73.33235
499.93        73.37197
500.37          73.381
500.82        73.33688
501.26        73.23734
501.70        73.69785
502.14        72.94379
502.58        73.70155
503.02        73.39503
503.46        73.39135
503.90        73.17648
504.34        73.01548
504.78        73.01865
505.22        73.14843
505.66        73.30563
506.10        73.43799
506.54         73.4807
506.98        73.38514
507.42        73.55981
507.86        73.26106
508.30        73.20316
508.74        73.17619
509.18        73.17294
509.62        73.17167
510.06        73.15495
510.50        73.12343
510.94        73.08166
511.38        73.04201
511.82         73.0179
512.26        73.00986
512.70        73.01147
513.14        73.01913
513.58        73.00281
514.02        72.96107
514.46        72.94727
514.90        72.96957
515.34        72.82012
515.78        72.93051
516.22         72.7994
516.66        72.85172
517.10         72.8988
517.54        73.01818
517.98        73.17654
518.42        73.31071
518.86          73.311
519.30         73.1563
519.74          72.937
520.18        72.70261
520.62        72.44293
521.06         72.2433
521.50        72.28179
521.93        72.50451
522.37        72.75552
522.81        72.75138
523.25        72.84142
523.69        72.94328
524.13        72.98753
524.57        72.97066
525.01        72.90722
525.45         72.8241
525.89        72.76404
526.32        72.73386
526.76        72.73731
527.20        72.74929
527.64        72.73717
528.08        72.69305
528.52        72.62688
528.96        72.56203
529.40        72.53297
529.83        72.54033
530.27        72.58793
530.71        72.63695
531.15        72.63852
531.59        72.58349
532.03        72.48492
532.46        72.38126
532.90        72.35671
533.34        72.41872
533.78        72.54181
534.22         72.6665
534.66        72.70346
535.09        72.62673
535.53        72.48604
535.97        72.32783
536.41        72.24281
536.85        72.25261
537.28        72.33056
537.72        72.42972
538.16        72.46423
538.60        72.41803
539.04        72.33925
539.47         72.2448
539.91        72.19927
540.35        72.19938
540.79        72.23752
541.22        72.29049
541.66        72.33318
542.10        72.35121
542.54        72.35111
542.97        72.33186
543.41        72.33358
543.85        72.34696
544.29        72.36587
544.72        72.36211
545.16        72.33079
545.60        72.26015
546.04        72.15792
546.47        72.05244
546.91         72.0127
547.35        72.04422
547.79        72.08907
548.22        72.10348
548.66        72.15243
549.10        72.18088
549.53        72.07349
549.97        71.88433
550.41        71.78958
550.84         71.7963
551.28        71.87907
551.72        72.00706
552.15        71.96111
552.59        71.74194
553.03        72.01945
553.46        71.65312
553.90         71.6992
554.34        71.79868
554.77         71.9664
555.21        72.12434
555.65        72.13908
556.08        71.92529
556.52        71.80075
556.96        71.76862
557.39        71.62564
557.83        71.44187
558.27        71.56757
558.70        71.95939
559.14        71.83393
559.57        71.88908
560.01        71.79297
560.45        71.76422
560.88        71.56937
561.32        71.35349
561.75        71.39444
562.19        71.65801
562.63        71.82372
563.06        71.82304
563.50        71.72272
563.93        71.55514
564.37        71.47103
564.80         71.4757
565.24        71.53944
565.68        71.62447
566.11        71.71379
566.55        71.82783
566.98         71.8763
567.42        71.88026
567.85        72.06981
568.29        72.43774
568.72        72.34022
569.16        71.83913
569.60        72.29164
570.03        72.25412
570.47        72.08704
570.90        72.29105
571.34        72.31956
571.77        72.61499
572.21        72.22289
572.64        72.69865
573.08        72.25841
573.51        71.96035
573.95        72.11887
574.38        72.32554
574.82        72.62971
575.25        72.63078
575.69        72.31235
576.12        72.30357
576.56        72.44711
576.99        72.45224
577.42        72.59212
577.86        72.68286
578.29        72.72121
578.73         72.8283
579.16        72.64355
579.60        72.59258
580.03        72.44497
580.47        72.16045
580.90        72.94485
581.33        73.07983
581.77        72.75539
582.20        72.67395
582.64        73.18192
583.07        72.75255
583.51        72.57281
583.94        72.33892
584.37        72.31616
584.81        72.20758
585.24        72.39215
585.68        72.61001
586.11        72.94086
586.54        72.54369
586.98        72.00419
587.41        72.42376
587.85        72.31116
588.28        72.63464
588.71        72.31016
589.15        72.81243
589.58        72.18972
590.01         72.2889
590.45        72.54362
590.88        71.67594
591.31        71.54563
591.75        71.62286
592.18         71.6067
592.61        71.70338
593.05        71.87986
593.48        72.96432
593.91        72.39355
594.35        72.19015
594.78        72.27621
595.21        71.93839
595.65        71.94643
596.08        71.88908
596.51        72.11433
596.94        71.98978
597.38         72.0633
597.81        72.21326
598.24         72.0348
598.68        72.25684
599.11        71.93188
599.54        72.40971
599.97        72.16111
600.41         72.4601
600.84        72.39922
601.27        72.21889
601.70        72.18324
602.14        71.62978
602.57        71.96798
603.00        72.03539
603.43         72.4651
603.87        72.17925
604.30        71.71578
604.73        71.75885
605.16        72.25043
605.60         72.1404
606.03        72.30348
606.46        72.32366
606.89        72.29337
607.32        72.37756
607.76        72.43555
608.19        72.31559
608.62        72.18752
609.05         72.0662
609.48        72.05542
609.92        72.08759
610.35        71.98956
610.78        72.16677
611.21        71.30841
611.64        71.94636
612.07        71.89391
612.50        71.84802
612.94        71.85086
613.37        71.94456
613.80        71.83207
614.23        71.98305
614.66        71.86521
615.09        71.68001
615.52        71.75992
615.96        72.11739
616.39        71.77921
616.82          72.017
617.25        71.84309
617.68        71.89676
618.11        71.78101
618.54        71.66081
618.97        71.76598
619.40        71.96664
619.84        72.17032
620.27        71.87264
620.70        71.71207
621.13        71.49975
621.56        71.78275
621.99        71.41637
622.42        71.15099
622.85        71.42991
623.28         71.4315
623.71        72.02612
624.14        71.46734
624.57        71.59922
625.00        71.40453
625.43        71.30591
625.86        71.37164
626.29        71.60448
626.72        71.23113
627.15        71.45045
627.58         71.4453
628.01        71.59898
628.44        71.34589
628.87         71.0621
629.30         71.3401
629.73        71.34615
630.16        71.00909
630.59        71.18913
631.02        71.23497
631.45        71.52028
631.88         71.6525
632.31        71.64838
632.74        71.57365
633.17        71.54789
633.60        71.52334
634.03        71.53658
634.46        71.57692
634.89        71.61135
635.32        71.57428
635.75        71.45535
636.18        71.31937
636.61        71.19981
637.04        71.06414
637.47        70.96765
637.89        71.08883
638.32        71.35208
638.75        71.50732
639.18          71.518
639.61        71.50984
640.04        71.49316
640.47        71.45123
640.90        71.39667
641.33        71.30274
641.76        71.16983
642.18         71.1787
642.61         71.0539
643.04        71.02034
643.47        70.99824
643.90        70.99049
644.33        70.99319
644.76        71.00884
645.18         71.0362
645.61        71.05848
646.04        71.07024
646.47        71.06318
646.90        71.04673
647.33        71.03424
647.75        71.03626
648.18        71.07498
648.61        71.11356
649.04        71.09444
649.47        71.03265
649.89        70.89593
650.32         70.7644
650.75        70.95542
651.18        71.36105
651.61        71.42175
652.03        71.10963
652.46        70.90797
652.89          70.971
653.32        70.89472
653.74        70.73472
654.17         71.4593
654.60         71.2023
655.03        70.81251
655.46        70.84528
655.88        71.82877
656.31        73.65478
656.74        75.66236
657.16         74.2769
657.59        72.85349
658.02        71.54652
658.45        71.90866
658.87        71.81034
659.30         72.0573
659.73        71.35609
660.15        71.61868
660.58        71.00844
661.01        71.08413
661.44         71.2617
661.86        71.28194
662.29        71.11047
662.72        70.95619
663.14        70.90479
663.57        70.98318
664.00        71.17648
664.42        71.29277
664.85        71.31448
665.27        71.41209
665.70        71.46243
666.13        71.45139
666.55        71.35107
666.98        71.18482
667.41        71.01534
667.83        70.94756
668.26        70.99822
668.69        71.14738
669.11        71.33369
669.54        71.45621
669.96        71.49244
670.39        71.43126
670.82        71.33642
671.24        71.36303
671.67        71.49524
672.09        71.57171
672.52        71.57906
672.94        71.50378
673.37         71.3906
673.80         71.3662
674.22        71.43224
674.65        71.40884
675.07        71.31212
675.50        71.23609
675.92        71.20907
676.35         71.2082
676.77        71.23968
677.20        71.31151
677.62         71.4091
678.05        71.46918
678.47        71.47719
678.90        71.52639
679.32        71.50084
679.75        71.51942
680.17         71.5462
680.60        71.57919
681.02        71.60421
681.45         71.5794
681.87        71.51154
682.30        71.41342
682.72        71.32022
683.15        71.25717
683.57         71.2563
684.00        71.31066
684.42        71.40649
684.85        71.51469
685.27        71.61362
685.70        71.70129
686.12        71.76277
686.54        71.87695
686.97        72.03529
687.39        72.09264
687.82        71.99837
688.24        72.21671
688.66        71.98509
689.09        71.89064
689.51        71.77462
689.94        71.77637
690.36          71.894
690.78        72.00786
691.21        72.09074
691.63        72.14754
692.06        72.16571
692.48        72.11617
692.90        72.01398
693.33        71.89487
693.75        71.77483
694.17        71.65249
694.60        71.54486
695.02        71.48854
695.44        71.47707
695.87        71.55845
696.29        71.72064
696.71        71.71861
697.14        71.82359
697.56        71.92573
697.98        72.07036
698.41        72.16374
698.83        72.17407
699.25        72.18226
699.68        72.20358
700.10        72.22286
700.52        72.21539
700.94        72.52908
701.37        72.47858
701.79        72.50143
702.21        72.38129
702.64        72.18089
703.06        71.95063
703.48        71.80195
703.90         71.7748
704.33        71.82449
704.75        71.93088
705.17         72.0361
705.59        72.11832
706.01        72.16698
706.44        72.18961
706.86        72.33559
707.28        72.40436
707.70        72.51955
708.12        72.60974
708.55        72.67815
708.97        72.69811
709.39        72.62385
709.81        72.48767
710.23        72.40813
710.66        72.40556
711.08        72.44643
711.50        72.48841
711.92         72.5036
712.34        72.48517
712.76         72.4471
713.19        72.40726
713.61        72.44442
714.03        72.54852
714.45         72.6907
714.87        72.84919
715.29        72.99378
715.71        73.10906
716.13        73.20402
716.56        73.24055
716.98        73.23399
717.40        73.16734
717.82        73.05601
718.24        72.94777
718.66         72.9215
719.08         72.9913
719.50        73.12293
719.92        73.28661
720.34        73.43073
720.76        73.52947
721.19        73.59109
721.61        73.59414
722.03        73.47176
722.45        73.22992
722.87        72.89575
723.29        72.57418
723.71        72.43526
724.13        72.52139
724.55        72.78883
724.97        73.13979
725.39        73.40632
725.81        73.53087
726.23        73.54803
726.65        73.51227
727.07        73.51572
727.49        73.58234
727.91        73.68065
728.33        73.76102
728.75        73.73936
729.17         73.6046
729.59        73.42278
730.01        73.26344
730.43        73.17397
730.85        73.20193
731.27        73.42802
731.69        73.76971
732.10        73.99018
732.52         74.0303
732.94         74.0449
733.36        74.04639
733.78        73.91864
734.20        73.66676
734.62         73.8291
735.04        73.25817
735.46        73.55064
735.88        73.79562
736.30        73.71429
736.72        73.26073
737.13        73.19711
737.55        73.50895
737.97        73.80793
738.39        73.97952
738.81        73.81773
739.23        73.43712
739.65        73.51607
740.06        73.96281
740.48        74.11956
740.90         73.9346
741.32        73.89211
741.74        73.90968
742.16        73.92766
742.57        73.92352
742.99        73.92859
743.41        73.95292
743.83        73.98965
744.25        74.03501
744.67         74.0767
745.08        74.12452
745.50        74.15453
745.92        74.18105
746.34        74.21101
746.75        74.22781
747.17        74.22078
747.59        74.19228
748.01        74.08221
748.42        73.95829
748.84        74.04528
749.26        74.28904
749.68        74.39845
750.09        74.32282
750.51        74.17602
750.93        74.00204
751.35        73.88334
751.76        73.84774
752.18        73.80686
752.60        73.77069
753.01        73.86018
753.43        74.03636
753.85        74.14164
754.27        74.13401
754.68        74.32846
755.10         74.2403
755.52        74.33535
755.93        74.48783
756.35         74.6899
756.77        74.80015
757.18        74.92183
757.60         75.1047
758.02        74.68716
758.43        73.74098
758.85        75.14951
759.26        74.87701
759.68        75.15106
760.10        74.88293
760.51        74.15083
760.93        73.99323
761.34        74.44212
761.76        75.09426
762.18        75.24759
762.59        74.87454
763.01        74.53235
763.42        75.18017
763.84        75.35437
764.26        75.28614
764.67        75.18232
765.09        75.10651
765.50        75.03822
765.92         74.9978
766.33        74.86374
766.75        74.62807
767.16        74.60503
767.58        74.63009
768.00        74.81692
768.41        75.11461
768.83        75.03947
769.24        75.25137
769.66        75.19258
770.07        75.07897
770.49        75.06232
770.90        75.14005
771.32        75.08965
771.73        74.95612
772.15        74.93057
772.56        75.03175
772.97        75.22933
773.39        75.43843
773.80        75.46001
774.22        75.32409
774.63        75.48212
775.05        75.85329
775.46        76.01228
775.88        75.89515
776.29        75.79051
776.70        75.74552
777.12        75.73042
777.53        75.78719
777.95        75.90701
778.36         76.0613
778.77        76.17812
779.19        76.23621
779.60        76.25727
780.02        76.25858
780.43         76.2953
780.84        76.35083
781.26         76.4129
781.67        76.52145
782.09        76.52791
782.50        76.30768
782.91        76.76261
783.33        75.95129
783.74        75.88039
784.15        75.98453
784.57        76.05035
784.98        76.08016
785.39        76.27685
785.81        76.67158
786.22        76.74576
786.63        76.55965
787.04        76.45148
787.46        76.49661
787.87        76.62666
788.28        76.78661
788.70        76.85826
789.11        76.81007
789.52        76.67863
789.93        76.54486
790.35        76.62858
790.76        76.90574
791.17        76.98274
791.58        76.84403
792.00        76.82056
792.41        76.94965
792.82        76.92583
793.23        76.82585
793.65        77.09751
794.06         77.6848
794.47         78.0229
794.88        78.02486
795.29        78.17883
795.71        78.08659
796.12        77.88113
796.53         77.5194
796.94        77.32049
797.35        77.32188
797.76         77.3608
798.18         77.4229
798.59        77.52196
799.00        77.64118
799.41        77.75451
799.82        77.82867
800.23        77.83829
800.64        77.77892
801.06        77.62818
801.47         77.4846
801.88        77.43687
802.29          77.509
802.70        77.67118
803.11        77.86401
803.52         77.9827
803.93        78.00169
804.34        77.95431
804.75        77.87325
805.17        77.84053
805.58         77.9173
805.99        77.93748
806.40        77.91455
806.81        78.15556
807.22        78.50427
807.63         78.3362
808.04        77.76644
808.45        77.55936
808.86        77.79097
809.27        78.02988
809.68        78.18996
810.09        78.31316
810.50         78.3634
810.91        78.33422
811.32        78.25064
811.73        78.16911
812.14        78.11493
812.55        78.03268
812.96        77.94834
813.37        78.01969
813.78         78.2011
814.19        78.22702
814.60         78.1245
815.01        78.15911
815.42        78.34287
815.83        78.51556
816.24        78.65529
816.65        78.80379
817.05         78.9451
817.46        79.01694
817.87        79.03905
818.28        78.99081
818.69        78.87799
819.10        78.72417
819.51        78.55483
819.92        78.41462
820.33        78.33084
820.74        78.29251
821.14        78.31872
821.55        78.47093
821.96        78.72278
822.37        79.05395
822.78        79.36909
823.19        79.49609
823.60        79.38979
824.00        79.12428
824.41        78.75135
824.82        78.46093
825.23        78.31705
825.64        78.28255
826.04        78.37345
826.45        78.56279
826.86        78.83385
827.27        79.18687
827.68         79.5436
828.08        79.80064
828.49        79.85439
828.90         79.7612
829.31         79.5871
829.72        79.46326
830.12        79.45272
830.53        79.46646
830.94        79.49386
831.35        79.47385
831.75        79.41228
832.16         79.2986
832.57        79.15247
832.97         78.9618
833.38        78.73858
833.79        78.50274
834.20        78.32581
834.60        78.31053
835.01        78.47682
835.42        78.77438
835.82        79.13851
836.23        79.36597
836.64        79.42582
837.04         79.3912
837.45        79.25275
837.86        79.10635
838.26        79.00531
838.67        78.91128
839.08        78.88522
839.48        79.00662
839.89        79.27815
840.29        79.67633
840.70        80.11173
841.11        80.44041
841.51        80.63835
841.92        80.69388
842.33        80.67237
842.73        80.68676
843.14        80.72084
843.54        80.77701
843.95         80.8196
844.35        80.81772
844.76        80.75259
845.17        80.64504
845.57        80.54135
845.98        80.46625
846.38        80.45425
846.79        80.47054
847.19         80.4866
847.60        80.39494
848.00        80.20773
848.41        79.93006
848.81        79.66943
849.22        79.52058
849.62        79.54762
850.03        79.68613
850.43        79.89491
850.84        80.02041
851.24        80.07375
851.65        80.02815
852.05        79.98292
852.46        79.98756
852.86        80.05576
853.27        80.17262
853.67        80.22092
854.07        80.23177
854.48        80.15519
854.88        80.05039
855.29        79.82946
855.69        79.55799
856.10        79.17745
856.50        78.78959
856.90        78.45057
857.31         78.2822
857.71        78.35249
858.12        78.55439
858.52        78.86208
858.92        79.09869
859.33         79.1842
859.73        79.20132
860.13        79.09457
860.54        78.80916
860.94        78.40555
861.34        77.86921
861.75         77.3245
862.15        77.02901
862.55        77.00217
862.96        77.20074
863.36        77.45818
863.76        77.46794
864.17        77.14943
864.57        76.60777
864.97        76.02802
865.38        75.68568
865.78        75.70319
866.18        75.97913
866.58        76.34113
866.99        76.49858
867.39        76.39819
867.79         76.1004
868.19        75.77795
868.60         75.6462
869.00        75.74661
869.40         76.0401
869.80        76.39318
870.21        76.57224
870.61        76.58065
871.01        76.43031
871.41        76.25825
871.81        76.25707
872.22        76.44031
872.62        76.78406
873.02        77.17906
873.42        77.41048
873.82         77.4146
874.22        77.27493
874.63        77.12766
875.03        77.13479
875.43        77.34007
875.83        77.66368
876.23        78.03659
876.63        78.34682
877.03        78.54166
877.44        78.65176
877.84        78.65323
878.24        78.47247
878.64        78.12872
879.04        77.65909
879.44        77.21078
879.84        76.98904
880.24        77.02363
880.64        77.26373
881.04        77.57349
881.44        77.70977
881.84        77.59561
882.24        77.28306
882.65        76.87205
883.05        76.64539
883.45        76.63501
883.85        76.78506
884.25        76.96476
884.65        76.97781
885.05        76.79256
885.45        76.47489
885.85        76.19237
886.25        76.22263
886.65        76.61972
887.05         77.2745
887.45        77.96006
887.85        78.34543
888.25        78.34138
888.65        78.02267
889.04        77.56062
889.44        77.28419
889.84        77.26965
890.24        77.44106
890.64        77.61347
891.04        77.49557
891.44        77.04433
891.84        76.38049
892.24        75.75051
892.64        75.52455
893.04        75.77787
893.44        76.38274
893.83        77.11193
894.23        77.53771
894.63         77.5667
895.03        77.30356
895.43         76.9268
895.83        76.73148
896.23        76.80162
896.63         77.0434
897.02         77.3092
897.42        77.42823
897.82        77.35406
898.22        77.17391
898.62         77.0107
899.01        77.06915
899.41        77.36856
899.81        77.82465
900.21        78.32803
900.61        78.70968
901.00        78.89141
901.40        78.93652
901.80        78.83817
902.20        78.59935
902.59        78.26822
902.99        77.85099
903.39        77.46172
903.79        77.27511
904.18        77.32732
904.58        77.57816
904.98        77.93951
905.38        78.28271
905.77        78.54762
906.17        78.75832
906.57        78.89673
906.96         78.9613
907.36        78.92917
907.76        78.82458
908.15        78.66568
908.55        78.41746
908.95        78.13277
909.34         77.8089
909.74        77.58885
910.14          77.622
910.53        77.93008
910.93        78.45184
911.33        78.99872
911.72        79.24419
912.12        79.10049
912.52        78.68927
912.91        78.20313
913.31         77.9603
913.70        78.02302
914.10        78.28989
914.49        78.66969
914.89        78.92185
915.29        78.98148
915.68        78.90417
916.08        78.76205
916.47        78.66422
916.87        78.65444
917.26        78.66964
917.66        78.66228
918.05        78.52544
918.45        78.24375
918.84        77.90787
919.24          77.574
919.64         77.4093
920.03        77.48083
920.42        77.73308
920.82        78.11802
921.21        78.55619
921.61         78.9793
922.00        79.37903
922.40         79.7387
922.79         80.1212
923.19         80.4651
923.58        80.78458
923.98        80.88979
924.37        80.55262
924.77        79.76982
925.16        78.64344
925.55        77.53141
925.95        77.04494
926.34        77.33752
926.74        78.18897
927.13        79.28887
927.52        80.02473
927.92        80.23544
928.31        80.08887
928.70        79.71514
929.10        79.30489
929.49        78.95108
929.89        78.54309
930.28        78.23931
930.67        78.21151
931.07        78.46836
931.46        78.99623
931.85        79.56264
932.24        79.81583
932.64        79.68189
933.03        79.27137
933.42        78.74979
933.82        78.39346
934.21        78.29541
934.60        78.36648
934.99        78.56958
935.39        78.81625
935.78        79.09676
936.17        79.44218
936.56        79.77068
936.96        79.92081
937.35        79.91199
937.74        79.73567
938.13        79.53257
938.53        79.53308
938.92        79.76857
939.31        80.14991
939.70        80.52106
940.09        80.60246
940.49        80.29702
940.88        79.75608
941.27         79.0872
941.66        78.44829
942.05        77.91972
942.44        77.49018
942.84        77.21786
943.23        77.13838
943.62        77.27188
944.01        77.59177
944.40        78.04443
944.79        78.51315
945.18        78.91602
945.57         79.2382
945.97         79.3792
946.36        79.28602
946.75        78.94102
947.14        78.37241
947.53        77.73002
947.92        77.28625
948.31        77.13561
948.70        77.23425
949.09        77.46314
949.48         77.6097
949.87        77.61922
950.26        77.55887
950.65        77.50848
951.04        77.59736
951.43        77.84708
951.82        78.18078
952.21        78.52371
952.60        78.76177
952.99        78.84676
953.38        78.82059
953.77        78.68359
954.16        78.43433
954.55        78.09494
954.94        77.66714
955.33         77.2461
955.72        76.99129
956.11        76.94021
956.50        77.06971
956.89         77.2587
957.28        77.27163
957.66        77.08282
958.05        76.75687
958.44        76.43357
958.83        76.33365
959.22        76.49364
959.61        76.77596
960.00        77.13518
960.39        77.51328
960.78        77.84698
961.16        78.19654
961.55        78.28799
961.94        77.78296
962.33        76.68249
962.72         75.1746
963.11        73.71719
963.49        72.96471
963.88        73.06068
964.27        73.84172
964.66        74.99769
965.04        75.95332
965.43        76.39076
965.82        76.48162
966.21        76.40367
966.60        76.46563
966.98        76.76117
967.37          77.123
967.76        77.42963
968.15        77.46114
968.53        77.18238
968.92        76.72174
969.31        76.22829
969.69        75.87392
970.08        75.71751
970.47        75.72507
970.86        75.96219
971.24        76.54594
971.63         77.3607
972.02        78.31954
972.40        79.24437
972.79        79.77574
973.17        79.93955
973.56        79.76266
973.95        79.37756
974.33        78.99669
974.72        78.70763
975.11        78.46272
975.49        78.27681
975.88        78.19406
976.26        78.22785
976.65        78.36465
977.04        78.51992
977.42         78.5178
977.81        78.24538
978.19        77.71162
978.58        77.14156
978.96        76.89086
979.35        77.03407
979.74        77.56234
980.12        78.19583
980.51        78.24048
980.89        77.68221
981.28        76.58495
981.66        75.55508
982.05        75.69801
982.43         77.2066
982.82         79.6127
983.20        82.05206
983.59        83.05357
983.97        82.40167
984.35         80.5174
984.74        78.07457
985.12         76.3081
985.51        75.69016
985.89        75.88609
986.28        76.67299
986.66        77.79838
987.04         79.0509
987.43        80.46732
987.81        81.80688
988.20        82.49286
988.58        82.41616
988.96        81.66576
989.35        80.41553
989.73        79.08385
990.12        77.77061
990.50        76.37299
990.88        75.12644
991.27        74.56602
991.65         74.8745
992.03        75.96019
992.42        77.13342
992.80        77.75603
993.18        77.59772
993.56        76.70835
993.95        75.49975
994.33        74.94238
994.71        75.47308
995.10        76.63744
995.48        77.71696
995.86        77.86359
996.24        76.99789
996.63        75.24485
997.01         73.2915
997.39        72.57001
997.77        73.62759
998.15        76.00618
998.54        78.49315
998.92        79.44574
999.30        78.55785
999.68        76.27417
1000.06        73.65364
1000.45        72.63638
1000.83        73.86271
1001.21        76.60353
1001.59        79.69766
1001.97        81.49194
1002.35        81.58332
1002.73        80.45931
1003.12        78.70271
1003.50        77.46568
1003.88        77.29926
1004.26        77.71442
1004.64        78.42307
1005.02        79.11366
1005.40        79.66471
1005.78        80.27591
1006.16        80.68871
1006.54        80.38107
1006.92        79.28741
1007.30        77.51933
1007.69        75.72349
1008.07        74.91151
1008.45        75.38142
1008.83         76.8074
1009.21        78.46484
1009.59        79.28239
1009.97        78.95248
1010.35        77.65559
1010.73         75.7914
1011.11        74.46385
1011.49        74.30993
1011.86         75.1743
1012.24         76.3369
1012.62        77.05688
1013.00        77.14296
1013.38        76.78253
1013.76        76.45912
1014.14        76.93233
1014.52        78.39651
1014.90        80.71076
1015.28        83.01319
1015.66        83.67478
1016.04        82.24968
1016.41        79.29891
1016.79        76.15974
1017.17         75.1586
1017.55        76.69499
1017.93        80.14875
1018.31          84.005
1018.69        85.81619
1019.06        85.00298
1019.44        82.13872
1019.82        78.67255
1020.20        77.66135
1020.58        79.95901
1020.95        84.08138
1021.33        88.33692
1021.71        90.64474
1022.09        90.57373
1022.46        88.83507
1022.84        85.79485
1023.22        81.86081
1023.60        77.34743
1023.97        71.88229
1024.35        66.32885
1024.73        62.55154
