SpectraSmart Spectrum 2.9.0.0
--------- Device Information -----------
Spectrum Name :  反射率_0
Saving Time :  2024/04/27 23:45:33
Spectro-Module Model Name : SE2030-DUVN
Spectro-Module Serial Number : OS361AC55029948
Wavelength Start : 200
Wavelength End : 1025
Wavelength Unit : Wavelength(nm)
Spectrum Unit : Reflectance(%)
-----------Spectrum Setting ------------
Integration Time : 20ms
Average : 10
Boxcar : 0
Background removal :  enabled
linearity correction :  enabled
SC :  disabled
Intensity correction :  disabled
DWT denoise :  enabled
savitzky-golay :  disabled
FFT :  disabled
Running average :  disabled
Kalman :  disabled
High pass :  disabled
---------------BEGIN--------------------
Wavelength(nm)             Reflectance(%)
200.29               0
200.75        156.8272
201.21        151.0553
201.67        138.5379
202.13        127.1479
202.58        116.7662
203.04        106.5345
203.50         98.4578
203.96        96.73471
204.42        100.6407
204.88        107.0991
205.34        113.5198
205.80         117.972
206.26        120.5215
206.72        122.2236
207.18        121.4839
207.64         114.677
208.10        104.8372
208.55        97.30585
209.01        92.71133
209.47         89.4528
209.93        85.70647
210.39        78.71898
210.85         62.3692
211.31        57.69117
211.77        91.90249
212.23        105.3978
212.69        108.3373
213.14        108.3257
213.60        106.0439
214.06        101.2858
214.52        92.26913
214.98        82.61974
215.44        80.39259
215.90        82.66658
216.36        86.58908
216.81        91.15965
217.27        96.30506
217.73          102.46
218.19        107.9053
218.65        109.2015
219.11        105.3244
219.57        96.73276
220.02        85.55602
220.48        79.00389
220.94        79.76427
221.40        85.08337
221.86        91.75565
222.32         96.5172
222.77        98.77692
223.23        99.74244
223.69        99.51845
224.15        98.01334
224.61        95.41874
225.06        91.61044
225.52        87.62038
225.98        85.45271
226.44        85.55679
226.90          86.846
227.36        88.37806
227.81        89.35422
228.27         89.9176
228.73        90.28053
229.19        90.29408
229.65        89.66192
230.10        88.32543
230.56        86.62659
231.02        85.08121
231.48        84.51544
231.93        84.91508
232.39        86.18283
232.85        87.68288
233.31        88.63341
233.77        88.91552
234.22        88.81712
234.68        88.72948
235.14        89.19363
235.60        90.37304
236.05        92.20776
236.51        94.45322
236.97        96.45761
237.43        97.75505
237.88        98.49453
238.34        98.83685
238.80        99.77656
239.26        101.8226
239.71        105.7888
240.17        111.3871
240.63        115.0251
241.08        113.1115
241.54        107.7025
242.00        103.3299
242.46        102.2185
242.91        104.4756
243.37        110.9687
243.83        125.2564
244.28        144.2847
244.74        146.2348
245.20        130.5926
245.66         115.489
246.11        108.1017
246.57        106.0418
247.03        107.2416
247.48        112.0276
247.94        118.0684
248.40         121.643
248.85        123.6123
249.31        124.9829
249.77        126.3843
250.22        127.8176
250.68         128.819
251.14        129.9242
251.59        132.2548
252.05        136.4998
252.51        143.4631
252.96        152.2019
253.42        156.5749
253.88        152.8844
254.33        144.2859
254.79        137.5198
255.25        135.0015
255.70        135.1505
256.16        137.2775
256.62        138.9453
257.07        137.8938
257.53        135.5853
257.99        132.7277
258.44        130.1479
258.90         129.482
259.35        129.6582
259.81         130.653
260.27        131.3181
260.72        130.5305
261.18        129.0135
261.63        126.6814
262.09        124.5688
262.55        122.8771
263.00        121.4216
263.46        120.3283
263.91        119.0558
264.37        117.6631
264.83         116.019
265.28         114.173
265.74        112.4736
266.19        110.7877
266.65        109.2852
267.11          107.83
267.56        106.3687
268.02        105.0173
268.47        103.7023
268.93        102.4418
269.38        101.1841
269.84        99.93164
270.30        98.64769
270.75        97.32273
271.21        95.91872
271.66        94.27553
272.12        92.43834
272.57        90.40698
273.03        88.40989
273.48        86.65009
273.94        85.27805
274.39        84.13299
274.85        83.16407
275.31        82.08485
275.76        80.79311
276.22        79.46421
276.67        78.08367
277.13        76.88168
277.58        75.76838
278.04        74.76654
278.49        73.71709
278.95        72.63964
279.40        71.42778
279.86         70.2332
280.31        68.99009
280.77        67.83752
281.22        66.71912
281.68        65.72003
282.13        64.79519
282.59        64.04601
283.04        63.39881
283.50        62.89499
283.95         62.4258
284.41        61.94476
284.86        61.40232
285.32        60.87761
285.77         60.3938
286.22        60.09522
286.68         60.0085
287.13        60.00675
287.59        60.05087
288.04        59.95362
288.50        59.72871
288.95        59.37571
289.41        58.98208
289.86        58.57228
290.32         58.2309
290.77        57.94423
291.22         57.7594
291.68        57.72026
292.13        57.82728
292.59        58.12355
293.04        58.62045
293.50        59.38096
293.95        60.36852
294.40        61.54193
294.86        62.83922
295.31        64.15183
295.77        65.45073
296.22        66.73688
296.68        67.98508
297.13        69.12533
297.58        70.16827
298.04          71.151
298.49        72.16403
298.95        73.42737
299.40        74.95587
299.85        76.69833
300.31        78.56346
300.76        80.32629
301.21        81.91729
301.67        83.41359
302.12        84.76807
302.58        86.05212
303.03        87.24792
303.48        88.38426
303.94        89.59076
304.39        90.94782
304.84        92.50565
305.30        94.24766
305.75        96.00353
306.20        97.63154
306.66        99.11491
307.11        100.4358
307.57        101.7046
308.02        102.9497
308.47        104.2076
308.93        105.4573
309.38        106.6097
309.83        107.6597
310.29        108.6299
310.74         109.519
311.19        110.3591
311.65        111.1641
312.10        111.9094
312.55        112.5961
313.00         113.265
313.46        113.9901
313.91         114.755
314.36        115.5474
314.82          116.28
315.27        116.8076
315.72        117.1028
316.18        117.2323
316.63        117.2709
317.08        117.3826
317.53        117.6179
317.99        117.9278
318.44        118.2891
318.89        118.6302
319.35        118.9236
319.80        119.2065
320.25        119.4678
320.70        119.6947
321.16        119.8755
321.61        120.0202
322.06        120.1568
322.51        120.3516
322.97        120.5931
323.42        120.9004
323.87        121.1939
324.32        121.3647
324.78        121.3758
325.23        121.3171
325.68        121.2387
326.13        121.2571
326.59        121.3823
327.04        121.6293
327.49        121.9633
327.94        122.3661
328.39        122.8147
328.85        123.2763
329.30        123.7605
329.75        124.0951
330.20        124.2499
330.66        124.2219
331.11        124.1958
331.56        124.3459
332.01        124.7381
332.46        125.3316
332.92        125.9718
333.37        126.5585
333.82        126.9716
334.27         127.249
334.72        127.4866
335.17        127.8498
335.63        128.3447
336.08         128.973
336.53        129.5777
336.98        129.9577
337.43        130.0718
337.88        129.9987
338.34        129.8685
338.79        129.9525
339.24        130.3035
339.69        130.8553
340.14        131.5094
340.59        132.0968
341.05         132.567
341.50        132.9874
341.95        133.3823
342.40        133.8094
342.85        134.2806
343.30        134.7337
343.75        135.1891
344.20         135.693
344.66        136.2363
345.11        136.8093
345.56        137.2685
346.01        137.3787
346.46        137.1262
346.91        136.6055
347.36        136.0733
347.81        135.9238
348.26        136.2275
348.72        136.8512
349.17         137.551
349.62        137.9548
350.07         137.955
350.52        137.6787
350.97        137.2429
351.42        136.8354
351.87        136.5359
352.32        136.2826
352.77        136.0893
353.22        135.9882
353.67        135.9544
354.13         135.977
354.58        135.9435
355.03        135.7325
355.48         135.298
355.93         134.666
356.38         133.858
356.83        132.9163
357.28        131.8868
357.73        130.8008
358.18         129.715
358.63        128.7057
359.08        127.8043
359.53        127.0034
359.98        126.3127
360.43        125.7371
360.88        125.2457
361.33        124.8042
361.78        124.3339
362.23        123.7064
362.68        122.8901
363.13         121.944
363.58        120.9103
364.03        119.7723
364.48        118.7244
364.93        117.6464
365.38         116.634
365.83        115.7574
366.28        115.0221
366.73        114.4059
367.18        113.8325
367.63        113.1754
368.08        112.4005
368.53        111.5402
368.98        110.6405
369.43        109.7823
369.88        108.9926
370.33        108.2452
370.78        107.5291
371.23        106.8284
371.68        106.1317
372.13        105.4458
372.58        104.7653
373.03        104.0785
373.48        103.3866
373.93        102.6981
374.38        102.0119
374.83        101.3248
375.28        100.6396
375.72         99.9388
376.17        99.28292
376.62         98.6941
377.07        98.17008
377.52        97.68399
377.97        97.20007
378.42        96.66536
378.87        96.06921
379.32        95.44234
379.77        94.78644
380.22        94.09618
380.67        93.38412
381.11        92.66215
381.56        91.98987
382.01        91.47897
382.46        91.15584
382.91        90.98835
383.36        90.88988
383.81        90.72012
384.26        90.43462
384.71        90.06139
385.15        89.63449
385.60        89.27569
386.05        88.99011
386.50        88.74522
386.95        88.49535
387.40        88.18098
387.85        87.79714
388.29         87.3209
388.74        86.90003
389.19        86.53684
389.64        86.22565
390.09        85.92645
390.54        85.61073
390.98        85.23436
391.43        84.86174
391.88        84.47552
392.33        84.05179
392.78        83.76555
393.23        83.60789
393.67        83.04716
394.12         82.3154
394.57         82.7484
395.02        82.97626
395.47        83.07586
395.91        82.67061
396.36        82.50224
396.81        82.57768
397.26        82.48484
397.71        82.22429
398.15        81.92651
398.60        81.69219
399.05        81.40806
399.50          81.117
399.95        80.94151
400.39        80.86395
400.84        80.68304
401.29        80.41872
401.74        80.18512
402.18        80.01999
402.63        79.92374
403.08        79.86528
403.53        79.70717
403.97         79.4446
404.42        79.19717
404.87        78.95499
405.32        78.74019
405.76        78.56397
406.21          78.261
406.66        77.93127
407.11        78.12907
407.55        78.70115
408.00        78.67902
408.45        78.09098
408.90        77.65324
409.34         77.4884
409.79        77.50742
410.24        77.61453
410.68         77.5703
411.13        77.34771
411.58        77.14546
412.03        77.02284
412.47        76.98334
412.92        77.01283
413.37        77.12451
413.81        77.24091
414.26        77.30258
414.71        77.27209
415.15        77.19387
415.60        77.06363
416.05        76.94686
416.49        76.87534
416.94        76.81895
417.39         76.7925
417.83        76.81895
418.28        76.88201
418.73        76.95073
419.17        77.00372
419.62        77.00904
420.07        76.97942
420.51        76.94197
420.96        76.87009
421.41        76.77351
421.85        76.64806
422.30        76.24374
422.74        75.75708
423.19        76.26136
423.64        77.47451
424.08        77.74475
424.53        76.97203
424.98        76.69527
425.42        77.00137
425.87        76.76153
426.31         76.1332
426.76        76.25404
427.21        76.97084
427.65        77.04562
428.10        76.52245
428.54        76.41397
428.99        76.76266
429.44        77.10503
429.88          77.304
430.33        77.15521
430.77        76.72243
431.22        76.74166
431.66        77.17072
432.11         77.2392
432.56        77.04832
433.00        77.40696
433.45        78.01979
433.89        78.03745
434.34        77.63926
434.78        76.21551
435.23        77.29172
435.67        76.66706
436.12        77.34053
436.57        77.37611
437.01        77.49154
437.46        77.52666
437.90        77.98438
438.35        78.61503
438.79        78.65461
439.24        78.74461
439.68        78.68371
440.13        78.51804
440.57        78.30782
441.02        78.40682
441.46         78.6899
441.91        78.45422
442.35        77.83105
442.80        77.99444
443.24        78.76512
443.69        78.97174
444.13        78.58472
444.58        78.50724
445.02        78.72112
445.47        78.76464
445.91        78.65011
446.36        78.65235
446.80        78.76649
447.24        78.92033
447.69        79.09486
448.13        79.25257
448.58        79.37077
449.02        79.38827
449.47        79.35287
449.91        79.35351
450.36        79.42415
450.80        79.48961
451.25        79.53551
451.69        79.54166
452.13          79.493
452.58        79.34381
453.02         79.1449
453.47        79.01461
453.91        78.95802
454.36        79.04139
454.80        79.16049
455.24        78.92905
455.69        78.45361
456.13        78.25458
456.58        78.41939
457.02        78.34833
457.46        78.28879
457.91        78.47547
458.35        77.88802
458.79        77.71936
459.24         77.6878
459.68        77.55067
460.13        77.31254
460.57        77.17667
461.01        77.42361
461.46        76.73072
461.90        76.99113
462.34        76.98331
462.79        77.00735
463.23        76.95906
463.68        76.78484
464.12        76.57346
464.56        76.39993
465.01        76.44379
465.45         76.5252
465.89        76.60892
466.34        76.66227
466.78        76.20161
467.22        75.34025
467.67        75.88576
468.11        75.62206
468.55        75.92913
468.99         76.0392
469.44         76.1339
469.88        76.17043
470.32        76.06789
470.77        75.87981
471.21        75.70763
471.65        75.57541
472.10        75.46794
472.54        75.36462
472.98        75.27773
473.42        75.20654
473.87        75.16029
474.31        75.09936
474.75        75.09415
475.20        75.09532
475.64        75.02732
476.08        74.90556
476.52        74.80654
476.97        74.71452
477.41         74.9759
477.85        74.68516
478.29        74.82679
478.74         75.1608
479.18        74.57427
479.62        74.96045
480.06        74.80666
480.50         74.6692
480.95        74.53555
481.39        74.42139
481.83        74.31058
482.27        74.10477
482.72        74.43989
483.16        74.33133
483.60        74.40382
484.04        74.33247
484.48        74.38626
484.93        74.20319
485.37        74.40446
485.81        74.55863
486.25        74.94328
486.69        74.78261
487.14         73.8328
487.58        73.98777
488.02        74.14944
488.46        74.47668
488.90        74.65828
489.34        74.01268
489.79        73.31442
490.23        73.86868
490.67        73.81715
491.11        73.59209
491.55        73.50637
491.99        73.57028
492.43        73.60384
492.88        73.57555
493.32        73.55459
493.76        73.52676
494.20        73.55725
494.64        73.68151
495.08        73.72394
495.52        73.68679
495.96        74.02802
496.41        74.56011
496.85        74.16583
497.29        73.13869
497.73         73.1595
498.17        74.01431
498.61          74.441
499.05         74.2233
499.49        73.84832
499.93         73.4874
500.37         73.3992
500.82        73.52251
501.26        73.42328
501.70        73.48206
502.14        72.68122
502.58        73.63754
503.02        73.78499
503.46        73.55387
503.90        73.34366
504.34        73.27419
504.78        73.24919
505.22        73.26151
505.66         73.3135
506.10        73.40693
506.54        73.37688
506.98        73.15854
507.42        73.67411
507.86        73.31462
508.30        73.29021
508.74        73.30585
509.18        73.24715
509.62        73.17184
510.06        73.11727
510.50        73.10785
510.94        73.12261
511.38        73.14251
511.82        73.13634
512.26        73.09455
512.70        73.02601
513.14        72.96698
513.58        72.94862
514.02        72.97596
514.46        73.08881
514.90        73.25058
515.34        73.14292
515.78        73.17224
516.22         73.0219
516.66        72.88304
517.10        72.84766
517.54         72.9388
517.98         73.1208
518.42        73.31429
518.86        73.39991
519.30        73.34898
519.74        73.20964
520.18        73.05677
520.62        72.98452
521.06        73.03245
521.50        73.21284
521.93        73.45383
522.37        73.58283
522.81        73.57087
523.25        73.47884
523.69        73.37156
524.13        73.33735
524.57        73.39656
525.01        73.51512
525.45         73.6291
525.89        73.64044
526.32        73.52405
526.76        73.33347
527.20        73.12378
527.64        72.98854
528.08        72.95352
528.52        72.98586
528.96        73.05465
529.40        73.11166
529.83         73.1315
530.27        73.14448
530.71        73.13867
531.15        73.10418
531.59        73.04436
532.03        72.95902
532.46         72.8681
532.90         72.8302
533.34         72.8493
533.78        72.91185
534.22        72.98555
534.66        73.01971
535.09        72.99272
535.53        72.93887
535.97        72.87072
536.41        72.82587
536.85        72.81429
537.28        72.82729
537.72        72.84604
538.16        72.83097
538.60        72.77879
539.04        72.72025
539.47          72.659
539.91        72.63994
540.35        72.65199
540.79        72.69677
541.22         72.7455
541.66        72.76235
542.10        72.73556
542.54        72.67644
542.97        72.60433
543.41        72.59116
543.85         72.6338
544.29        72.71637
544.72        72.78899
545.16        72.81293
545.60        72.76212
546.04        72.64705
546.47        72.51093
546.91        72.43707
547.35        72.43437
547.79        72.47992
548.22        72.50777
548.66        72.45821
549.10        72.32532
549.53        72.21988
549.97        72.18971
550.41        72.20234
550.84        72.26279
551.28        72.44138
551.72        72.68563
552.15        72.68064
552.59         72.7385
553.03        72.62256
553.46         72.4725
553.90        72.42364
554.34          72.488
554.77        72.58899
555.21        72.65562
555.65        72.73025
556.08        72.65835
556.52        72.34108
556.96        71.88882
557.39        71.82287
557.83        72.12803
558.27        72.27167
558.70        72.20705
559.14        72.23547
559.57        72.32589
560.01        72.32246
560.45        72.23607
560.88        72.18553
561.32        72.22897
561.75        72.24993
562.19        72.27779
562.63        72.37151
563.06        72.48288
563.50        72.46636
563.93        72.32436
564.37        72.25443
564.80        72.24956
565.24        72.27516
565.68        72.31082
566.11        72.33018
566.55        72.36475
566.98        72.41741
567.42        72.49229
567.85         72.5624
568.29         72.6428
568.72        72.51503
569.16        72.26849
569.60        72.25506
570.03        72.51569
570.47        72.26503
570.90        72.39172
571.34        72.63564
571.77        72.77881
572.21        72.29488
572.64         72.6479
573.08        72.29527
573.51        72.15392
573.95        72.36698
574.38        72.79937
574.82        71.92815
575.25        72.40173
575.69        71.93211
576.12        71.94486
576.56        72.48142
576.99        72.37135
577.42        72.59301
577.86        72.40348
578.29        72.60345
578.73        72.36093
579.16        72.42401
579.60        72.52104
580.03        72.38025
580.47        71.85487
580.90        72.63009
581.33        72.50925
581.77        72.49754
582.20        72.14557
582.64        72.24473
583.07        72.19206
583.51        72.31565
583.94        72.60138
584.37        72.64416
584.81        72.49811
585.24        72.35575
585.68        72.32318
586.11         72.5891
586.54        72.41968
586.98        72.42155
587.41        72.80269
587.85        72.39912
588.28        72.54401
588.71        71.88147
589.15        72.79989
589.58        72.10255
590.01        72.66313
590.45        72.78162
590.88         71.8272
591.31        71.84575
591.75        72.32746
592.18        72.32696
592.61         71.9694
593.05        72.05918
593.48        72.46346
593.91        72.06789
594.35        72.11634
594.78        72.51532
595.21        72.37742
595.65        72.39127
596.08        72.30322
596.51        72.07482
596.94        72.40952
597.38         72.4741
597.81        72.56185
598.24        72.07195
598.68         72.5684
599.11        72.22659
599.54        72.50039
599.97        72.49409
600.41        72.46236
600.84        72.50986
601.27        72.64909
601.70        72.06874
602.14          72.055
602.57        72.15435
603.00        72.00568
603.43        72.08962
603.87        72.52785
604.30         72.3762
604.73        72.19104
605.16        72.35904
605.60        72.26592
606.03        72.43916
606.46        72.61852
606.89        72.36657
607.32        72.63385
607.76        72.57551
608.19        72.48779
608.62        72.28459
609.05        72.07894
609.48        72.08243
609.92        72.25783
610.35        72.31501
610.78         72.7118
611.21        72.10429
611.64         72.3659
612.07        72.26196
612.50        72.28602
612.94        72.29536
613.37        72.34431
613.80         72.0778
614.23        72.31976
614.66        72.26334
615.09        72.17377
615.52        72.24574
615.96         72.5584
616.39        72.25565
616.82        72.42197
617.25        72.04911
617.68        72.23616
618.11        72.18246
618.54        72.17385
618.97        72.36427
619.40        72.57663
619.84        72.75304
620.27        72.36433
620.70        72.03875
621.13        71.64534
621.56        72.27322
621.99        72.39833
622.42         72.2385
622.85        71.99706
623.28        72.15912
623.71         72.3338
624.14        71.67382
624.57        71.92313
625.00        72.14361
625.43        72.14717
625.86        72.25349
626.29        72.34105
626.72        71.94048
627.15        72.27692
627.58         72.3145
628.01        72.49287
628.44        72.15558
628.87        71.93151
629.30        72.47028
629.73        72.10893
630.16        71.41599
630.59        71.76472
631.02        71.78833
631.45        71.97612
631.88        72.07083
632.31        72.07056
632.74        72.04736
633.17        72.04224
633.60        72.05746
634.03        72.10315
634.46        72.17655
634.89        72.24498
635.32        72.22805
635.75        72.12307
636.18        72.02896
636.61        71.96588
637.04        71.84698
637.47        71.72416
637.89        71.80676
638.32        72.03181
638.75        72.15837
639.18        72.15659
639.61        72.15147
640.04        72.14927
640.47        72.12418
640.90        72.08768
641.33        72.01926
641.76        71.91586
642.18        71.95578
642.61        71.85654
643.04        71.83433
643.47        71.82304
643.90        71.85268
644.33        71.91805
644.76        72.01495
645.18        72.09341
645.61        72.05768
646.04        71.89918
646.47        71.64515
646.90        71.38547
647.33        71.27675
647.75        71.36454
648.18        71.58392
648.61        71.83935
649.04        72.07362
649.47        72.21372
649.89        72.03695
650.32        71.68317
650.75        71.73058
651.18        72.11109
651.61        72.20096
652.03        71.95892
652.46        71.65876
652.89        71.46519
653.32        71.38876
653.74         71.8376
654.17        71.90544
654.60        72.37119
655.03        72.11497
655.46        71.68204
655.88        72.46973
656.31        73.32932
656.74        73.52318
657.16         72.4481
657.59        71.76689
658.02        71.38739
658.45        72.53409
658.87        72.28397
659.30        72.23277
659.73        72.17409
660.15        71.80843
660.58        71.76189
661.01        71.85571
661.44        72.14775
661.86        72.25021
662.29        72.13589
662.72        72.01034
663.14        71.94772
663.57        72.02992
664.00        72.21088
664.42        72.22775
664.85        72.07502
665.27        71.92773
665.70         71.8279
666.13         71.7635
666.55        71.75125
666.98        71.78494
667.41        71.85201
667.83        71.92545
668.26        71.98634
668.69        72.05589
669.11        72.11139
669.54         72.1356
669.96        72.13795
670.39        72.02874
670.82        71.88907
671.24        72.03325
671.67        72.37963
672.09        72.46884
672.52        72.31903
672.94        72.21157
673.37        72.20137
673.80        72.24514
674.22        72.32098
674.65        72.29018
675.07         72.1656
675.50        72.03371
675.92        71.94285
676.35        71.90174
676.77        71.92674
677.20        72.01455
677.62        72.13564
678.05         72.2188
678.47        72.24318
678.90        72.23486
679.32        72.20868
679.75        72.20272
680.17         72.2283
680.60        72.28689
681.02        72.34126
681.45        72.33743
681.87        72.28292
682.30        72.10868
682.72        71.92085
683.15        72.05348
683.57         72.4571
684.00        72.63854
684.42         72.5616
684.85        72.56107
685.27        72.62233
685.70        72.53504
686.12        72.33894
686.54        72.24525
686.97        72.25883
687.39        72.30903
687.82        72.38001
688.24        72.35391
688.66        72.54043
689.09        72.53297
689.51        72.47047
689.94        72.46442
690.36        72.53053
690.78        72.57922
691.21        72.58511
691.63        72.55051
692.06        72.47456
692.48        72.35641
692.90        72.23642
693.33        72.15501
693.75        72.12997
694.17        72.19229
694.60        72.29125
695.02        72.31836
695.44        72.29062
695.87        72.32095
696.29        72.42844
696.71        72.67626
697.14        72.95276
697.56        72.92023
697.98        72.63593
698.41        72.57436
698.83        72.73846
699.25        72.88268
699.68        72.95712
700.10        73.06055
700.52        73.16782
700.94        73.25612
701.37        73.29179
701.79        73.26205
702.21        73.15005
702.64        72.98599
703.06        72.81481
703.48        72.72391
703.90         72.7422
704.33        72.84682
704.75        72.99765
705.17        73.10106
705.59        73.12165
706.01        73.04659
706.44        72.93814
706.86        72.99151
707.28        73.01163
707.70        73.25361
708.12         73.5359
708.55        73.37027
708.97        72.85975
709.39        72.73611
709.81        73.01797
710.23        73.11828
710.66        73.01781
711.08         73.1048
711.50        73.32269
711.92        73.41799
712.34        73.37019
712.76        73.24992
713.19        73.10464
713.61        73.06559
714.03        73.14227
714.45        73.29095
714.87        73.46149
715.29        73.58355
715.71        73.63361
716.13        73.63129
716.56        73.58052
716.98        73.56833
717.40        73.58917
717.82        73.63058
718.24        73.67792
718.66        73.71061
719.08        73.72237
719.50        73.71718
719.92        73.71865
720.34        73.76105
720.76        73.84749
721.19        73.95796
721.61        74.05919
722.03        74.06568
722.45        73.96244
722.87        73.77291
723.29        73.57025
723.71        73.47165
724.13        73.50826
724.55        73.65746
724.97        73.85258
725.39        73.94307
725.81        73.89081
726.23        73.80352
726.65        73.78082
727.07        73.61012
727.49        73.90797
727.91        74.15005
728.33        74.41747
728.75        74.53902
729.17        74.48054
729.59        74.29324
730.01        74.05289
730.43        73.90015
730.85        73.87138
731.27        73.91376
731.69        74.00881
732.10        74.12762
732.52         74.2366
732.94        74.41129
733.36        74.60199
733.78        74.59342
734.20        74.35017
734.62        74.45538
735.04        73.85043
735.46        74.07092
735.88        74.64024
736.30        74.78015
736.72        74.47932
737.13        74.38676
737.55        74.52185
737.97        74.63882
738.39        74.68613
738.81        74.53472
739.23        74.25195
739.65        74.26563
740.06        74.51041
740.48        74.60417
740.90        74.49756
741.32        74.49554
741.74        74.51609
742.16        74.60015
742.57        74.72081
742.99        74.86986
743.41        75.00758
743.83        75.05839
744.25        75.00795
744.67        74.86795
745.08        74.71206
745.50         74.6225
745.92        74.64282
746.34        74.75119
746.75        74.87708
747.17        74.91807
747.59        74.85354
748.01        74.65897
748.42        74.43565
748.84        74.45856
749.26        74.69069
749.68        74.82522
750.09        74.81104
750.51        74.74467
750.93        74.67001
751.35        74.71391
751.76        74.85744
752.18        74.89318
752.60        74.81919
753.01         74.7817
753.43        74.78999
753.85         74.8286
754.27        74.90154
754.68         75.0128
755.10        75.13993
755.52        75.24423
755.93         75.3233
756.35        75.38415
756.77        75.39577
757.18        75.46537
757.60        75.62718
758.02          75.535
758.43        75.19212
758.85         75.9077
759.26         75.6421
759.68         75.7113
760.10        75.72212
760.51        74.64618
760.93        74.93857
761.34        75.40035
761.76        76.04347
762.18        76.23467
762.59        75.86494
763.01        75.69549
763.42        75.84995
763.84        75.82561
764.26         75.6884
764.67        75.82529
765.09        76.15767
765.50        76.14826
765.92        75.85891
766.33        75.69227
766.75        75.66888
767.16        75.68082
767.58        75.68692
768.00        75.91816
768.41        76.28362
768.83        76.28671
769.24        75.99308
769.66        75.91315
770.07        76.04351
770.49        76.15828
770.90        76.22591
771.32        76.23213
771.73        76.20753
772.15        76.22382
772.56         76.2923
772.97        76.39773
773.39        76.48796
773.80         76.4349
774.22        76.28913
774.63        76.48312
775.05        76.91251
775.46        77.11121
775.88        76.99986
776.29        76.88039
776.70         76.8052
777.12        76.75526
777.53        76.77228
777.95        76.83266
778.36         76.9156
778.77        76.96031
779.19        76.96132
779.60         76.9701
780.02        76.97034
780.43        76.98415
780.84        77.01692
781.26        76.96021
781.67        76.94933
782.09        77.32137
782.50        77.76041
782.91        78.33492
783.33        77.10255
783.74        76.90247
784.15        77.20452
784.57        77.28715
784.98        77.15176
785.39        77.33097
785.81        77.74789
786.22        77.88059
786.63        77.72382
787.04         77.6626
787.46        77.71834
787.87        77.65578
788.28        77.52114
788.70        77.48547
789.11        77.54617
789.52        77.66003
789.93        77.79939
790.35        77.92658
790.76        78.03043
791.17        78.04411
791.58          77.995
792.00        77.96362
792.41        77.98046
792.82        78.04187
793.23        78.14767
793.65        78.14333
794.06        78.10703
794.47        78.42538
794.88        78.97198
795.29        79.02261
795.71        79.03647
796.12        78.77647
796.53        78.50344
796.94        78.56266
797.35        78.91199
797.76        78.98051
798.18        78.76725
798.59        78.73495
799.00        78.89345
799.41        78.95971
799.82        78.89749
800.23        78.80452
800.64        78.68558
801.06        78.49487
801.47        78.32755
801.88        78.25668
802.29         78.3073
802.70        78.46728
803.11        78.68427
803.52        78.85962
803.93        78.95865
804.34        78.99575
804.75        79.01391
805.17        79.06792
805.58        79.20102
805.99        79.39142
806.40        79.57002
806.81        79.56633
807.22        79.38271
807.63        79.18287
808.04        79.04191
808.45        78.97493
808.86        79.00698
809.27        79.16722
809.68        79.38178
810.09        79.48373
810.50        79.43484
810.91        79.29111
811.32         79.1088
811.73        78.99596
812.14        78.99159
812.55        79.01404
812.96         79.0628
813.37        79.25642
813.78        79.52574
814.19        79.60505
814.60        79.51888
815.01        79.53854
815.42        79.68157
815.83        79.78432
816.24        79.84382
816.65        79.94096
817.05        80.07656
817.46        80.18601
817.87        80.27361
818.28        80.29144
818.69        80.23426
819.10        80.12415
819.51        79.99852
819.92        79.92085
820.33        79.91898
820.74        79.97877
821.14          80.076
821.55        80.20837
821.96         80.3428
822.37        80.47293
822.78        80.58971
823.19        80.67489
823.60        80.71876
824.00        80.74979
824.41        80.69167
824.82        80.52505
825.23        80.25802
825.64        79.91051
826.04         79.6131
826.45        79.53111
826.86        79.71179
827.27        80.10977
827.68        80.56802
828.08        80.84986
828.49        80.81622
828.90        80.57156
829.31        80.26157
829.72        80.14226
830.12        80.30437
830.53        80.60768
830.94        80.95142
831.35        81.13271
831.75        81.11246
832.16        80.91451
832.57        80.62057
832.97        80.32896
833.38        80.09027
833.79        79.89337
834.20        79.77361
834.60        79.77895
835.01        79.91755
835.42        80.16451
835.82        80.48126
836.23        80.70209
836.64        80.80483
837.04         80.8407
837.45        80.77866
837.86        80.68404
838.26        80.59911
838.67        80.49744
839.08        80.43218
839.48        80.47298
839.89        80.62421
840.29        80.85776
840.70        81.12794
841.11        81.35997
841.51         81.5416
841.92        81.65234
842.33        81.67776
842.73         81.5956
843.14         81.3671
843.54        81.03778
843.95        80.69991
844.35        80.52708
844.76        80.54736
845.17         80.7254
845.57        80.96954
845.98        81.07316
846.38        81.00925
846.79        80.80783
847.19        80.56726
847.60          80.394
848.00        80.35191
848.41         80.3655
848.81        80.43376
849.22          80.476
849.62        80.50924
850.03        80.54198
850.43        80.59019
850.84        80.58556
851.24        80.57632
851.65        80.49755
852.05        80.48936
852.46        80.66772
852.86        81.02959
853.27        81.52821
853.67         81.9175
854.07        82.06662
854.48        81.91179
854.88        81.55154
855.29        81.01781
855.69        80.62266
856.10        80.37474
856.50        80.29127
856.90        80.29053
857.31        80.26768
857.71        80.23314
858.12        80.17458
858.52        80.12428
858.92        79.99375
859.33        79.75519
859.73        79.45501
860.13        79.13495
860.54        78.91468
860.94         78.8668
861.34        78.92049
861.75        78.98077
862.15        78.95123
862.55        78.78072
862.96        78.53773
863.36         78.2486
863.76        77.93954
864.17         77.6394
864.57        77.35045
864.97        77.18018
865.38        77.28319
865.78        77.71563
866.18        78.40179
866.58        79.11081
866.99        79.43642
867.39        79.29985
867.79        78.78813
868.19        78.13817
868.60        77.67068
869.00         77.4721
869.40        77.49216
869.80         77.6526
870.21        77.80898
870.61        77.97371
871.01        78.12334
871.41        78.28288
871.81        78.48541
872.22        78.70192
872.62        78.93319
873.02        79.11691
873.42        79.14637
873.82        79.00549
874.22        78.75768
874.63        78.51218
875.03        78.38007
875.43        78.40304
875.83         78.5377
876.23        78.75675
876.63        79.01214
877.03        79.25838
877.44        79.47834
877.84        79.62393
878.24        79.58036
878.64        79.34116
879.04        78.96812
879.44        78.54015
879.84        78.16403
880.24        77.87638
880.64        77.65253
881.04        77.53927
881.44        77.60735
881.84        77.85354
882.24        78.25304
882.65        78.64902
883.05        78.88036
883.45        78.86198
883.85        78.66212
884.25        78.40826
884.65        78.30261
885.05        78.39802
885.45        78.62416
885.85        78.93958
886.25        79.27069
886.65        79.56508
887.05        79.83739
887.45        80.02582
887.85        80.03578
888.25        79.85744
888.65        79.51121
889.04        79.08716
889.44        78.78601
889.84        78.64967
890.24        78.63964
890.64        78.68385
891.04        78.65608
891.44        78.53013
891.84        78.36475
892.24        78.20692
892.64         78.1225
893.04        78.13483
893.44        78.21296
893.83         78.3783
894.23        78.60467
894.63         78.8903
895.03        79.21188
895.43        79.50917
895.83        79.68413
896.23        79.71552
896.63        79.64048
897.02        79.48144
897.42        79.32341
897.82        79.18115
898.22        79.04471
898.62        78.96025
899.01        79.01183
899.41        79.18704
899.81        79.48374
900.21        79.80833
900.61        79.99908
901.00        80.00919
901.40        79.89413
901.80        79.74769
902.20        79.74068
902.59        79.91768
902.99        80.19704
903.39        80.50066
903.79          80.686
904.18        80.70897
904.58        80.64527
904.98        80.52252
905.38        80.38946
905.77        80.25396
906.17        80.08586
906.57        79.93752
906.96        79.92197
907.36        80.03506
907.76        80.31168
908.15        80.59158
908.55        80.51868
908.95        80.07553
909.34        79.32392
909.74        78.66679
910.14         78.6827
910.53        79.46613
910.93        80.80556
911.33        82.19296
911.72        82.76249
912.12        82.30974
912.52        81.17499
912.91        79.84128
913.31        79.02641
913.70         78.8857
914.10        79.18192
914.49        79.74636
914.89        80.19505
915.29        80.39823
915.68        80.49258
916.08        80.48358
916.47        80.36177
916.87        80.17013
917.26        79.84846
917.66        79.54043
918.05        79.46245
918.45        79.63788
918.84        80.04589
919.24        80.46001
919.64        80.57829
920.03        80.35448
920.42        79.88746
920.82        79.39693
921.21        79.21236
921.61         79.4031
922.00        79.88438
922.40        80.50815
922.79        81.10021
923.19        81.52094
923.58        81.84077
923.98        82.01781
924.37        82.05294
924.77        81.94959
925.16        81.68549
925.55        81.33712
925.95        81.04926
926.34        80.87633
926.74        80.79394
927.13        80.77668
927.52        80.65603
927.92        80.43434
928.31        80.16839
928.70        79.96373
929.10        79.96161
929.49        80.18804
929.89         80.5386
930.28        81.00365
930.67         81.4337
931.07        81.74062
931.46         81.9753
931.85        82.05604
932.24        81.90714
932.64        81.54755
933.03        81.01692
933.42        80.47691
933.82        80.18565
934.21        80.21368
934.60        80.50156
934.99        80.92471
935.39        81.23021
935.78        81.37537
936.17        81.41661
936.56        81.40501
936.96        81.42311
937.35        81.54951
937.74        81.70067
938.13        81.87025
938.53        82.07138
938.92        82.29096
939.31        82.51166
939.70        82.68893
940.09        82.73459
940.49        82.60299
940.88        82.36764
941.27        82.03872
941.66        81.63805
942.05        81.20205
942.44        80.75668
942.84        80.40087
943.23        80.23328
943.62        80.30489
944.01        80.58864
944.40        81.00218
944.79        81.38514
945.18        81.65463
945.57        81.80592
945.97        81.83741
946.36        81.83956
946.75        81.79887
947.14        81.68876
947.53        81.46772
947.92        81.07977
948.31        80.55139
948.70        79.96267
949.09        79.41989
949.48        79.05916
949.87        78.92731
950.26         78.9979
950.65         79.2466
951.04        79.62838
951.43        80.09892
951.82        80.63287
952.21        81.16056
952.60        81.56994
952.99         81.8034
953.38        81.86094
953.77         81.7473
954.16        81.48994
954.55        81.12193
954.94        80.65807
955.33        80.16386
955.72        79.74833
956.11        79.44014
956.50        79.21676
956.89        79.06567
957.28        78.92867
957.66        78.83441
958.05        78.84624
958.44        78.89478
958.83        78.85706
959.22         78.7168
959.61        78.42007
960.00        78.28758
960.39        78.84539
960.78        80.13207
961.16        82.03452
961.55        83.75842
961.94         84.0553
962.33        82.67468
962.72        80.07394
963.11        77.28914
963.49        75.83411
963.88        76.06428
964.27        77.59632
964.66        79.69064
965.04        81.00257
965.43        80.98505
965.82         80.0639
966.21        78.89876
966.60        78.49629
966.98        79.11152
967.37        80.38714
967.76        81.73802
968.15        82.09573
968.53        81.18943
968.92         79.4341
969.31        77.57403
969.69        76.67194
970.08        76.97809
970.47        78.15585
970.86        79.79685
971.24         81.1862
971.63        81.96557
972.02        82.37936
972.40        82.53692
972.79        82.46789
973.17        82.30724
973.56        81.90031
973.95        81.44511
974.33        81.29593
974.72         81.5191
975.11        82.07662
975.49        82.63605
975.88        82.61813
976.26        81.92249
976.65        80.69757
977.04         79.3829
977.42        78.71751
977.81        78.86471
978.19        79.60853
978.58         80.7222
978.96         81.7301
979.35        82.37172
979.74        82.80497
980.12        83.02136
980.51        82.78881
980.89        82.22205
981.28        81.21861
981.66        80.13216
982.05        79.64781
982.43        79.93645
982.82        80.81631
983.20        81.81282
983.59        81.97303
983.97        81.18985
984.35        79.66851
984.74        77.96018
985.12        77.04827
985.51        77.22213
985.89        78.21494
986.28         79.4928
986.66        80.36196
987.04        80.61884
987.43        80.39733
987.81        80.09354
988.20        80.28146
988.58        81.11893
988.96        82.36101
989.35        83.38311
989.73        83.34303
990.12        81.98799
990.50        79.49849
990.88        76.58109
991.27         74.9582
991.65        75.31037
992.03        77.08355
992.42        79.14325
992.80        80.32793
993.18        80.30589
993.56        79.41509
993.95        77.97684
994.33        76.79736
994.71         76.4564
995.10        76.59911
995.48        77.05395
995.86        77.58753
996.24        78.14966
996.63        78.83636
997.01        79.71327
997.39        80.57805
997.77        81.26192
998.15        81.70976
998.54        81.87562
998.92        81.79596
999.30         81.5067
999.68        81.01171
1000.06        80.43395
1000.45        79.97144
1000.83        79.77489
1001.21        79.74785
1001.59        79.80884
1001.97        79.78094
1002.35        79.62883
1002.73        79.49218
1003.12        79.27841
1003.50        78.72443
1003.88        77.92634
1004.26        76.95987
1004.64        76.35208
1005.02        76.79984
1005.40        78.30793
1005.78        80.65326
1006.16        83.05634
1006.54        84.08071
1006.92        83.30429
1007.30        81.14413
1007.69        78.47643
1008.07        76.71094
1008.45        76.39246
1008.83         77.1245
1009.21        78.32631
1009.59        79.14021
1009.97        79.30037
1010.35        79.02821
1010.73        78.60551
1011.11         78.6291
1011.49         79.3275
1011.86        80.47808
1012.24        81.43607
1012.62        81.66819
1013.00        81.12457
1013.38        80.05817
1013.76        78.90404
1014.14        78.37196
1014.52        78.67181
1014.90        79.57183
1015.28        80.82339
1015.66        81.88218
1016.04         82.4705
1016.41        82.86491
1016.79        82.79067
1017.17        82.21801
1017.55        81.25074
1017.93        79.93816
1018.31          78.796
1018.69        78.65721
1019.06        79.75903
1019.44        81.95374
1019.82        84.64651
1020.20        86.43901
1020.58        86.72176
1020.95        85.77456
1021.33        84.30786
1021.71        83.20344
1022.09        82.63891
1022.46        82.32153
1022.84        81.97346
1023.22         80.9613
1023.60        79.11034
1023.97        76.50933
1024.35        73.80695
1024.73        72.08267
