SpectraSmart Spectrum 2.9.0.0
--------- Device Information -----------
Spectrum Name :  反射率_0
Saving Time :  2024/04/27 23:47:10
Spectro-Module Model Name : SE2030-DUVN
Spectro-Module Serial Number : OS361AC55029948
Wavelength Start : 200
Wavelength End : 1025
Wavelength Unit : Wavelength(nm)
Spectrum Unit : Reflectance(%)
-----------Spectrum Setting ------------
Integration Time : 20ms
Average : 10
Boxcar : 0
Background removal :  enabled
linearity correction :  enabled
SC :  disabled
Intensity correction :  disabled
DWT denoise :  enabled
savitzky-golay :  disabled
FFT :  disabled
Running average :  disabled
Kalman :  disabled
High pass :  disabled
---------------BEGIN--------------------
Wavelength(nm)             Reflectance(%)
200.29               0
200.75        43.10553
201.21        72.54276
201.67        89.03556
202.13        86.73067
202.58        72.11456
203.04        51.17607
203.50        31.59337
203.96        25.23304
204.42        32.12383
204.88        45.04165
205.34         58.0265
205.80        66.88006
206.26        71.66493
206.72        74.04745
207.18        73.75456
207.64        70.33002
208.10        65.88577
208.55        62.66534
209.01        59.06363
209.47        52.92498
209.93        41.03081
210.39         12.7496
210.85       -69.64244
211.31       -164.7104
211.77       -42.40513
212.23        35.28086
212.69         62.5933
213.14        71.81074
213.60         73.1909
214.06        69.98698
214.52        60.57882
214.98         48.8248
215.44        44.40881
215.90        44.74739
216.36        47.21785
216.81        50.68446
217.27        54.50043
217.73        59.35979
218.19        63.48266
218.65          63.227
219.11        57.55088
219.57        46.90722
220.02        33.43368
220.48        25.05967
220.94        24.85806
221.40        29.96537
221.86        37.28622
222.32        43.54625
222.77        47.98009
223.23        51.37511
223.69        53.23156
224.15        52.75686
224.61         50.1979
225.06        45.56137
225.52        40.69479
225.98        39.00008
226.44        40.73761
226.90         43.8727
227.36        46.49427
227.81        47.08166
228.27        45.67007
228.73        42.79291
229.19        38.85017
229.65        34.90218
230.10         31.6753
230.56        29.38637
231.02        27.88039
231.48        26.94922
231.93        26.44106
232.39        26.43731
232.85        27.19453
233.31        29.03679
233.77        31.76195
234.22        35.13058
234.68        38.11883
235.14        39.58598
235.60        39.38494
236.05        37.62066
236.51        35.47872
236.97        35.46552
237.43        38.47559
237.88        43.96199
238.34        49.60828
238.80        53.14774
239.26        54.18159
239.71         52.6617
240.17        49.47723
240.63          50.329
241.08        58.14657
241.54        67.51793
242.00        73.96803
242.46        76.62093
242.91        76.44934
243.37        72.89106
243.83        64.06689
244.28        52.82635
244.74         52.5317
245.20        63.36619
245.66        72.10342
246.11        72.66069
246.57        65.64944
247.03        50.40278
247.48        26.11218
247.94        7.365573
248.40        11.35744
248.85          29.924
249.31        50.83689
249.77        64.27393
250.22        70.04918
250.68        71.96786
251.14        72.22258
251.59        72.61086
252.05        73.65663
252.51        74.45556
252.96        74.32675
253.42        72.95387
253.88         70.4771
254.33        68.67414
254.79        67.37573
255.25        65.16534
255.70        62.26969
256.16        59.64237
256.62        58.76564
257.07        61.19745
257.53        65.92657
257.99        70.82991
258.44        73.98765
258.90        74.28617
259.35        71.91309
259.81        68.43705
260.27        64.70078
260.72        61.72826
261.18        60.00224
261.63        58.79619
262.09        57.96658
262.55        56.94895
263.00        55.60881
263.46        54.29768
263.91        53.06496
264.37        52.32249
264.83        51.98323
265.28        51.79739
265.74        51.62928
266.19        51.11348
266.65        50.26484
267.11        49.15503
267.56        47.83503
268.02        46.48825
268.47        45.16199
268.93        43.86588
269.38        42.66493
269.84        41.68468
270.30        40.93559
270.75        40.38234
271.21        39.93817
271.66        39.40826
272.12        38.75441
272.57        37.97718
273.03        37.14485
273.48        36.28907
273.94        35.49485
274.39        34.72842
274.85        34.02777
275.31        33.37135
275.76        32.73472
276.22        32.13749
276.67        31.59528
277.13        31.21903
277.58        30.95436
278.04        30.82007
278.49        30.60855
278.95        30.13298
279.40        29.33982
279.86        28.37177
280.31         27.4397
280.77        26.96762
281.22        26.96062
281.68         27.3035
282.13        27.69276
282.59        27.75683
283.04        27.41667
283.50        26.82043
283.95        26.17752
284.41        25.84494
284.86        25.87595
285.32        26.15808
285.77        26.48411
286.22        26.59838
286.68        26.46899
287.13        26.16624
287.59        25.85944
288.04        25.72051
288.50        25.81955
288.95        26.05517
289.41        26.34959
289.86        26.54527
290.32         26.6297
290.77        26.65546
291.22        26.69756
291.68        26.85465
292.13        27.15244
292.59        27.58487
293.04        28.13347
293.50        28.79347
293.95        29.55513
294.40        30.44738
294.86        31.47769
295.31        32.64272
295.77        33.94788
296.22        35.36348
296.68        36.89737
297.13         38.5307
297.58        40.23704
298.04        41.99858
298.49        43.75012
298.95        45.45024
299.40        47.09642
299.85        48.71262
300.31        50.39012
300.76        52.20987
301.21        54.17905
301.67         56.2743
302.12         58.3461
302.58        60.26131
303.03        61.97292
303.48        63.56261
303.94        65.20343
304.39        67.06665
304.84        69.20792
305.30        71.55991
305.75        73.93514
306.20        76.14706
306.66        78.15802
307.11        79.96861
307.57        81.68845
308.02        83.36324
308.47        85.02975
308.93        86.66584
309.38        88.17834
309.83        89.53713
310.29         90.7692
310.74        91.88528
311.19        92.96973
311.65        94.11881
312.10        95.31174
312.55        96.51261
313.00        97.66676
313.46        98.70246
313.91        99.58506
314.36        100.3576
314.82        101.0212
315.27        101.5726
315.72        102.0278
316.18         102.405
316.63        102.7536
317.08        103.1917
317.53        103.7428
317.99        104.3732
318.44        105.0162
318.89        105.5304
319.35         105.877
319.80        106.1024
320.25         106.266
320.70         106.476
321.16        106.7524
321.61          107.08
322.06        107.4155
322.51        107.7009
322.97        107.9019
323.42        108.0767
323.87        108.2317
324.32         108.396
324.78        108.5657
325.23        108.7715
325.68        108.9895
326.13        109.2099
326.59        109.4074
327.04        109.6419
327.49        109.9075
327.94        110.2296
328.39        110.6126
328.85        111.0067
329.30        111.4653
329.75        111.9165
330.20         112.335
330.66        112.6895
331.11        113.0353
331.56        113.3426
332.01        113.6275
332.46        113.9052
332.92        114.1419
333.37        114.4409
333.82        114.7642
334.27        115.0976
334.72        115.4847
335.17        115.9938
335.63        116.5989
336.08        117.3408
336.53         118.062
336.98        118.5473
337.43        118.7583
337.88        118.7584
338.34        118.7183
338.79        118.9856
339.24        119.6159
339.69        120.5021
340.14         121.469
340.59        122.2223
341.05        122.6832
341.50        122.9741
341.95        123.1634
342.40        123.3766
342.85        123.6705
343.30        123.9792
343.75        124.3837
344.20        125.0214
344.66        125.8864
345.11        126.9346
345.56        127.9211
346.01        128.4433
346.46        128.4381
346.91        128.0392
347.36        127.5583
347.81        127.4847
348.26        127.9264
348.72        128.7271
349.17        129.6378
349.62        130.2789
350.07        130.5314
350.52        130.5172
350.97        130.3523
351.42         130.217
351.87        130.1765
352.32         130.163
352.77        130.1427
353.22        130.0808
353.67         129.955
354.13         129.788
354.58        129.5602
355.03        129.2939
355.48         128.984
355.93        128.6249
356.38        128.1628
356.83        127.5155
357.28        126.6926
357.73        125.7514
358.18        124.8044
358.63        124.0176
359.08        123.4323
359.53        122.9976
359.98        122.6446
360.43         122.261
360.88        121.7946
361.33        121.2573
361.78        120.6491
362.23        119.9674
362.68        119.2176
363.13        118.4177
363.58        117.5673
364.03        116.5936
364.48        115.6438
364.93        114.6434
365.38        113.6886
365.83        112.8586
366.28        112.1671
366.73        111.5864
367.18        111.0575
367.63        110.4843
368.08        109.8385
368.53        109.1476
368.98        108.4325
369.43        107.7324
369.88        107.0593
370.33        106.3876
370.78        105.7274
371.23        105.1026
371.68        104.5038
372.13        103.9182
372.58        103.2962
373.03        102.5559
373.48        101.6919
373.93        100.7506
374.38        99.78904
374.83        98.88882
375.28         98.0856
375.72        97.34885
376.17        96.72769
376.62        96.22055
377.07        95.81188
377.52        95.47826
377.97        95.17097
378.42        94.81734
378.87        94.39125
379.32        93.90708
379.77         93.3659
380.22        92.77052
380.67        92.13415
381.11        91.47127
381.56        90.82011
382.01        90.25752
382.46        89.81502
382.91        89.48188
383.36        89.23147
383.81        89.01329
384.26        88.79632
384.71        88.57502
385.15        88.32344
385.60        88.06519
386.05        87.77988
386.50        87.47105
386.95        87.11951
387.40        86.70728
387.85        86.25378
388.29        85.72803
388.74        85.29314
389.19        84.98061
389.64        84.77621
390.09        84.62067
390.54        84.45692
390.98        84.17541
391.43        83.82401
391.88        83.45358
392.33        83.02275
392.78        82.60795
393.23        82.26904
393.67        81.62514
394.12        80.91531
394.57        81.46723
395.02        81.84409
395.47         81.8291
395.91        81.09634
396.36        80.75511
396.81        80.84769
397.26        80.75199
397.71         80.4537
398.15        80.17912
398.60        80.01142
399.05        79.74651
399.50        79.45466
399.95        79.37414
400.39        79.43167
400.84        79.28252
401.29        78.89602
401.74        78.31786
402.18        77.69694
402.63        77.39449
403.08        77.41702
403.53        77.34043
403.97         77.1528
404.42         77.1765
404.87        77.32404
405.32        77.37169
405.76        77.28235
406.21        76.95418
406.66        76.52747
407.11        76.59086
407.55        77.01301
408.00        76.91101
408.45        76.30714
408.90        75.69091
409.34        75.29118
409.79         75.4873
410.24        76.09323
410.68        76.31294
411.13        76.06374
411.58        75.83748
412.03        75.71792
412.47        75.62086
412.92          75.553
413.37        75.56062
413.81        75.58415
414.26        75.59071
414.71         75.5489
415.15        75.48784
415.60        75.41359
416.05        75.40327
416.49        75.47523
416.94        75.59112
417.39        75.70103
417.83         75.7262
418.28        75.64587
418.73        75.47588
419.17        75.28458
419.62         75.1857
420.07        75.21585
420.51        75.34119
420.96        75.49827
421.41        75.57082
421.85        75.50659
422.30        75.28381
422.74         75.0268
423.19        75.21095
423.64        75.72663
424.08        76.09376
424.53         76.1846
424.98        75.80862
425.42        76.16185
425.87          75.778
426.31        75.20843
426.76        75.35243
427.21        76.06208
427.65        76.10805
428.10        75.53951
428.54        75.42416
428.99        75.80509
429.44        76.22026
429.88        76.48168
430.33        76.28398
430.77        75.73885
431.22        75.64236
431.66        75.98325
432.11         76.2122
432.56        76.34641
433.00        76.59456
433.45        76.74094
433.89        76.85888
434.34        77.00439
434.78        75.78972
435.23          76.198
435.67        75.76689
436.12        77.47195
436.57        77.47598
437.01        76.65543
437.46        76.25106
437.90        76.85685
438.35        77.04996
438.79        76.98546
439.24        76.95756
439.68        77.04529
440.13        77.08298
440.57        77.11668
441.02        77.64313
441.46        78.37251
441.91        78.17654
442.35        77.27418
442.80        77.23403
443.24        77.93478
443.69        78.16451
444.13        77.85045
444.58        77.74484
445.02        77.79965
445.47        77.75443
445.91        77.71124
446.36        77.66513
446.80        77.54775
447.24        78.40345
447.69        78.63866
448.13        78.41124
448.58        79.23625
449.02        79.03283
449.47        78.55195
449.91        78.31955
450.36        78.44003
450.80        78.55108
451.25        78.59712
451.69        78.65272
452.13        78.67679
452.58        78.59003
453.02        78.42868
453.47        78.28587
453.91        78.17834
454.36        78.19655
454.80        78.20617
455.24        77.89751
455.69        77.43038
456.13        76.97128
456.58        76.71397
457.02        77.23753
457.46        78.10383
457.91        77.90934
458.35        77.01763
458.79        76.62178
459.24        76.88741
459.68        76.78627
460.13          76.284
460.57        76.51212
461.01        76.35506
461.46        75.94136
461.90        76.08965
462.34        76.11622
462.79        76.28576
463.23        76.16224
463.68         75.8417
464.12        75.60999
464.56        75.56637
465.01        75.92327
465.45         76.3284
465.89        76.28727
466.34        75.92635
466.78         75.3228
467.22        74.56824
467.67        75.65104
468.11        75.28929
468.55        75.35085
468.99         74.9213
469.44        74.79068
469.88        74.95551
470.32        74.97588
470.77        74.85764
471.21        74.77962
471.65        74.74689
472.10        74.72255
472.54        74.65539
472.98        74.54899
473.42         74.4158
473.87        74.17838
474.31        73.89774
474.75        74.02269
475.20        74.42274
475.64        74.43134
476.08         74.0782
476.52        73.94292
476.97        74.01723
477.41        74.05845
477.85        74.03664
478.29        73.69201
478.74        73.78953
479.18        73.33357
479.62        73.68787
480.06          73.692
480.50         73.6497
480.95        73.80233
481.39        74.08128
481.83         73.8564
482.27         73.7021
482.72        73.74008
483.16        73.36987
483.60        73.16833
484.04         73.1519
484.48        73.29476
484.93        73.77971
485.37         73.6163
485.81         73.2976
486.25        74.20403
486.69        74.93746
487.14        73.89802
487.58        73.63963
488.02         74.5202
488.46        73.76917
488.90        73.60232
489.34        73.25348
489.79        72.42012
490.23        73.16051
490.67        73.17148
491.11        73.03606
491.55        72.86721
491.99        72.72347
492.43        72.64301
492.88        72.61741
493.32        72.62125
493.76        72.61937
494.20        72.67854
494.64        72.81564
495.08        72.87479
495.52        72.88838
495.96        73.24316
496.41        73.77889
496.85        73.66472
497.29        73.03032
497.73        72.92063
498.17         73.2209
498.61        73.43924
499.05         73.4034
499.49         73.1363
499.93        72.77433
500.37        72.60057
500.82        72.59976
501.26         72.7648
501.70        73.15632
502.14        72.37357
502.58        73.00024
503.02        73.01166
503.46        72.86231
503.90        72.71966
504.34         72.5592
504.78        72.52634
505.22         72.5929
505.66         72.6208
506.10        72.60568
506.54        72.66969
506.98        72.80669
507.42        72.86359
507.86         72.9567
508.30        72.94263
508.74        72.86187
509.18        72.72062
509.62        72.56179
510.06        72.45574
510.50        72.42127
510.94        72.43932
511.38        72.49096
511.82        72.54157
512.26         72.5736
512.70        72.59942
513.14        72.61036
513.58        72.56345
514.02        72.45758
514.46        72.35818
514.90        72.30676
515.34        72.11616
515.78        72.21579
516.22        72.25274
516.66        72.34341
517.10         72.4629
517.54        72.59637
517.98        72.73592
518.42        72.83846
518.86        72.84824
519.30        72.75729
519.74        72.58657
520.18        72.38689
520.62        72.23933
521.06        72.16982
521.50        72.16227
521.93        72.19908
522.37        72.23151
522.81        72.24991
523.25        72.26595
523.69        72.28336
524.13        72.30703
524.57        72.33523
525.01        72.35634
525.45        72.36429
525.89        72.35436
526.32        72.31906
526.76        72.27657
527.20        72.22089
527.64        72.15076
528.08        72.07014
528.52          71.981
528.96        71.90285
529.40        71.86398
529.83        71.86234
530.27        71.90547
530.71        71.95495
531.15         71.9595
531.59        71.90956
532.03        71.81844
532.46        71.72035
532.90        71.69495
533.34        71.74774
533.78        71.85046
534.22        71.95486
534.66        71.98868
535.09        71.92834
535.53        71.82281
535.97        71.69341
536.41        71.58997
536.85        71.53091
537.28        71.50343
537.72        71.50658
538.16        71.52943
538.60        71.56512
539.04        71.62858
539.47        71.68272
539.91        71.70945
540.35        71.68768
540.79        71.64285
541.22        71.57691
541.66        71.50636
542.10        71.43712
542.54        71.36114
542.97        71.30177
543.41        71.33505
543.85        71.45097
544.29        71.63655
544.72        71.80185
545.16        71.84174
545.60         71.7253
546.04        71.48512
546.47        71.22646
546.91        71.13913
547.35        71.24873
547.79         71.4769
548.22         71.7036
548.66        71.80586
549.10        71.74517
549.53        71.62139
549.97        71.48839
550.41        71.38638
550.84        71.33997
551.28        71.34985
551.72        71.41856
552.15        71.51187
552.59        71.58002
553.03         71.8083
553.46        71.60224
553.90        71.62645
554.34        71.69408
554.77        71.74883
555.21        71.74643
555.65        71.66911
556.08         71.4555
556.52        71.30704
556.96        71.23354
557.39        71.28012
557.83        71.42561
558.27        71.49393
558.70        71.46704
559.14        71.45067
559.57        71.41547
560.01        71.37527
560.45        71.32044
560.88        71.10783
561.32        70.88197
561.75        70.98909
562.19        71.36374
562.63        71.48798
563.06        71.33124
563.50        71.21661
563.93         71.1748
564.37        71.15015
564.80        71.14163
565.24        71.24923
565.68        71.41177
566.11        71.48977
566.55        71.51332
566.98         71.4935
567.42        71.48182
567.85        71.62303
568.29        71.88692
568.72         71.7801
569.16        71.40881
569.60        71.41838
570.03        71.85011
570.47        71.70612
570.90        71.77719
571.34         72.3679
571.77        71.91069
572.21        71.76659
572.64        72.18927
573.08        72.15981
573.51        71.69225
573.95        71.85088
574.38        72.27875
574.82        71.94543
575.25        71.75632
575.69        71.53692
576.12        72.03721
576.56        71.85468
576.99        72.01923
577.42        71.93932
577.86        72.33567
578.29        72.21886
578.73        72.14886
579.16        72.09592
579.60        72.09427
580.03        72.02691
580.47        71.78325
580.90        72.20261
581.33        72.45747
581.77        72.45955
582.20         72.2846
582.64         72.4999
583.07        72.25645
583.51        72.05035
583.94         71.8681
584.37        71.82619
584.81        72.00292
585.24        72.06593
585.68        71.99563
586.11         72.1191
586.54        71.78581
586.98        71.41286
587.41        72.06818
587.85        71.84874
588.28        71.93198
588.71        71.55619
589.15        72.06535
589.58        71.45039
590.01        71.45379
590.45        71.71439
590.88        71.20776
591.31        71.31161
591.75        71.49384
592.18        71.36166
592.61        71.20489
593.05        71.25448
593.48        72.03786
593.91        72.01009
594.35        71.44628
594.78        71.64488
595.21        71.38583
595.65        71.45461
596.08        71.42037
596.51        71.38755
596.94        71.22879
597.38         71.2092
597.81        71.35454
598.24        71.37417
598.68        71.62572
599.11        71.50542
599.54        71.51302
599.97        71.64793
600.41        71.57455
600.84        71.55476
601.27        71.42393
601.70        71.29957
602.14        71.17416
602.57        71.13177
603.00         71.1093
603.43        71.54662
603.87        71.76759
604.30        71.40482
604.73        71.24674
605.16        71.43506
605.60        71.29603
606.03        71.49773
606.46         71.7785
606.89        71.42383
607.32        71.58955
607.76         72.1237
608.19        71.58655
608.62        71.43718
609.05        71.23343
609.48        71.22044
609.92        71.31975
610.35         71.5345
610.78        71.73952
611.21        71.24677
611.64        71.76591
612.07        71.62936
612.50        71.38268
612.94        71.25967
613.37         71.3469
613.80        71.13227
614.23        71.24719
614.66        71.24313
615.09        71.42313
615.52        71.43098
615.96        71.32294
616.39        71.23717
616.82        71.37833
617.25        71.22955
617.68        71.30008
618.11        71.25752
618.54        71.26447
618.97        71.30731
619.40        71.33961
619.84        71.40863
620.27        71.33241
620.70        71.25904
621.13        71.06202
621.56        71.14605
621.99          70.757
622.42        70.54208
622.85        70.90427
623.28        71.34049
623.71        71.17542
624.14        70.87284
624.57        70.90769
625.00        71.13323
625.43        70.71073
625.86        70.81035
626.29        71.14851
626.72        70.66703
627.15         70.8441
627.58        70.65802
628.01        70.67837
628.44        70.34972
628.87        70.63419
629.30         70.8793
629.73        70.72973
630.16        70.50077
630.59        70.57673
631.02        70.57146
631.45        70.59833
631.88        70.60656
632.31        70.61858
632.74        70.32089
633.17        70.42719
633.60         70.3741
634.03        70.37158
634.46         70.4079
634.89         70.4651
635.32        70.48299
635.75         70.4437
636.18        70.40654
636.61        70.38313
637.04        70.31297
637.47        70.24187
637.89        70.35133
638.32        70.58093
638.75        70.70722
639.18        70.70413
639.61        70.69875
640.04        70.69336
640.47        70.63727
640.90        70.53819
641.33        70.41471
641.76        70.30813
642.18         70.2668
642.61        70.33131
643.04        70.44859
643.47        70.57909
643.90        70.63391
644.33        70.59086
644.76        70.47931
645.18        70.33203
645.61        70.19486
646.04        70.08962
646.47         70.0004
646.90        69.94369
647.33        69.93642
647.75        69.98212
648.18        70.10662
648.61        70.25385
649.04        70.29551
649.47        70.21803
649.89        70.09966
650.32        70.02708
650.75        70.03289
651.18         70.1354
651.61         70.4911
652.03        70.89383
652.46        70.71909
652.89         70.1663
653.32        69.78267
653.74        70.00174
654.17        70.54968
654.60        70.30854
655.03        70.15652
655.46        70.04569
655.88        70.95035
656.31        72.92492
656.74        74.75455
657.16        73.47897
657.59        72.34118
658.02        71.39255
658.45        71.48402
658.87        71.11124
659.30        71.27765
659.73        70.72461
660.15        70.26051
660.58        70.36356
661.01        70.55939
661.44        70.88368
661.86        70.94717
662.29        70.72803
662.72        70.38226
663.14        70.07799
663.57        70.19115
664.00        70.63718
664.42        70.79766
664.85        70.63728
665.27        70.53732
665.70        70.52917
666.13        70.48527
666.55        70.41737
666.98        70.34884
667.41        70.29642
667.83        70.28625
668.26        70.31657
668.69        70.39346
669.11        70.47654
669.54        70.51928
669.96        70.52119
670.39        70.40376
670.82        70.25517
671.24        70.39671
671.67        70.75121
672.09        70.85991
672.52         70.7336
672.94        70.64096
673.37        70.63344
673.80        70.67053
674.22        70.73297
674.65        70.69142
675.07        70.56084
675.50        70.42136
675.92        70.32952
676.35        70.30819
676.77        70.37551
677.20        70.52844
677.62        70.71441
678.05        70.82404
678.47          70.828
678.90        70.76039
679.32        70.67578
679.75        70.66174
680.17        70.73431
680.60          70.918
681.02        71.12037
681.45        71.08849
681.87        70.86453
682.30        70.66232
682.72        70.57224
683.15          70.683
683.57        70.94262
684.00        71.00208
684.42        70.88205
684.85        70.92974
685.27         71.1339
685.70        71.28638
686.12        71.34723
686.54        71.36177
686.97        71.32482
687.39        71.29994
687.82        71.30468
688.24         71.1698
688.66        71.23723
689.09        71.21788
689.51        71.22373
689.94        71.22679
690.36        71.23241
690.78        71.23285
691.21        71.21764
691.63        71.17535
692.06        71.10993
692.48        71.02077
692.90        70.93742
693.33        70.89577
693.75        70.90883
694.17        70.97309
694.60        71.04055
695.02        71.08612
695.44        71.09201
695.87        70.99889
696.29        70.86915
696.71        70.97728
697.14        71.23979
697.56        71.23773
697.98        71.00195
698.41        70.98237
698.83        71.16865
699.25        71.32898
699.68        71.40904
700.10        71.49676
700.52        71.56893
700.94        71.59631
701.37         71.5509
701.79        71.49458
702.21        71.31771
702.64        71.13065
703.06        70.95296
703.48        70.88212
703.90        70.94006
704.33        71.09364
704.75         71.2917
705.17        71.42018
705.59        71.44495
706.01        71.36964
706.44        71.24136
706.86        71.26337
707.28        71.25793
707.70        71.37447
708.12        71.51401
708.55        71.54154
708.97        71.46323
709.39        71.45646
709.81        71.52853
710.23        71.55696
710.66        71.54097
711.08        71.57594
711.50        71.63905
711.92        71.68007
712.34         71.6967
712.76        71.70061
713.19        71.70396
713.61        71.77576
714.03        71.90027
714.45        72.05482
714.87        72.19899
715.29        72.27319
715.71        72.26311
716.13        72.18752
716.56        72.05856
716.98        71.97724
717.40        71.94765
717.82        71.96095
718.24        72.00549
718.66        72.06152
719.08        72.11609
719.50        72.16302
719.92        72.21548
720.34        72.29237
720.76        72.39003
721.19        72.49518
721.61        72.56071
722.03        72.48125
722.45        72.24871
722.87        71.89968
723.29        71.55874
723.71        71.42506
724.13        71.54665
724.55        71.87193
724.97        72.26982
725.39        72.51978
725.81        72.56039
726.23        72.44968
726.65        72.29607
727.07        72.27725
727.49         72.4332
727.91        72.69592
728.33        72.96654
728.75        73.08771
729.17        73.01843
729.59        72.81541
730.01        72.53835
730.43        72.33945
730.85        72.26781
731.27        72.17164
731.69        72.01931
732.10        72.33099
732.52        72.17323
732.94        72.34286
733.36        72.53085
733.78        72.57968
734.20        72.45049
734.62        72.65725
735.04         72.1355
735.46         72.4446
735.88        73.10864
736.30        72.93882
736.72        72.54272
737.13        72.30613
737.55        72.45253
737.97        72.57441
738.39        72.63242
738.81        72.67516
739.23        72.69073
739.65        72.76617
740.06        72.84204
740.48        72.83981
740.90        72.72083
741.32        72.60896
741.74         72.4477
742.16        72.41299
742.57        72.50209
742.99        72.67654
743.41        72.87348
743.83         72.9765
744.25        72.95529
744.67        72.83253
745.08        72.68867
745.50        72.61381
745.92        72.65493
746.34        72.79037
746.75        72.93284
747.17        72.95474
747.59        72.82945
748.01        72.54037
748.42        72.23436
748.84          72.224
749.26        72.47894
749.68         72.7767
750.09        72.98374
750.51        72.84411
750.93        72.48495
751.35        72.54537
751.76        72.97457
752.18        73.09554
752.60        72.88515
753.01        72.77699
753.43        72.80293
753.85         72.7878
754.27        72.72849
754.68        72.81612
755.10        72.99453
755.52        72.86356
755.93        73.20269
756.35        73.36253
756.77        73.53178
757.18        73.64929
757.60        73.74472
758.02         73.6623
758.43        73.42785
758.85        73.56194
759.26        74.06062
759.68        73.45236
760.10        73.77901
760.51        73.35951
760.93        73.21983
761.34        73.35137
761.76        73.97903
762.18        74.00561
762.59        73.54272
763.01        73.33924
763.42        73.54078
763.84        73.59396
764.26        73.53827
764.67        73.81888
765.09        74.29606
765.50        74.24503
765.92        73.76723
766.33        73.50565
766.75        73.49249
767.16        73.45379
767.58        73.35221
768.00         73.5124
768.41        73.87093
768.83        73.92445
769.24        73.70667
769.66        73.73444
770.07        73.94899
770.49        73.91468
770.90        73.67712
771.32        73.64417
771.73        73.82894
772.15        73.90462
772.56        73.88244
772.97        73.95578
773.39        74.03807
773.80        73.96896
774.22        73.82745
774.63        73.44937
775.05        73.90739
775.46        73.99084
775.88        73.98059
776.29        74.09524
776.70        74.31377
777.12        74.46967
777.53        74.55553
777.95        74.61349
778.36        74.65195
778.77         74.6665
779.19         74.6574
779.60        74.61963
780.02        74.59106
780.43        74.61909
780.84        74.67669
781.26        74.88191
781.67        75.19867
782.09         75.0435
782.50        74.42522
782.91        74.91761
783.33        74.56747
783.74        74.64591
784.15        74.56026
784.57        74.50704
784.98        74.51241
785.39        74.71436
785.81        75.03548
786.22         75.0605
786.63        74.85555
787.04        74.90359
787.46        75.23768
787.87         75.5753
788.28        75.81153
788.70        75.93433
789.11        75.90331
789.52        75.61594
789.93        75.23258
790.35        75.27038
790.76        75.68667
791.17        75.78221
791.58        75.51034
792.00        75.40091
792.41        75.48796
792.82        75.29182
793.23        74.93513
793.65        75.16246
794.06        75.91774
794.47        76.27255
794.88        76.07711
795.29        76.52328
795.71        76.27381
796.12        75.98201
796.53        75.40996
796.94         75.4334
797.35         75.9808
797.76        76.08107
798.18        75.73922
798.59        75.67973
799.00        75.91666
799.41         75.9938
799.82        75.90459
800.23        75.88742
800.64        75.95035
801.06        75.99383
801.47        76.03795
801.88        76.03368
802.29         75.9798
802.70        75.92052
803.11        75.85794
803.52        75.78171
803.93        75.69495
804.34        75.58627
804.75        75.54145
805.17        75.64806
805.58        75.93172
805.99        76.45575
806.40        77.01467
806.81        76.96082
807.22        76.37557
807.63        76.02503
808.04        76.00363
808.45        75.89297
808.86        75.72517
809.27        75.82283
809.68        76.12439
810.09         76.3229
810.50        76.36347
810.91        76.34033
811.32        76.27969
811.73        76.23536
812.14        76.23244
812.55        76.19309
812.96        76.13489
813.37        76.21833
813.78        76.39623
814.19        76.40459
814.60         76.2718
815.01         76.2613
815.42        76.38669
815.83        76.49422
816.24        76.56845
816.65        76.65899
817.05        76.76118
817.46        76.82267
817.87        76.86089
818.28        76.85245
818.69        76.79668
819.10        76.70071
819.51        76.60375
819.92        76.57313
820.33        76.62779
820.74         76.7514
821.14        76.88439
821.55        76.96745
821.96          76.965
822.37        76.89552
822.78        76.80584
823.19        76.78088
823.60        76.84482
824.00        76.99165
824.41        77.12144
824.82        77.16553
825.23        77.10471
825.64        76.97456
826.04        76.85432
826.45        76.82959
826.86        76.93796
827.27        77.14656
827.68        77.40109
828.08        77.64501
828.49        77.77547
828.90        77.83881
829.31        77.85719
829.72        77.87251
830.12         77.9198
830.53        77.93896
830.94        77.91311
831.35        77.78149
831.75        77.56415
832.16         77.2421
832.57        76.92467
832.97        76.75587
833.38        76.76534
833.79         76.9187
834.20        77.12741
834.60        77.24937
835.01        77.26274
835.42        77.19926
835.82        77.12981
836.23        77.09755
836.64        77.14933
837.04        77.27234
837.45        77.39436
837.86        77.50309
838.26        77.59866
838.67        77.68449
839.08        77.75855
839.48         77.7956
839.89        77.79461
840.29        77.75065
840.70        77.72484
841.11        77.82335
841.51        78.07322
841.92        78.40163
842.33         78.7029
842.73        78.79338
843.14        78.58535
843.54        78.17835
843.95        77.70496
844.35        77.40129
844.76        77.32895
845.17        77.43127
845.57        77.64163
845.98        77.80229
846.38        77.88454
846.79        77.90308
847.19        77.90071
847.60        77.88857
848.00        77.89866
848.41        77.87819
848.81        77.84392
849.22        77.75648
849.62        77.65237
850.03          77.528
850.43        77.42719
850.84        77.32407
851.24        77.27526
851.65        77.22955
852.05        77.27473
852.46         77.4334
852.86        77.68526
853.27        78.00874
853.67        78.25439
854.07        78.41386
854.48        78.43581
854.88        78.37878
855.29        78.16635
855.69         77.8893
856.10        77.49699
856.50        77.07862
856.90        76.68847
857.31        76.44051
857.71        76.40569
858.12        76.49901
858.52        76.68726
858.92        76.77736
859.33        76.69238
859.73        76.50896
860.13        76.23302
860.54        75.91768
860.94        75.63678
861.34        75.34702
861.75        75.05154
862.15        74.81126
862.55        74.62033
862.96        74.51807
863.36        74.47288
863.76         74.4065
864.17         74.2985
864.57         74.1561
864.97        74.10175
865.38        74.32191
865.78         74.8719
866.18        75.65794
866.58        76.38514
866.99        76.54995
867.39        76.07349
867.79        75.10467
868.19        74.00917
868.60        73.28559
869.00        73.05474
869.40        73.21467
869.80        73.60851
870.21        73.93195
870.61        74.13288
871.01        74.24345
871.41        74.30487
871.81        74.37481
872.22        74.44263
872.62        74.48064
873.02        74.49489
873.42        74.51413
873.82        74.54475
874.22        74.61127
874.63        74.68391
875.03        74.67222
875.43        74.58443
875.83        74.43987
876.23        74.34303
876.63        74.46969
877.03        74.83661
877.44        75.35632
877.84        75.86678
878.24        76.06756
878.64        75.88542
879.04        75.43079
879.44        74.85342
879.84        74.35598
880.24        74.00476
880.64        73.75878
881.04        73.60363
881.44        73.51677
881.84        73.48006
882.24        73.49108
882.65        73.53835
883.05        73.68984
883.45        73.89601
883.85        74.14982
884.25        74.33434
884.65        74.28774
885.05        73.99938
885.45        73.50634
885.85        73.03291
886.25        72.96717
886.65        73.38651
887.05        74.16835
887.45        74.99105
887.85         75.3624
888.25        75.17157
888.65        74.55508
889.04        73.80071
889.44        73.43176
889.84        73.57426
890.24        74.08284
890.64        74.68445
891.04        74.94916
891.44        74.77926
891.84        74.32729
892.24        73.84846
892.64         73.7295
893.04        74.05936
893.44        74.70002
893.83        75.44079
894.23        75.89043
894.63        75.96278
895.03        75.75152
895.43         75.4278
895.83        75.27024
896.23        75.34816
896.63         75.5677
897.02        75.75767
897.42        75.70773
897.82        75.37368
898.22         74.8671
898.62        74.35075
899.01        74.09703
899.41        74.15997
899.81         74.4485
900.21        74.86407
900.61         75.2451
901.00        75.50441
901.40        75.69915
901.80        75.77739
902.20        75.67292
902.59         75.4088
902.99        74.99208
903.39        74.56362
903.79        74.35099
904.18        74.40742
904.58         74.6834
904.98        75.05631
905.38        75.34527
905.77        75.48409
906.17        75.51077
906.57         75.4773
906.96        75.49636
907.36        75.57133
907.76        75.69689
908.15        75.77956
908.55        75.59712
908.95         75.1649
909.34         74.5461
909.74        74.01942
910.14        73.94952
910.53        74.40474
910.93        75.24404
911.33        76.18059
911.72        76.71704
912.12        76.70322
912.52        76.32281
912.91         75.7825
913.31        75.41719
913.70        75.30567
914.10        75.31757
914.49        75.44403
914.89         75.6055
915.29        75.77258
915.68        75.98386
916.08         76.1359
916.47        76.04688
916.87        75.71767
917.26        75.17679
917.66        74.62566
918.05        74.35456
918.45        74.41792
918.84        74.75877
919.24        75.17162
919.64        75.39153
920.03        75.36414
920.42        75.17762
920.82        74.96078
921.21        74.90604
921.61        75.04573
922.00        75.29851
922.40        75.62526
922.79        76.04472
923.19        76.47047
923.58        76.93764
923.98        77.23531
924.37        77.09781
924.77        76.49263
925.16        75.48903
925.55        74.42368
925.95        73.88489
926.34        74.03474
926.74        74.70676
927.13        75.57834
927.52        76.01557
927.92        75.88692
928.31        75.36861
928.70        74.76907
929.10        74.55506
929.49        74.83637
929.89        75.41165
930.28        76.10375
930.67         76.4905
931.07        76.42742
931.46        76.09204
931.85        75.60322
932.24        75.17115
932.64        74.87738
933.03        74.65261
933.42        74.52119
933.82         74.5255
934.21        74.65941
934.60        74.93183
934.99        75.24071
935.39        75.37514
935.78        75.31867
936.17        75.10155
936.56        74.84593
936.96        74.76609
937.35        74.96019
937.74        75.31421
938.13        75.70123
938.53         75.9462
938.92         76.0019
939.31        75.90546
939.70        75.71666
940.09        75.53672
940.49        75.38529
940.88        75.28391
941.27        75.17252
941.66        74.96202
942.05        74.65668
942.44        74.31683
942.84        74.07405
943.23        74.07612
943.62        74.37627
944.01        74.89907
944.40        75.52402
944.79        76.03307
945.18        76.32118
945.57         76.4204
945.97        76.31303
946.36        76.06122
946.75        75.67265
947.14        75.14297
947.53        74.56378
947.92         74.1061
948.31        73.83752
948.70        73.75317
949.09         73.7797
949.48        73.77248
949.87        73.69601
950.26        73.59203
950.65        73.52515
951.04        73.60107
951.43        73.83327
951.82        74.16051
952.21        74.49709
952.60        74.70993
952.99        74.74557
953.38        74.63557
953.77        74.42052
954.16        74.16302
954.55        73.89201
954.94        73.59856
955.33        73.28447
955.72        72.95796
956.11        72.61964
956.50        72.26849
956.89        71.94096
957.28        71.67796
957.66        71.53217
958.05        71.52515
958.44        71.56122
958.83        71.47736
959.22        71.24123
959.61        70.83251
960.00        70.52525
960.39        70.76579
960.78        71.59074
961.16        72.89693
961.55        74.05688
961.94        74.09642
962.33         72.8415
962.72        70.69628
963.11        68.44651
963.49        67.23431
963.88        67.32606
964.27        68.38887
964.66        69.98342
965.04         71.2995
965.43        71.91561
965.82        72.10389
966.21          72.012
966.60        71.88245
966.98        71.82404
967.37        71.66694
967.76        71.46687
968.15        71.35992
968.53        71.40156
968.92        71.62393
969.31         71.9165
969.69        72.04958
970.08        71.98041
970.47        71.77898
970.86        71.66858
971.24        72.05077
971.63        72.90184
972.02        74.03606
972.40        75.17773
972.79        75.83287
973.17        75.99741
973.56        75.74443
973.95        75.25419
974.33        74.81586
974.72        74.52779
975.11        74.28338
975.49         74.0345
975.88         73.7311
976.26        73.37125
976.65        73.03292
977.04        72.65001
977.42          72.061
977.81         71.2197
978.19        70.13828
978.58        69.26374
978.96        69.30666
979.35        70.36839
979.74        72.25673
980.12        74.30569
980.51        75.22137
980.89        74.82156
981.28        73.34793
981.66        71.54528
982.05        70.83247
982.43        71.60831
982.82        73.35759
983.20        75.42677
983.59        76.65919
983.97        76.82525
984.35        76.22434
984.74        75.14353
985.12        74.08389
985.51         73.2931
985.89        72.67677
986.28        72.23675
986.66        72.05706
987.04        72.08048
987.43        72.27011
987.81        72.60728
988.20        72.92445
988.58        73.18224
988.96        73.39102
989.35        73.33171
989.73         72.7729
990.12        71.64367
990.50        69.93146
990.88         68.1047
991.27        67.29074
991.65        67.86024
992.03        69.46822
992.42        71.18507
992.80        72.13499
993.18        72.04574
993.56        71.13166
993.95        69.76894
994.33        68.81917
994.71        68.82248
995.10        69.34151
995.48        70.02732
995.86        70.40271
996.24        70.38632
996.63        70.10297
997.01         69.7336
997.39        69.52741
997.77        69.60553
998.15         69.8755
998.54        70.09852
998.92        69.98566
999.30        69.49387
999.68        68.75628
1000.06        68.08222
1000.45        67.97816
1000.83        68.61802
1001.21        69.69812
1001.59        70.93018
1001.97        71.91599
1002.35        72.56196
1002.73        73.08621
1003.12        73.28164
1003.50        72.64687
1003.88        71.29009
1004.26        69.40363
1004.64        67.91569
1005.02        68.00089
1005.40        69.73254
1005.78         72.8249
1006.16        76.16527
1006.54        77.67818
1006.92        76.75272
1007.30        73.94289
1007.69        70.58511
1008.07        68.88029
1008.45        69.50168
1008.83        71.71243
1009.21        74.32481
1009.59         75.6325
1009.97        75.14764
1010.35        73.25432
1010.73        70.57084
1011.11         68.7234
1011.49        68.58777
1011.86        69.76379
1012.24        71.29891
1012.62        72.12899
1013.00        72.02658
1013.38        71.44921
1013.76        70.78854
1014.14        70.64104
1014.52        71.19969
1014.90        72.15301
1015.28        73.41306
1015.66        74.80715
1016.04        76.10344
1016.41        77.42559
1016.79        78.12747
1017.17        77.65813
1017.55        76.01784
1017.93        73.39494
1018.31        70.64438
1018.69        69.10798
1019.06        69.15582
1019.44        70.58388
1019.82        72.51551
1020.20        73.08042
1020.58         71.7017
1020.95        68.99975
1021.33        66.21444
1021.71        64.85207
1022.09        65.08871
1022.46        66.37663
1022.84        67.87262
1023.22        67.92645
1023.60        65.95544
1023.97        62.08175
1024.35        57.41021
1024.73        54.18136
