SpectraSmart Spectrum 2.9.0.0
--------- Device Information -----------
Spectrum Name :  反射率_0
Saving Time :  2024/04/27 23:37:55
Spectro-Module Model Name : SE2030-DUVN
Spectro-Module Serial Number : OS361AC55029948
Wavelength Start : 200
Wavelength End : 1025
Wavelength Unit : Wavelength(nm)
Spectrum Unit : Reflectance(%)
-----------Spectrum Setting ------------
Integration Time : 20ms
Average : 10
Boxcar : 0
Background removal :  enabled
linearity correction :  enabled
SC :  disabled
Intensity correction :  disabled
DWT denoise :  enabled
savitzky-golay :  disabled
FFT :  disabled
Running average :  disabled
Kalman :  disabled
High pass :  disabled
---------------BEGIN--------------------
Wavelength(nm)             Reflectance(%)
200.29               0
200.75        47.47479
201.21        65.48523
201.67        79.48576
202.13        85.72506
202.58        86.95025
203.04        86.07552
203.50        83.86189
203.96        81.58675
204.42         79.9021
204.88        78.31172
205.34        77.36802
205.80        77.78315
206.26        79.49994
206.72        82.85268
207.18        86.94888
207.64        85.79961
208.10         78.3864
208.55        71.29597
209.01        65.69355
209.47        60.32745
209.93        52.45861
210.39        34.17102
210.85       -16.64399
211.31       -62.02792
211.77        22.90579
212.23         69.9922
212.69        83.81959
213.14        84.43255
213.60        76.43202
214.06        58.12669
214.52        26.52486
214.98        4.061682
215.44        14.84747
215.90        38.00784
216.36        56.54185
216.81        65.16049
217.27        66.64227
217.73          64.724
218.19        60.68726
218.65        55.97715
219.11        51.47455
219.57        46.49931
220.02         41.7485
220.48        40.70501
220.94         43.7532
221.40        49.29047
221.86        55.73503
222.32        61.53909
222.77        66.18909
223.23        69.82507
223.69        71.68966
224.15        70.86391
224.61        67.51065
225.06        61.73498
225.52        55.46261
225.98        52.40524
226.44        53.15782
226.90        55.75372
227.36        57.99503
227.81        57.97455
228.27         55.7501
228.73        51.93312
229.19        47.26818
229.65         43.5383
230.10        41.57185
230.56        41.10331
231.02        41.48464
231.48        41.90459
231.93        42.02921
232.39        42.20239
232.85        42.52874
233.31        43.15214
233.77        44.05986
234.22        45.18624
234.68        46.15738
235.14        46.66157
235.60        46.67701
236.05        46.19048
236.51        45.83036
236.97        46.74517
237.43        49.22072
237.88        53.00336
238.34        56.60624
238.80        58.84014
239.26        59.50312
239.71         58.4223
240.17         55.9177
240.63        55.43752
241.08        59.28153
241.54        64.54274
242.00        68.19082
242.46        69.04166
242.91        67.31537
243.37        61.79448
243.83        50.04044
244.28        36.53574
244.74        39.27245
245.20        56.33894
245.66        69.60217
246.11        72.54775
246.57        67.10255
247.03        53.02874
247.48        30.06575
247.94        13.87015
248.40        20.97249
248.85         41.7819
249.31        63.50981
249.77        76.15038
250.22        80.04364
250.68        79.76031
251.14        77.44999
251.59        74.28741
252.05        70.34727
252.51        64.13058
252.96        55.23254
253.42        48.36555
253.88        47.23297
254.33        50.64616
254.79         55.0843
255.25        57.55109
255.70         58.1903
256.16        58.41165
256.62        58.83195
257.07         60.1004
257.53        62.11148
257.99        63.82706
258.44        64.62576
258.90        64.40334
259.35        63.04366
259.81        61.34232
260.27        59.36495
260.72        57.24401
261.18        55.45777
261.63        53.74425
262.09        52.38662
262.55         51.3168
263.00        50.39767
263.46         49.7064
263.91        49.06082
264.37        48.54029
264.83         48.0535
265.28        47.57247
265.74        47.07657
266.19        46.34402
266.65        45.43953
267.11         44.3791
267.56        43.30431
268.02        42.54609
268.47        42.11121
268.93        41.90067
269.38        41.73752
269.84        41.36738
270.30        40.71717
270.75        39.88457
271.21        38.92457
271.66        37.87611
272.12        36.81499
272.57        35.70158
273.03        34.70098
273.48        33.98588
273.94        33.61791
274.39        33.49597
274.85         33.4577
275.31        33.18781
275.76        32.61193
276.22        31.84908
276.67        31.02826
277.13        30.43322
277.58        30.05927
278.04        29.85925
278.49        29.62911
278.95        29.18821
279.40        28.46564
279.86        27.60837
280.31        26.75372
280.77        26.20615
281.22        25.97249
281.68         25.9917
282.13        26.06301
282.59        25.95417
283.04        25.60963
283.50        25.12173
283.95        24.63926
284.41        24.42284
284.86         24.4949
285.32        24.76923
285.77        25.05387
286.22        25.11087
286.68        24.91779
287.13        24.53918
287.59        24.14722
288.04        23.92649
288.50        23.94807
288.95        24.10785
289.41        24.33049
289.86        24.46293
290.32        24.48483
290.77        24.44435
291.22        24.38882
291.68        24.37639
292.13        24.42719
292.59        24.54295
293.04        24.73335
293.50        25.04059
293.95        25.46162
294.40        26.00095
294.86        26.64052
295.31        27.33681
295.77        28.08414
296.22        28.87601
296.68         29.7204
297.13        30.60688
297.58         31.5273
298.04        32.46331
298.49        33.40694
298.95        34.37548
299.40        35.37495
299.85        36.42002
300.31        37.51306
300.76         38.6048
301.21        39.69303
301.67        40.79015
302.12        41.90484
302.58         43.1105
303.03        44.38687
303.48        45.71736
303.94         47.0784
304.39        48.37217
304.84        49.60363
305.30        50.81255
305.75        51.98936
306.20        53.18296
306.66        54.41888
307.11        55.63724
307.57        56.87375
308.02        58.09067
308.47        59.28717
308.93        60.46946
309.38        61.56134
309.83        62.51452
310.29        63.34683
310.74        64.06128
311.19        64.74377
311.65        65.51416
312.10        66.36531
312.55         67.2607
313.00        68.13347
313.46        68.88641
313.91        69.48846
314.36        69.98856
314.82         70.4107
315.27        70.78749
315.72        71.14011
316.18        71.46681
316.63        71.79263
317.08        72.19128
317.53        72.67028
317.99        73.20502
318.44        73.73412
318.89        74.13147
319.35        74.36719
319.80        74.48392
320.25        74.54462
320.70        74.66157
321.16        74.86051
321.61        75.12386
322.06        75.41677
322.51        75.68855
322.97        75.91008
323.42        76.12775
323.87        76.33416
324.32        76.52933
324.78        76.70621
325.23        76.88393
325.68        77.06428
326.13        77.27638
326.59        77.50184
327.04        77.76509
327.49        78.03201
327.94         78.2715
328.39        78.47652
328.85        78.64174
329.30        78.81062
329.75        78.95183
330.20        79.07306
330.66        79.15607
331.11        79.29789
331.56        79.56303
332.01        79.97073
332.46        80.50082
332.92        81.04583
333.37        81.52307
333.82        81.85383
334.27        82.06463
334.72        82.22625
335.17        82.46545
335.63        82.80261
336.08         83.2466
336.53        83.71633
336.98        84.11093
337.43        84.40581
337.88        84.63753
338.34         84.8686
338.79        85.23183
339.24        85.74542
339.69        86.37567
340.14        87.03603
340.59        87.58923
341.05        88.00056
341.50         88.3121
341.95        88.60474
342.40        89.02412
342.85        89.59633
343.30        90.25938
343.75        90.92017
344.20        91.43071
344.66        91.75893
345.11        91.96246
345.56        92.09136
346.01        92.21938
346.46        92.38432
346.91        92.56374
347.36        92.80375
347.81        93.17526
348.26        93.67522
348.72        94.28292
349.17        94.88726
349.62        95.31992
350.07        95.53877
350.52        95.58739
350.97        95.56211
351.42        95.62518
351.87        95.81805
352.32        96.08733
352.77        96.36258
353.22         96.5388
353.67          96.586
354.13        96.55154
354.58        96.44657
355.03        96.34534
355.48        96.26364
355.93        96.17666
356.38        96.04834
356.83         95.8254
357.28        95.50341
357.73        95.11674
358.18        94.70737
358.63          94.333
359.08         94.0136
359.53        93.73359
359.98         93.4826
360.43         93.2447
360.88        93.00421
361.33        92.75361
361.78         92.4762
362.23        92.15231
362.68        91.77388
363.13        91.33625
363.58        90.83366
364.03        90.30389
364.48        89.68925
364.93        89.06474
365.38        88.44061
365.83        87.86456
366.28        87.34843
366.73        86.88079
367.18        86.45444
367.63        86.05002
368.08        85.65835
368.53        85.28822
368.98        84.91416
369.43        84.49551
369.88        84.02715
370.33        83.51344
370.78        83.00601
371.23        82.59488
371.68        82.29085
372.13        82.05861
372.58        81.82671
373.03        81.47714
373.48        80.98684
373.93        80.40891
374.38        79.79326
374.83        79.21579
375.28        78.70602
375.72        78.21916
376.17        77.81123
376.62        77.50562
377.07        77.28777
377.52        77.13605
377.97        76.96307
378.42        76.63106
378.87          76.122
379.32        75.49403
379.77        74.83188
380.22        74.26151
380.67        73.82149
381.11        73.48105
381.56        73.22369
382.01        73.02888
382.46        72.88021
382.91        72.78151
383.36        72.69674
383.81        72.56619
384.26        72.37243
384.71        72.12186
385.15        71.82463
385.60        71.55918
386.05          71.327
386.50        71.11774
386.95        70.92101
387.40        70.72243
387.85         70.5219
388.29        70.28474
388.74        70.09634
389.19        69.91762
389.64        69.72949
390.09        69.49996
390.54        69.23483
390.98        68.93364
391.43        68.65675
391.88        68.42279
392.33        68.15037
392.78         67.8307
393.23        67.50605
393.67         66.8962
394.12        66.24239
394.57        66.69561
395.02        67.09006
395.47        67.21465
395.91        66.77609
396.36        66.64614
396.81        66.84981
397.26        66.89233
397.71        66.73176
398.15        66.56245
398.60        66.47017
399.05        66.14892
399.50        65.75921
399.95        65.96828
400.39        66.58817
400.84        66.54585
401.29        65.85426
401.74        65.33159
402.18        65.12253
402.63        65.02283
403.08         65.0023
403.53        64.91854
403.97        64.76666
404.42         64.7502
404.87        64.82292
405.32        64.85145
405.76        64.81183
406.21          64.617
406.66        64.38098
407.11        64.54485
407.55        65.00058
408.00        65.11808
408.45        64.85011
408.90         64.3427
409.34        63.81626
409.79        63.86458
410.24        64.36454
410.68        64.51764
411.13        64.27206
411.58        64.13918
412.03        64.17771
412.47        64.23679
412.92        64.29826
413.37        64.41434
413.81        64.53527
414.26        64.63653
414.71        64.69621
415.15        64.74237
415.60        64.76073
416.05        64.78686
416.49        64.83678
416.94        64.88601
417.39         64.9592
417.83        65.09412
418.28         65.2836
418.73        65.50211
419.17        65.70113
419.62        65.80417
420.07         65.8026
420.51         65.7286
420.96        65.62275
421.41        65.52567
421.85        65.43659
422.30        65.31471
422.74        65.21102
423.19        65.46313
423.64        66.00001
424.08        66.43594
424.53        66.59779
424.98        66.74291
425.42        66.87926
425.87        66.62928
426.31        66.19635
426.76        66.38734
427.21        67.09801
427.65        67.32977
428.10        67.07031
428.54        67.10634
428.99        67.47819
429.44        67.82169
429.88        68.02007
430.33        67.96707
430.77        67.73445
431.22        67.75527
431.66        68.06145
432.11        68.58401
432.56        69.26247
433.00        69.55326
433.45        69.17545
433.89        69.22394
434.34        69.89603
434.78        68.27629
435.23        68.06241
435.67        69.33076
436.12        70.20261
436.57        70.72372
437.01        70.21324
437.46        70.05579
437.90        70.72148
438.35        71.18891
438.79        70.99411
439.24        71.05809
439.68        71.27943
440.13        71.51266
440.57        71.72121
441.02        72.23728
441.46        72.81977
441.91        72.48379
442.35        71.53979
442.80        71.67146
443.24        72.70602
443.69        73.08264
444.13        72.72845
444.58        72.73716
445.02        73.08251
445.47        73.21803
445.91        73.15723
446.36        73.12544
446.80        73.10464
447.24        73.18551
447.69        73.48441
448.13        73.13644
448.58        73.97731
449.02        74.03703
449.47         73.9051
449.91        73.89055
450.36        74.03741
450.80        74.07252
451.25        74.03593
451.69         74.1401
452.13        74.37925
452.58        74.63044
453.02        74.83171
453.47        74.91055
453.91        74.83273
454.36        74.75098
454.80        74.64471
455.24         74.1937
455.69        73.81548
456.13        73.57397
456.58        73.58797
457.02        73.88912
457.46        74.18181
457.91        73.91338
458.35        73.43001
458.79        73.17275
459.24          73.258
459.68        73.29012
460.13        73.30123
460.57        73.14695
461.01        73.14694
461.46        73.15905
461.90        73.34571
462.34        72.89701
462.79        72.93701
463.23        72.90694
463.68        73.08627
464.12        72.99744
464.56        72.74445
465.01         72.9248
465.45        73.27534
465.89        73.36209
466.34        73.24274
466.78        72.72599
467.22        71.93439
467.67         72.8982
468.11        72.91723
468.55        72.94025
468.99        72.27951
469.44        72.07537
469.88        72.35074
470.32        72.49306
470.77        72.44861
471.21        72.38187
471.65        72.28645
472.10        72.14196
472.54        71.95661
472.98        71.83458
473.42        71.80588
473.87        71.71419
474.31        71.57551
474.75        71.87348
475.20        72.42519
475.64        72.33532
476.08        71.69274
476.52        71.51505
476.97        71.85308
477.41        71.82043
477.85        71.80762
478.29        72.03835
478.74        72.13889
479.18        71.76048
479.62        72.09233
480.06        71.95766
480.50        71.68642
480.95        71.67882
481.39         72.0316
481.83         71.0949
482.27        71.57423
482.72        71.88469
483.16        71.77039
483.60        71.85359
484.04        71.83804
484.48        71.63467
484.93        71.45549
485.37        71.62251
485.81        72.05393
486.25        72.22411
486.69        72.92828
487.14        71.81053
487.58        71.83577
488.02        72.18015
488.46         72.1767
488.90        72.12289
489.34        71.95158
489.79        70.73741
490.23        71.64554
490.67          71.568
491.11        71.41064
491.55        71.33018
491.99        71.34962
492.43        71.37229
492.88        71.35863
493.32        71.35394
493.76        71.33209
494.20        71.35861
494.64        71.45725
495.08        71.45576
495.52        71.39502
495.96        71.71344
496.41        72.25677
496.85        72.11331
497.29        71.41833
497.73        71.37105
498.17        71.83837
498.61        72.00955
499.05        71.81456
499.49        71.78023
499.93        71.86983
500.37         71.8681
500.82        71.81825
501.26        71.30022
501.70        71.55378
502.14        71.34406
502.58          71.688
503.02        71.84669
503.46          71.716
503.90        71.65019
504.34        71.59685
504.78        71.60819
505.22        71.64671
505.66        71.65392
506.10        71.63868
506.54        71.55653
506.98        71.37109
507.42         71.6622
507.86        71.34441
508.30         71.3846
508.74          71.459
509.18        71.57594
509.62        71.66943
510.06        71.65688
510.50        71.53451
510.94        71.32052
511.38        71.10225
511.82        71.01582
512.26        71.08829
512.70        71.27937
513.14        71.50726
513.58        71.61125
514.02         71.5513
514.46        71.42686
514.90        71.31616
515.34        71.09248
515.78        71.19653
516.22        71.25773
516.66        71.36506
517.10        71.45825
517.54        71.51804
517.98        71.55746
518.42        71.56625
518.86        71.53554
519.30        71.47015
519.74        71.37671
520.18        71.28049
520.62        71.22266
521.06        71.21638
521.50        71.25385
521.93        71.32918
522.37        71.41467
522.81        71.50146
523.25        71.58569
523.69        71.65765
524.13        71.70383
524.57        71.72054
525.01        71.71129
525.45        71.67272
525.89         71.6024
526.32        71.50119
526.76        71.38776
527.20        71.28681
527.64        71.24432
528.08        71.26635
528.52         71.3363
528.96        71.41868
529.40         71.4557
529.83        71.42633
530.27        71.36282
530.71        71.27631
531.15        71.19551
531.59        71.13338
532.03         71.0816
532.46        71.04181
532.90        71.04042
533.34        71.06995
533.78        71.12199
534.22        71.17527
534.66        71.19639
535.09        71.16753
535.53        71.11837
535.97        71.04662
536.41        70.96574
536.85        70.88769
537.28        70.81956
537.72        70.77175
538.16        70.75143
538.60        70.76051
539.04        70.80227
539.47        70.85995
539.91        70.94719
540.35        71.03932
540.79        71.15082
541.22        71.22586
541.66        71.18627
542.10        71.02538
542.54        70.77157
542.97        70.51993
543.41        70.45877
543.85        70.60291
544.29        70.89869
544.72        71.21117
545.16        71.35906
545.60        71.28128
546.04        71.04715
546.47        70.76043
546.91        70.56179
547.35        70.50797
547.79        70.63737
548.22          70.828
548.66        70.83999
549.10        70.65915
549.53        70.52074
549.97        70.48441
550.41        70.49434
550.84        70.56176
551.28        70.73168
551.72        70.95741
552.15        71.10149
552.59        71.08264
553.03        71.13898
553.46        70.89446
553.90        70.75656
554.34        70.54452
554.77        71.26924
555.21        71.06811
555.65         71.0283
556.08        71.06298
556.52        70.88699
556.96        70.70012
557.39        70.74548
557.83         71.0037
558.27        71.06023
558.70        70.91854
559.14        70.88451
559.57        70.94221
560.01        71.01403
560.45        71.04527
560.88        70.89661
561.32        70.70729
561.75        70.71474
562.19         70.9268
562.63        71.18943
563.06        71.36961
563.50        71.19746
563.93        70.75623
564.37        70.56407
564.80        70.63789
565.24        70.73943
565.68        70.81864
566.11        70.89707
566.55        70.98078
566.98        71.06258
567.42        71.14505
567.85        71.15401
568.29        71.16214
568.72        71.12178
569.16        71.08358
569.60         71.2608
570.03        71.49477
570.47        71.31555
570.90        71.55716
571.34           71.76
571.77        71.79305
572.21        71.45718
572.64        71.68313
573.08        71.20443
573.51         71.4029
573.95        71.43961
574.38        71.59924
574.82        71.44801
575.25        71.46866
575.69         71.5277
576.12         71.1729
576.56        71.45504
576.99        71.40842
577.42        71.52039
577.86        71.62976
578.29        71.93233
578.73        71.56681
579.16        71.59293
579.60        71.71754
580.03        71.61391
580.47        71.12448
580.90        71.81847
581.33        72.10632
581.77        71.56375
582.20        71.86442
582.64        71.70166
583.07        71.56799
583.51        71.39788
583.94        71.52235
584.37        71.54735
584.81        71.54836
585.24        71.52356
585.68        71.54425
586.11        71.76867
586.54        71.84321
586.98        71.69437
587.41        71.72137
587.85        71.23536
588.28        71.66149
588.71        71.11159
589.15        71.55257
589.58        71.07834
590.01        71.30333
590.45        71.50068
590.88        70.84128
591.31        70.87654
591.75        71.20614
592.18        71.15356
592.61        70.84933
593.05        71.19493
593.48        71.99236
593.91        71.25642
594.35        71.13077
594.78        71.35529
595.21        71.26717
595.65        71.42853
596.08        71.07278
596.51        71.33591
596.94        70.92916
597.38        70.97472
597.81        71.22202
598.24        70.96284
598.68        71.38298
599.11        71.26277
599.54        71.51585
599.97        71.44971
600.41        71.72296
600.84        71.70509
601.27        71.50042
601.70        71.44579
602.14        70.89541
602.57        71.18132
603.00        71.22385
603.43         71.5816
603.87         71.5472
604.30        71.14337
604.73        71.19015
605.16        71.42281
605.60        71.34817
606.03        71.58747
606.46        71.85512
606.89         71.7961
607.32        71.55952
607.76        72.13536
608.19          71.731
608.62        71.76435
609.05        71.72761
609.48        71.68655
609.92        71.59432
610.35        71.70509
610.78        71.58953
611.21        71.31748
611.64        71.60247
612.07        71.47787
612.50        71.22424
612.94        71.16991
613.37        71.39654
613.80         71.2505
614.23        71.54713
614.66         71.5813
615.09        71.56091
615.52         71.5627
615.96        71.65488
616.39         71.2091
616.82        71.51369
617.25        71.43756
617.68        71.52833
618.11        71.49293
618.54        71.42161
618.97        71.56166
619.40        71.84898
619.84        71.63006
620.27        71.74965
620.70        71.46027
621.13        71.01544
621.56        71.32481
621.99        71.16904
622.42        71.04492
622.85        71.06647
623.28        71.48329
623.71        71.29749
624.14        71.05568
624.57        71.27732
625.00        71.25948
625.43        71.08936
625.86         71.1061
626.29        71.25881
626.72        71.19895
627.15        71.11695
627.58        71.04568
628.01        71.17336
628.44        70.87924
628.87        70.80231
629.30        71.45381
629.73        71.14118
630.16        70.51708
630.59        70.86333
631.02        70.83864
631.45        70.94875
631.88        70.91203
632.31         70.7177
632.74        70.94016
633.17        70.71103
633.60        70.73065
634.03        70.74004
634.46        70.76391
634.89         70.7938
635.32        70.81959
635.75        70.84181
636.18        70.88724
636.61        70.93915
637.04        70.88676
637.47        70.76634
637.89        70.78745
638.32        70.91631
638.75        70.94402
639.18        70.85509
639.61        70.81911
640.04        70.86703
640.47        70.71316
640.90        70.84008
641.33        70.83423
641.76        70.80461
642.18        70.86201
642.61        70.71974
643.04        70.60855
643.47        70.46998
643.90        70.35966
644.33         70.2905
644.76        70.25659
645.18        70.25118
645.61        70.24381
646.04        70.22891
646.47         70.2132
646.90        70.21007
647.33        70.23307
647.75        70.28844
648.18         70.3883
648.61        70.50079
649.04         70.5588
649.47        70.56081
649.89        70.53214
650.32        70.51846
650.75        70.59877
651.18         70.7358
651.61        70.83947
652.03        70.82797
652.46        70.57728
652.89        70.27893
653.32        70.12575
653.74        70.49103
654.17        71.16679
654.60        70.76865
655.03        71.02233
655.46        70.72896
655.88        71.28784
656.31        72.03905
656.74        73.98956
657.16        72.94129
657.59        72.32353
658.02        70.98875
658.45        71.29931
658.87        71.28612
659.30        71.09814
659.73        70.75814
660.15        70.53921
660.58        70.38126
661.01        70.54159
661.44        70.82257
661.86        70.94384
662.29         70.8462
662.72        70.57078
663.14        70.28514
663.57        70.44873
664.00        70.97033
664.42        71.16557
664.85        70.99617
665.27        70.86816
665.70        70.83188
666.13        70.78223
666.55        70.74149
666.98        70.73341
667.41        70.75257
667.83        70.78808
668.26        70.82207
668.69         70.8601
669.11         70.9027
669.54        70.94124
669.96        70.97997
670.39        71.01701
670.82        71.05058
671.24        71.06486
671.67        71.07006
672.09        71.07604
672.52        71.10389
672.94        71.15146
673.37        71.20619
673.80         71.1856
674.22        71.11514
674.65        71.07359
675.07        71.08819
675.50        71.08273
675.92        71.07013
676.35        71.08562
676.77        71.13342
677.20        71.20719
677.62        71.28117
678.05        71.28511
678.47         71.2089
678.90        71.12437
679.32        71.00952
679.75         71.0188
680.17        71.14666
680.60        71.37294
681.02        71.60857
681.45        71.72277
681.87        71.70234
682.30         71.4781
682.72        71.18151
683.15        71.25414
683.57        71.63824
684.00        71.68571
684.42         71.4243
684.85        71.41531
685.27        71.65593
685.70        71.82362
686.12        71.87505
686.54        71.92439
686.97        71.94246
687.39        71.89946
687.82        71.82954
688.24        71.65629
688.66        71.74023
689.09        71.76846
689.51        71.82289
689.94        71.82178
690.36        71.76241
690.78        71.66245
691.21        71.55514
691.63        71.48934
692.06        71.48093
692.48        71.51206
692.90        71.56086
693.33        71.56712
693.75        71.52397
694.17        71.48405
694.60        71.46034
695.02        71.38706
695.44        71.49204
695.87        71.51174
696.29        71.53121
696.71        71.74179
697.14        72.04501
697.56        72.06263
697.98        71.83032
698.41        71.78996
698.83        71.93889
699.25        72.05967
699.68        72.10152
700.10        72.14716
700.52         72.1764
700.94        72.17406
701.37        72.13483
701.79        72.08988
702.21        72.02869
702.64        71.96418
703.06        71.89974
703.48        71.85984
703.90        71.85554
704.33        71.87789
704.75        71.92006
705.17        71.94671
705.59        71.95152
706.01        71.91512
706.44         71.8692
706.86        72.00449
707.28        72.12546
707.70        72.34147
708.12         72.5385
708.55        72.66027
708.97        72.66269
709.39        72.49946
709.81        72.24654
710.23        72.11823
710.66        72.15872
711.08        72.29808
711.50        72.45717
711.92        72.55917
712.34        72.57647
712.76        72.52944
713.19        72.45403
713.61        72.45841
714.03        72.54277
714.45        72.67796
714.87        72.81068
715.29        72.86075
715.71        72.81328
716.13        72.69833
716.56        72.55464
716.98        72.52608
717.40         72.6173
717.82        72.79148
718.24        72.99792
718.66        73.15334
719.08        73.23273
719.50        73.25271
719.92        73.22819
720.34         73.1809
720.76        73.12438
721.19        73.04575
721.61        72.96776
722.03        72.89752
722.45        72.84105
722.87        72.80083
723.29        72.78841
723.71        72.81456
724.13        72.88128
724.55        72.99078
724.97        73.11237
725.39        73.19616
725.81        73.23025
726.23          73.218
726.65        73.21005
727.07        73.29226
727.49        73.47503
727.91        73.72742
728.33        73.96539
728.75        74.04885
729.17        73.94827
729.59        73.71465
730.01        73.43628
730.43        73.25793
730.85        73.21892
731.27        73.26863
731.69        73.37508
732.10        73.48638
732.52         73.5653
732.94        73.69108
733.36        73.83433
733.78        73.82228
734.20        73.62945
734.62        73.80182
735.04        73.25989
735.46        73.53291
735.88        74.10877
736.30         74.1028
736.72        73.57751
737.13        73.37465
737.55        73.53513
737.97        73.81684
738.39         74.0752
738.81        73.83791
739.23        73.24142
739.65        73.27613
740.06         73.8352
740.48         74.0149
740.90        73.75227
741.32        73.64074
741.74        73.63187
742.16        73.67103
742.57        73.74181
742.99         73.8723
743.41        74.00826
743.83        74.04671
744.25        73.97021
744.67        73.79357
745.08        73.61801
745.50        73.57341
745.92        73.70888
746.34        73.98389
746.75        74.27827
747.17         74.4128
747.59         74.3424
748.01        74.05927
748.42        73.71707
748.84        73.64474
749.26        73.81865
749.68        74.01726
750.09        74.14049
750.51        73.91143
750.93        73.45359
751.35        73.55399
751.76        74.17596
752.18        73.94796
752.60        73.93208
753.01        73.76357
753.43        73.68186
753.85        73.66835
754.27        73.70622
754.68        73.80656
755.10         73.9407
755.52        74.09361
755.93        74.26498
756.35        74.45219
756.77         74.5703
757.18        74.71766
757.60          74.949
758.02        74.70424
758.43        74.02602
758.85        75.05856
759.26        75.36862
759.68        74.97578
760.10        74.73373
760.51        74.05517
760.93        74.26678
761.34        74.24967
761.76        74.63256
762.18        74.81679
762.59        74.88818
763.01        74.80979
763.42        74.71288
763.84        74.69421
764.26        74.82339
764.67        75.09987
765.09        75.42172
765.50        75.46638
765.92        75.25351
766.33        74.95625
766.75        74.65531
767.16        74.54738
767.58        74.62401
768.00        74.98297
768.41        75.46413
768.83        75.51499
769.24        75.17523
769.66        74.97044
770.07        74.94535
770.49        74.97005
770.90         75.0254
771.32        75.02708
771.73         74.9948
772.15        75.02902
772.56        75.13253
772.97        75.25346
773.39        75.32956
773.80        75.26673
774.22         75.0966
774.63        75.16178
775.05        75.39225
775.46        75.47082
775.88        75.34423
776.29        75.24506
776.70        75.22305
777.12        75.27318
777.53         75.4313
777.95        75.67785
778.36        75.95161
778.77         76.1304
779.19        76.17803
779.60        76.12683
780.02        76.03751
780.43        76.01231
780.84        76.04921
781.26        76.19685
781.67        76.44416
782.09        76.38481
782.50        75.95914
782.91         76.4567
783.33        75.92494
783.74        75.98361
784.15        76.04068
784.57         76.1478
784.98        76.28436
785.39        76.46556
785.81        76.66087
786.22        76.75799
786.63        76.75552
787.04        76.76979
787.46        76.82693
787.87        76.85065
788.28        76.83346
788.70        76.83282
789.11        76.83373
789.52        76.70342
789.93        76.52525
790.35        76.69264
790.76        77.12394
791.17        77.14998
791.58        76.75455
792.00        76.52353
792.41        76.51391
792.82        76.24048
793.23        75.88519
793.65        76.15653
794.06        76.97733
794.47        77.65602
794.88        78.00932
795.29        78.02106
795.71        78.13157
796.12        77.68153
796.53        76.99216
796.94        76.72361
797.35        76.93963
797.76        77.13514
798.18        77.22635
798.59        77.39397
799.00        77.59843
799.41        77.68938
799.82         77.6711
800.23        77.65302
800.64        77.64806
801.06        77.59153
801.47        77.53082
801.88        77.46692
802.29        77.41589
802.70         77.4052
803.11        77.43071
803.52        77.46996
803.93        77.50937
804.34        77.53423
804.75        77.59882
805.17        77.72912
805.58        77.94122
805.99         78.3492
806.40        78.78173
806.81        78.57571
807.22        77.87183
807.63        77.58478
808.04        77.76646
808.45         77.7616
808.86         77.5657
809.27        77.63445
809.68        77.90855
810.09        78.03104
810.50        77.95626
810.91        77.78737
811.32        77.60209
811.73        77.54399
812.14        77.65172
812.55        77.81751
812.96        77.98003
813.37        78.16305
813.78         78.2792
814.19        78.10376
814.60        77.73019
815.01        77.52376
815.42        77.52881
815.83        77.56047
816.24        77.60423
816.65        77.71255
817.05        77.87161
817.46         78.0321
817.87        78.17659
818.28        78.22138
818.69        78.15693
819.10        78.00687
819.51        77.83939
819.92        77.78239
820.33        77.87199
820.74        78.06075
821.14        78.28754
821.55        78.49379
821.96        78.63163
822.37        78.72291
822.78        78.74903
823.19        78.67787
823.60        78.51607
824.00        78.29923
824.41        78.04409
824.82        77.87473
825.23        77.82648
825.64        77.88752
826.04        78.04901
826.45        78.24242
826.86        78.44559
827.27        78.65395
827.68        78.85452
828.08         79.0609
828.49        79.19481
828.90        79.29032
829.31        79.31747
829.72        79.23855
830.12        79.08501
830.53        78.82816
830.94        78.57896
831.35        78.48154
831.75         78.5922
832.16        78.82153
832.57         79.0959
832.97        79.23885
833.38        79.19032
833.79        79.02137
834.20        78.79319
834.60         78.5924
835.01        78.46567
835.42        78.37147
835.82        78.36092
836.23        78.43871
836.64        78.62706
837.04        78.94887
837.45        79.26454
837.86        79.44254
838.26        79.46217
838.67        79.33379
839.08        79.18301
839.48        79.20892
839.89        79.44861
840.29        79.82766
840.70        80.22439
841.11        80.45073
841.51        80.47485
841.92        80.32562
842.33        80.08405
842.73        79.87556
843.14        79.70706
843.54        79.58719
843.95         79.5226
844.35        79.54699
844.76        79.64509
845.17        79.80659
845.57        80.01218
845.98        80.18045
846.38        80.30222
846.79          80.354
847.19        80.32288
847.60        80.13938
848.00        79.83607
848.41         79.4153
848.81        78.99432
849.22        78.68216
849.62        78.56219
850.03         78.5947
850.43        78.75835
850.84        78.91945
851.24        79.09241
851.65        79.23787
852.05        79.45039
852.46        79.75786
852.86        80.12979
853.27        80.52544
853.67        80.77489
854.07        80.85935
854.48         80.7324
854.88        80.46449
855.29        80.02441
855.69          79.598
856.10         79.1657
856.50        78.79857
856.90        78.49737
857.31         78.2805
857.71        78.19606
858.12        78.19718
858.52        78.28071
858.92        78.29979
859.33        78.19925
859.73        78.03836
860.13        77.84505
860.54        77.71156
860.94        77.70245
861.34         77.7455
861.75        77.76704
862.15        77.71478
862.55        77.54958
862.96        77.32712
863.36        77.06388
863.76         76.7701
864.17        76.46105
864.57        76.13683
864.97        75.89571
865.38        75.87412
865.78          76.129
866.18        76.60487
866.58        77.07632
866.99        77.15112
867.39        76.78042
867.79        76.06808
868.19         75.3097
868.60        74.90808
869.00        74.95034
869.40        75.34827
869.80        75.93488
870.21        76.39174
870.61        76.65625
871.01        76.74418
871.41        76.72697
871.81         76.7101
872.22        76.70099
872.62        76.69039
873.02        76.65278
873.42        76.55615
873.82        76.40973
874.22        76.25855
874.63        76.18197
875.03        76.24478
875.43        76.45875
875.83        76.78008
876.23        77.13891
876.63         77.4165
877.03        77.56741
877.44        77.61613
877.84        77.56939
878.24        77.41611
878.64        77.17773
879.04        76.85719
879.44        76.56414
879.84        76.45044
880.24        76.53419
880.64        76.79186
881.04        77.07462
881.44        77.11702
881.84        76.85351
882.24        76.34273
882.65        75.76814
883.05        75.55298
883.45        75.74229
883.85        76.21686
884.25        76.72258
884.65        76.87992
885.05        76.61488
885.45        76.05328
885.85        75.41927
886.25        75.09813
886.65        75.20343
887.05        75.60819
887.45        76.12312
887.85        76.46384
888.25        76.54688
888.65        76.45649
889.04         76.2887
889.44        76.23847
889.84        76.33734
890.24        76.50828
890.64        76.66514
891.04        76.68916
891.44          76.554
891.84        76.31938
892.24        76.04663
892.64        75.81759
893.04        75.67154
893.44        75.59927
893.83        75.61491
894.23        75.67344
894.63         75.7794
895.03        75.91586
895.43        76.08991
895.83        76.30635
896.23        76.54907
896.63        76.81441
897.02        77.00044
897.42        77.00625
897.82        76.81776
898.22        76.47992
898.62        76.16252
899.01        76.16225
899.41        76.51741
899.81        77.14456
900.21        77.84307
900.61         78.2749
901.00        78.33504
901.40        78.14166
901.80        77.81725
902.20        77.57745
902.59        77.50069
902.99        77.49107
903.39        77.54022
903.79        77.62325
904.18        77.71364
904.58        77.85901
904.98        77.98256
905.38        77.96227
905.77        77.78268
906.17        77.47531
906.57        77.17716
906.96         77.1581
907.36        77.44143
907.76        77.95454
908.15        78.50717
908.55        78.70118
908.95        78.47058
909.34        77.91578
909.74        77.26263
910.14        76.80201
910.53        76.63912
910.93        76.68639
911.33        76.86038
911.72        77.01785
912.12        77.08336
912.52        77.10449
912.91         77.1236
913.31        77.23415
913.70        77.44687
914.10        77.72772
914.49        77.99512
914.89        78.04576
915.29        77.85496
915.68        77.45676
916.08        77.05098
916.47         76.9482
916.87        77.21428
917.26        77.73888
917.66        78.25821
918.05        78.31424
918.45        77.81676
918.84        76.94878
919.24        75.99751
919.64        75.52165
920.03        75.68683
920.42        76.31949
920.82         77.1472
921.21        77.73727
921.61        77.94033
922.00        77.86987
922.40        77.70578
922.79         77.8414
923.19        78.31764
923.58        79.03049
923.98        79.63251
924.37        79.67547
924.77        79.07635
925.16        77.97907
925.55          76.809
925.95        76.28432
926.34        76.60116
926.74        77.53679
927.13        78.67233
927.52        79.23225
927.92        79.05759
928.31        78.37911
928.70        77.59547
929.10        77.30827
929.49        77.66502
929.89        78.42065
930.28        79.34586
930.67        79.92079
931.07        79.95636
931.46        79.65189
931.85        79.14597
932.24         78.6801
932.64         78.3531
933.03        78.09595
933.42        77.91852
933.82        77.84258
934.21        77.86777
934.60         78.0114
934.99        78.23656
935.39        78.43568
935.78        78.60355
936.17        78.72739
936.56        78.80843
936.96         78.8566
937.35        78.92173
937.74        78.96413
938.13         78.9698
938.53        78.92297
938.92        78.82897
939.31        78.69233
939.70        78.55478
940.09        78.48489
940.49         78.4721
940.88        78.52602
941.27        78.58035
941.66         78.5378
942.05        78.38412
942.44        78.16924
942.84         77.9469
943.23         77.7507
943.62        77.62654
944.01        77.54648
944.40        77.54613
944.79         77.6843
945.18         77.9458
945.57        78.29688
945.97         78.5811
946.36        78.63837
946.75        78.40893
947.14        77.93906
947.53        77.37499
947.92         76.9828
948.31        76.85564
948.70        76.94627
949.09        77.12836
949.48        77.18837
949.87        77.08519
950.26        76.89688
950.65        76.75973
951.04        76.88791
951.43        77.31432
951.82        77.93275
952.21        78.58633
952.60        79.01544
952.99        79.12007
953.38         78.9717
953.77        78.62804
954.16        78.18303
954.55        77.68897
954.94        77.12691
955.33        76.56786
955.72        76.12792
956.11          75.847
956.50        75.74361
956.89        75.74448
957.28         75.6856
957.66        75.56173
958.05        75.40067
958.44        75.32424
958.83        75.52854
959.22        76.01389
959.61          76.628
960.00         77.2462
960.39         77.6943
960.78        77.89343
961.16        77.93956
961.55        77.65885
961.94        76.89803
962.33        75.72562
962.72        74.28942
963.11        72.98391
963.49        72.36154
963.88        72.52679
964.27        73.33352
964.66        74.48337
965.04        75.42065
965.43         75.8296
965.82        75.86961
966.21         75.6801
966.60        75.51363
966.98        75.46227
967.37        75.38868
967.76        75.26923
968.15        75.06294
968.53        74.80379
968.92        74.58865
969.31        74.46226
969.69        74.43365
970.08        74.50764
970.47        74.66564
970.86        75.02884
971.24        75.81277
971.63        76.89828
972.02        78.13835
972.40        79.24532
972.79        79.71574
973.17        79.56933
973.56        78.89739
973.95        77.95827
974.33        77.19333
974.72        76.76765
975.11        76.56113
975.49        76.51768
975.88        76.54922
976.26        76.61396
976.65        76.76722
977.04        76.87486
977.42        76.66476
977.81          76.046
978.19         75.0564
978.58        74.12269
978.96        73.96705
979.35        74.71591
979.74        76.17087
980.12        77.81822
980.51        78.59793
980.89        78.36189
981.28        77.30212
981.66        75.90993
982.05        75.12262
982.43        75.23675
982.82        75.91045
983.20        76.82695
983.59        77.32426
983.97         77.3118
984.35         76.9731
984.74         76.4287
985.12        75.86732
985.51        75.41058
985.89          75.036
986.28        74.84328
986.66        75.06797
987.04        75.68033
987.43        76.56805
987.81        77.58422
988.20        78.33786
988.58        78.74313
988.96        78.90007
989.35        78.74711
989.73        78.31539
990.12        77.59985
990.50        76.50475
990.88        75.42365
991.27        75.25071
991.65         76.1959
992.03        77.95941
992.42        79.53203
992.80        79.88763
993.18        78.73804
993.56        76.20475
993.95        72.98108
994.33        70.97364
994.71        71.17101
995.10        72.82101
995.48        74.74487
995.86        75.57417
996.24        75.14845
996.63        73.77666
997.01        72.13307
997.39        71.58931
997.77        72.64287
998.15         74.7258
998.54        76.80308
998.92        77.53516
999.30        76.65431
999.68        74.59661
1000.06        72.08855
1000.45        70.45413
1000.83        70.27165
1001.21        71.09008
1001.59        72.38407
1001.97        73.38086
1002.35        73.86092
1002.73         74.1162
1003.12        74.21948
1003.50        74.15168
1003.88        73.98689
1004.26        73.56527
1004.64        73.14026
1005.02        73.08923
1005.40        73.44401
1005.78        74.22741
1006.16        74.93061
1006.54        74.61713
1006.92        73.13121
1007.30        70.75116
1007.69        68.54735
1008.07        68.17884
1008.45        70.02985
1008.83        73.47674
1009.21        77.20747
1009.59        79.38676
1009.97        79.54096
1010.35        77.98596
1010.73         75.4339
1011.11        73.80372
1011.49        74.04231
1011.86        75.66879
1012.24        77.53964
1012.62        78.30863
1013.00        77.73985
1013.38        76.43739
1013.76        75.02787
1014.14        74.47224
1014.52        75.09807
1014.90        76.53629
1015.28        78.58422
1015.66        80.78324
1016.04        82.77164
1016.41        84.74372
1016.79        86.11678
1017.17        86.47659
1017.55        85.84747
1017.93        84.28809
1018.31        82.66557
1018.69        82.39236
1019.06        83.85918
1019.44        86.88309
1019.82        90.27163
1020.20        91.44057
1020.58        89.60625
1020.95        85.59119
1021.33        81.32142
1021.71         79.1579
1022.09        79.38732
1022.46        81.25159
1022.84        83.41389
1023.22        83.31097
1023.60        80.08057
1023.97        74.14075
1024.35        67.03821
1024.73        62.33236
