SpectraSmart Spectrum 2.9.0.0
--------- Device Information -----------
Spectrum Name :  反射率_0
Saving Time :  2024/04/27 23:36:34
Spectro-Module Model Name : SE2030-DUVN
Spectro-Module Serial Number : OS361AC55029948
Wavelength Start : 200
Wavelength End : 1025
Wavelength Unit : Wavelength(nm)
Spectrum Unit : Reflectance(%)
-----------Spectrum Setting ------------
Integration Time : 20ms
Average : 10
Boxcar : 0
Background removal :  enabled
linearity correction :  enabled
SC :  disabled
Intensity correction :  disabled
DWT denoise :  enabled
savitzky-golay :  disabled
FFT :  disabled
Running average :  disabled
Kalman :  disabled
High pass :  disabled
---------------BEGIN--------------------
Wavelength(nm)             Reflectance(%)
200.29               0
200.75        27.53325
201.21        53.75037
201.67        71.24673
202.13        75.74069
202.58        72.07617
203.04        64.01558
203.50        57.04105
203.96        58.72636
204.42        68.06419
204.88        80.25481
205.34        90.64616
205.80        95.53089
206.26        94.61362
206.72        87.73337
207.18        73.71172
207.64        60.23692
208.10        57.50943
208.55        62.67845
209.01        66.41184
209.47        63.97702
209.93        53.03052
210.39        22.70103
210.85       -69.05698
211.31       -175.5046
211.77       -38.54975
212.23        48.38773
212.69        77.85647
213.14        85.17627
213.60        81.35562
214.06        67.75585
214.52        42.35972
214.98        23.79517
215.44        32.05041
215.90        49.79655
216.36        63.85586
216.81        70.13992
217.27        70.73608
217.73        68.81338
218.19        64.79147
218.65        58.74429
219.11        51.05094
219.57        40.94257
220.02        30.49776
220.48        26.82652
220.94        31.53431
221.40        41.66796
221.86         52.3825
222.32        58.82889
222.77        60.95837
223.23         60.5504
223.69        59.09183
224.15        58.06025
224.61        57.72066
225.06        57.31605
225.52        56.97444
225.98        56.58556
226.44        56.12326
226.90        55.72166
227.36        55.14352
227.81        53.95879
228.27        52.10553
228.73        49.55547
229.19         46.4722
229.65        43.51289
230.10        41.08974
230.56        39.45171
231.02        38.35554
231.48        37.47694
231.93        36.65397
232.39        36.02473
232.85        35.81733
233.31        36.36305
233.77        37.59815
234.22        39.41415
234.68        41.04064
235.14        41.62168
235.60        41.02713
236.05        39.25144
236.51        37.38703
236.97        37.70592
237.43        40.92167
237.88        46.49971
238.34        52.00335
238.80        54.96004
239.26        54.80195
239.71        51.10113
240.17         44.3671
240.63        41.81193
241.08        48.79564
241.54        59.47116
242.00        67.64079
242.46        71.31237
242.91        71.47891
243.37        67.97765
243.83        58.31236
244.28        43.16624
244.74        36.59462
245.20        43.05473
245.66         50.9043
246.11        52.68638
246.57        48.66509
247.03        39.75354
247.48        27.15014
247.94        23.43493
248.40        37.85632
248.85        60.60378
249.31         80.1934
249.77        88.89753
250.22        88.88202
250.68        84.64632
251.14        79.96432
251.59        77.88372
252.05        78.57304
252.51        80.87624
252.96         83.2919
253.42        82.08567
253.88        76.11824
254.33        69.54644
254.79        64.49858
255.25        60.40694
255.70        56.97498
256.16        54.47194
256.62        53.78151
257.07        55.94479
257.53        60.00965
257.99        64.13529
258.44        66.76759
258.90        67.03078
259.35         65.0351
259.81        62.11394
260.27        58.81759
260.72        55.83706
261.18        53.69957
261.63        51.92093
262.09        50.60143
262.55        49.49179
263.00        48.43812
263.46         47.5958
263.91        46.85267
264.37          46.359
264.83        46.01455
265.28        45.72118
265.74        45.39594
266.19        44.75989
266.65        43.85986
267.11        42.73869
267.56           41.54
268.02        40.59251
268.47        39.92585
268.93        39.45913
269.38        39.05704
269.84        38.53001
270.30        37.81355
270.75         36.9692
271.21        36.04066
271.66        35.04687
272.12        34.03948
272.57        32.98972
273.03        31.97562
273.48        31.04498
273.94        30.26614
274.39        29.60281
274.85        29.06602
275.31        28.59134
275.76        28.13624
276.22        27.72437
276.67        27.31414
277.13        26.93297
277.58        26.53431
278.04        26.14616
278.49        25.70792
278.95        25.23481
279.40         24.6929
279.86        24.15031
280.31        23.61805
280.77        23.21279
281.22        22.92254
281.68        22.75929
282.13        22.65787
282.59        22.55924
283.04        22.43553
283.50        22.30613
283.95        22.20864
284.41        22.22883
284.86        22.35576
285.32         22.5675
285.77        22.76198
286.22        22.82541
286.68        22.76058
287.13        22.58228
287.59        22.41403
288.04        22.37415
288.50        22.51113
288.95         22.7496
289.41        23.02315
289.86        23.18975
290.32        23.24061
290.77        23.22585
291.22        23.21107
291.68        23.28424
292.13         23.4739
292.59        23.77688
293.04        24.19349
293.50        24.74627
293.95        25.42412
294.40          26.235
294.86        27.16204
295.31        28.16337
295.77        29.23863
296.22        30.38755
296.68        31.61551
297.13        32.90509
297.58        34.24692
298.04        35.62027
298.49        37.04191
298.95        38.57772
299.40        40.23597
299.85        42.01385
300.31        43.85814
300.76        45.62117
301.21        47.27588
301.67        48.86953
302.12        50.45262
302.58        52.18122
303.03        54.05185
303.48        56.02422
303.94        58.06744
304.39        60.05999
304.84        61.99545
305.30        63.91823
305.75        65.79062
306.20        67.63459
306.66        69.47598
307.11         71.2592
307.57         73.0334
308.02        74.76511
308.47        76.45861
308.93        78.11173
309.38        79.66293
309.83         81.1136
310.29        82.48558
310.74         83.7653
311.19        84.97548
311.65        86.12322
312.10        87.18258
312.55        88.16356
313.00        89.08672
313.46        89.99541
313.91        90.88524
314.36        91.75409
314.82        92.57919
315.27        93.31411
315.72        93.94675
316.18        94.51065
316.63        94.99844
317.08        95.43766
317.53        95.84676
317.99        96.21458
318.44        96.58984
318.89        97.02448
319.35        97.52134
319.80        98.07424
320.25        98.61398
320.70        99.03368
321.16        99.30214
321.61        99.47031
322.06        99.60804
322.51        99.84152
322.97        100.1894
323.42        100.6472
323.87        101.1393
324.32        101.5619
324.78        101.8655
325.23        102.1131
325.68        102.3278
326.13        102.5753
326.59        102.8496
327.04         103.174
327.49        103.5014
327.94        103.7924
328.39        104.0417
328.85        104.2427
329.30        104.4857
329.75        104.7668
330.20         105.096
330.66        105.4317
331.11         105.839
331.56        106.3088
332.01         106.843
332.46        107.4371
332.92        107.9999
333.37        108.5228
333.82        108.9352
334.27        109.2499
334.72        109.5309
335.17         109.893
335.63        110.3436
336.08        110.9101
336.53        111.5022
336.98        112.0102
337.43        112.4068
337.88        112.7279
338.34        113.0265
338.79        113.4424
339.24        113.9855
339.69        114.6137
340.14        115.2567
340.59        115.8037
341.05         116.227
341.50        116.5762
341.95         116.888
342.40        117.2356
342.85        117.6445
343.30        118.0805
343.75        118.5485
344.20        119.0579
344.66         119.599
345.11        120.1659
345.56        120.6878
346.01        121.0427
346.46        121.2203
346.91         121.268
347.36        121.2988
347.81        121.4918
348.26        121.8792
348.72        122.3899
349.17        122.9321
349.62        123.3804
350.07        123.6778
350.52        123.8608
350.97         123.911
351.42        123.7994
351.87        123.5519
352.32         123.197
352.77        122.8255
353.22        122.5821
353.67        122.4952
354.13        122.5276
354.58        122.5998
355.03        122.6383
355.48        122.5947
355.93        122.4832
356.38        122.2456
356.83        121.7963
357.28        121.1401
357.73        120.3143
358.18        119.4364
358.63        118.6907
359.08        118.1261
359.53        117.7016
359.98        117.3381
360.43        116.9009
360.88         116.347
361.33        115.7096
361.78        115.0362
362.23        114.3982
362.68        113.8113
363.13        113.2556
363.58        112.6805
364.03        111.9564
364.48        111.1644
364.93        110.2718
365.38        109.3652
365.83        108.5304
366.28        107.7929
366.73        107.1268
367.18        106.5003
367.63        105.8633
368.08        105.1994
368.53        104.5266
368.98        103.8559
369.43        103.2012
369.88        102.5689
370.33        101.9539
370.78         101.352
371.23        100.7603
371.68        100.1758
372.13        99.59395
372.58        99.02547
373.03        98.49059
373.48        97.98653
373.93        97.50142
374.38        96.99845
374.83        96.41814
375.28        95.75181
375.72        95.00938
376.17          94.266
376.62         93.5666
377.07        92.93459
377.52         92.3532
377.97        91.82681
378.42        91.36144
378.87        90.94788
379.32        90.58302
379.77        90.22322
380.22         89.7977
380.67        89.28812
381.11        88.71121
381.56        88.10837
382.01        87.56575
382.46        87.12002
382.91        86.76501
383.36         86.4586
383.81        86.12785
384.26         85.7564
384.71        85.36198
385.15        84.99283
385.60        84.78362
386.05         84.7203
386.50        84.74725
386.95        84.75414
387.40        84.57884
387.85            84.2
388.29        83.64212
388.74        83.08858
389.19        82.60169
389.64        82.19894
390.09        81.82198
390.54        81.48355
390.98        81.18914
391.43         80.9842
391.88        80.86475
392.33        80.70168
392.78        80.40305
393.23        79.99393
393.67        79.26008
394.12        78.44749
394.57         78.6345
395.02        78.55947
395.47        78.52803
395.91        78.17268
396.36        77.99974
396.81        78.00799
397.26        77.90683
397.71        77.71341
398.15        77.54584
398.60        77.48568
399.05        77.37765
399.50        77.23489
399.95        77.17783
400.39        77.15253
400.84        76.92072
401.29        76.52002
401.74        76.05641
402.18        75.66594
402.63        75.61811
403.08        75.83197
403.53        75.81744
403.97        75.53078
404.42         75.2804
404.87        75.09442
405.32        74.94489
405.76        74.84127
406.21        74.68204
406.66        74.48908
407.11        74.56975
407.55         74.8192
408.00        74.59462
408.45        73.97372
408.90        73.53936
409.34        73.38268
409.79        73.37289
410.24        73.42562
410.68        73.40777
411.13        73.28776
411.58        73.16866
412.03        73.09375
412.47        73.09198
412.92        73.14742
413.37        73.26451
413.81        73.37061
414.26        73.41843
414.71        73.37471
415.15        73.27176
415.60        73.13335
416.05        73.06561
416.49         73.1013
416.94        73.20511
417.39        73.31624
417.83        73.33459
418.28        73.23397
418.73         73.0325
419.17        72.81969
419.62          72.743
420.07        72.83852
420.51        73.05647
420.96        73.28545
421.41        73.34423
421.85        73.18358
422.30         72.7954
422.74        72.34262
423.19        72.45641
423.64        73.03107
424.08        73.31713
424.53         73.1832
424.98        73.20948
425.42        73.40501
425.87         73.3266
426.31        73.05864
426.76        73.02879
427.21        73.22333
427.65        73.32667
428.10        73.29348
428.54        73.30992
428.99        73.41416
429.44        73.47742
429.88        73.46381
430.33        73.46631
430.77        73.41826
431.22        73.31704
431.66        73.20835
432.11        73.31312
432.56        73.68421
433.00        73.89172
433.45        73.72878
433.89        73.73598
434.34        74.74767
434.78         73.2076
435.23        72.76665
435.67        73.34879
436.12        74.25513
436.57        74.60454
437.01        74.11566
437.46        73.80862
437.90        74.12964
438.35        75.28094
438.79        74.75675
439.24        74.82815
439.68          74.772
440.13        74.62754
440.57        74.47714
441.02        74.64701
441.46        75.02671
441.91        75.11075
442.35        74.87193
442.80        74.91854
443.24        75.20142
443.69        75.37935
444.13        75.40609
444.58        75.45479
445.02        75.47771
445.47        75.51543
445.91        75.60384
446.36        75.52604
446.80        75.21033
447.24        75.80013
447.69        75.55949
448.13        75.42976
448.58        76.07462
449.02        76.04791
449.47        75.78816
449.91        75.73131
450.36        75.94048
450.80        76.09132
451.25        76.15123
451.69        76.20376
452.13        76.22643
452.58        76.14399
453.02        75.98172
453.47        75.83115
453.91        75.70053
454.36         75.6372
454.80         75.5845
455.24        75.32201
455.69        74.94135
456.13        74.67837
456.58         74.6636
457.02        74.52023
457.46        75.06764
457.91        74.79236
458.35        74.33457
458.79        74.05869
459.24        74.07571
459.68        74.04138
460.13        73.96178
460.57         73.6879
461.01        73.55591
461.46        73.55517
461.90          73.144
462.34        73.29879
462.79        73.27879
463.23        73.24146
463.68        73.05818
464.12        72.97073
464.56        73.02288
465.01        73.22832
465.45        73.35405
465.89        73.33125
466.34         73.2262
466.78        72.68771
467.22        71.79666
467.67         72.7194
468.11        72.33804
468.55        72.41045
468.99        72.03621
469.44        71.89965
469.88        71.99277
470.32        71.96027
470.77        71.82832
471.21        71.75997
471.65        71.75943
472.10        71.78937
472.54        71.78149
472.98        71.69498
473.42        71.52679
473.87        71.25608
474.31        70.94627
474.75        70.92078
475.20        71.12332
475.64        71.19927
476.08        71.10583
476.52        71.05621
476.97        71.01436
477.41         70.9568
477.85        70.81625
478.29        70.57301
478.74        71.27884
479.18        71.09843
479.62        70.90662
480.06        70.79337
480.50        70.93789
480.95        70.92834
481.39        70.67454
481.83        70.81077
482.27        70.67252
482.72        70.32435
483.16        70.48859
483.60        70.36314
484.04        70.17341
484.48        70.18388
484.93        70.63819
485.37        70.21194
485.81        70.23585
486.25        71.48834
486.69        71.79205
487.14         71.0407
487.58        70.28086
488.02        70.63049
488.46        70.66425
488.90        71.06895
489.34        70.32973
489.79        69.27435
490.23        70.21286
490.67        70.09825
491.11        69.73039
491.55        69.55859
491.99        69.62869
492.43         69.6672
492.88        69.64096
493.32        69.69731
493.76        69.78091
494.20         69.8433
494.64        69.88966
495.08        69.81175
495.52        69.68303
495.96        69.88724
496.41        70.31438
496.85        70.29535
497.29        69.87193
497.73        69.77763
498.17        69.92361
498.61        70.03954
499.05        70.01412
499.49        69.92015
499.93          69.801
500.37        69.62178
500.82        69.41001
501.26        69.49265
501.70        69.90772
502.14        69.34633
502.58        69.68298
503.02        69.69643
503.46        69.64634
503.90        69.61084
504.34        69.52746
504.78        69.50829
505.22        69.51088
505.66        69.43708
506.10        69.34365
506.54        69.26771
506.98          69.187
507.42        69.38655
507.86        69.68995
508.30        69.09769
508.74        69.47868
509.18        69.28588
509.62        69.13446
510.06        69.04247
510.50        69.03974
510.94          69.088
511.38        69.12562
511.82        69.10585
512.26        69.01162
512.70        68.86829
513.14        68.73059
513.58        68.65991
514.02        68.67162
514.46        68.78613
514.90        68.96777
515.34         68.9353
515.78        69.03083
516.22        68.97746
516.66        68.91688
517.10         68.8923
517.54        68.91702
517.98        68.96815
518.42        69.00629
518.86        68.98045
519.30        68.88239
519.74        68.73826
520.18        68.59113
520.62        68.50333
521.06        68.49339
521.50        68.54474
521.93        68.63436
522.37        68.71008
522.81        68.75872
523.25        68.78576
523.69        68.80366
524.13        68.83299
524.57        68.87626
525.01        68.92428
525.45        68.95142
525.89        68.92113
526.32        68.82593
526.76        68.69421
527.20         68.5645
527.64        68.51217
528.08        68.55119
528.52        68.63438
528.96        68.72156
529.40        68.79884
529.83        68.81945
530.27        68.70832
530.71        68.50813
531.15         68.3956
531.59        68.39422
532.03        68.41306
532.46        68.43877
532.90         68.5033
533.34        68.58979
533.78        68.69331
534.22        68.77748
534.66        68.78439
535.09        68.70094
535.53         68.5666
535.97        68.42124
536.41        68.34622
536.85        68.35658
537.28        68.42666
537.72         68.5202
538.16        68.54877
538.60        68.49113
539.04        68.44498
539.47        68.39525
539.91        68.22887
540.35         68.0028
540.79        68.01346
541.22        68.20706
541.66        68.25757
542.10        68.14266
542.54        68.04426
542.97        67.99442
543.41        68.00496
543.85        68.06904
544.29        68.17945
544.72        68.28239
545.16        68.31366
545.60        68.24211
546.04        68.14123
546.47        68.03893
546.91        67.86201
547.35        67.68867
547.79        67.79618
548.22        68.07354
548.66         68.1491
549.10        67.99368
549.53        67.84948
549.97        67.77759
550.41        67.77768
550.84        67.84642
551.28        67.91583
551.72        67.95365
552.15        67.97192
552.59        67.97546
553.03        67.91685
553.46        67.81963
553.90        67.79534
554.34        67.83871
554.77        67.93486
555.21          68.031
555.65        68.03794
556.08        67.87472
556.52        67.77144
556.96        67.72104
557.39        67.70461
557.83        67.70876
558.27        67.68403
558.70        67.65253
559.14        67.58916
559.57        67.44393
560.01        67.78075
560.45        67.61504
560.88        67.55977
561.32        67.43311
561.75        67.54753
562.19        67.84184
562.63        67.84764
563.06        67.60437
563.50        67.51765
563.93        67.59539
564.37        67.69285
564.80        67.74803
565.24        67.74564
565.68        67.66302
566.11        67.59647
566.55        67.58169
566.98        67.42466
567.42         67.2307
567.85        67.37757
568.29        67.82471
568.72        67.94781
569.16         67.7954
569.60        67.89898
570.03        68.26333
570.47        68.05622
570.90        68.16325
571.34        68.23586
571.77        68.37088
572.21        68.07452
572.64        68.37497
573.08        68.02832
573.51        67.74889
573.95        67.97339
574.38        68.65565
574.82        68.24483
575.25        68.17582
575.69        67.93549
576.12        67.88647
576.56         68.1016
576.99        68.15469
577.42        68.21055
577.86        68.38142
578.29        68.47569
578.73        68.34015
579.16        68.33215
579.60        68.30715
580.03        68.25095
580.47        68.08107
580.90        68.28219
581.33        68.60854
581.77        68.51869
582.20         68.7573
582.64        68.76155
583.07        68.43761
583.51        68.15311
583.94        68.10923
584.37        68.02689
584.81        67.97285
585.24        68.22205
585.68          68.721
586.11        68.27119
586.54        68.33291
586.98        67.69829
587.41        68.41325
587.85         67.7812
588.28        68.09762
588.71         68.1716
589.15        68.27263
589.58        67.78135
590.01        68.34631
590.45        67.92699
590.88        67.45767
591.31        67.32422
591.75        67.60705
592.18        67.52847
592.61        67.30861
593.05        67.52538
593.48        68.50282
593.91        68.02227
594.35        67.77211
594.78         67.9238
595.21        67.74283
595.65        67.77425
596.08        67.66647
596.51        67.74598
596.94        67.68085
597.38        67.72433
597.81        67.88899
598.24        67.39398
598.68        67.34429
599.11        67.54761
599.54        68.00357
599.97        67.91379
600.41        67.81153
600.84        67.68202
601.27        67.66659
601.70        67.73694
602.14        67.21477
602.57        67.50813
603.00        67.66556
603.43        67.76064
603.87        67.88332
604.30        67.66634
604.73        67.62115
605.16        67.26283
605.60        67.44083
606.03        67.61092
606.46        67.89572
606.89        67.81691
607.32         67.5374
607.76          67.932
608.19        67.58987
608.62        67.45847
609.05        67.20527
609.48        67.22437
609.92        67.42776
610.35        67.46198
610.78        67.54403
611.21        66.87543
611.64        67.35562
612.07        67.30347
612.50        67.24227
612.94        67.25784
613.37        67.40987
613.80        67.11254
614.23        67.53623
614.66        67.24752
615.09        67.23815
615.52         67.2531
615.96        67.50346
616.39        67.16412
616.82        67.44043
617.25        67.24394
617.68        67.35612
618.11        67.26505
618.54        67.17882
618.97        67.21265
619.40        67.25301
619.84        67.52368
620.27        67.28204
620.70        67.07405
621.13        66.65842
621.56         67.0197
621.99        66.88764
622.42        66.65498
622.85        66.46626
623.28        67.02484
623.71        66.81369
624.14        66.86179
624.57        66.82389
625.00        67.00756
625.43        66.70135
625.86        66.72312
626.29        66.91435
626.72        66.52446
627.15        66.64152
627.58        66.62511
628.01          66.853
628.44        66.49097
628.87        66.03561
629.30        66.66247
629.73        66.69623
630.16        66.23869
630.59        66.52302
631.02        66.49106
631.45        66.62264
631.88         66.7076
632.31        66.77731
632.74        66.54363
633.17        66.66107
633.60        66.59801
634.03        66.55324
634.46        66.51667
634.89        66.49111
635.32        66.45704
635.75        66.40679
636.18        66.38354
636.61        66.39229
637.04        66.36385
637.47        66.33452
637.89        66.48288
638.32        66.73166
638.75        66.83746
639.18        66.77287
639.61        66.66158
640.04        66.54856
640.47        66.47443
640.90        66.46406
641.33        66.47978
641.76        66.48548
642.18        66.58795
642.61        66.50725
643.04        66.46104
643.47        66.39939
643.90        66.36972
644.33        66.37648
644.76         66.4072
645.18        66.42706
645.61        66.36665
646.04        66.22402
646.47        66.02686
646.90        65.83234
647.33        65.75151
647.75        65.81421
648.18        65.93035
648.61        66.06028
649.04        66.28674
649.47        66.51991
649.89        66.42768
650.32        66.09368
650.75        66.02567
651.18        66.22205
651.61        66.23862
652.03        66.02748
652.46        65.95749
652.89        66.19328
653.32        66.12537
653.74        65.95938
654.17         67.0845
654.60        66.82097
655.03        65.87383
655.46        65.80312
655.88        66.81211
656.31        68.30939
656.74        70.30587
657.16        69.27397
657.59         68.4381
658.02        66.76749
658.45        66.86857
658.87        66.87149
659.30        66.64491
659.73        66.72992
660.15        65.64764
660.58        66.27226
661.01        66.41745
661.44        66.69662
661.86         66.6638
662.29        66.35002
662.72        66.13834
663.14        66.10886
663.57        66.26461
664.00        66.51911
664.42        66.59518
664.85         66.4687
665.27        66.31223
665.70        66.18179
666.13        66.09133
666.55        66.06735
666.98        66.10006
667.41        66.16699
667.83        66.22713
668.26        66.25146
668.69        66.26608
669.11        66.28511
669.54        66.28435
669.96        66.26382
670.39        66.34442
670.82        66.36414
671.24        66.32858
671.67        66.23293
672.09        66.33437
672.52        66.58721
672.94        66.60491
673.37        66.41814
673.80        66.35739
674.22        66.42787
674.65        66.37022
675.07        66.20464
675.50        66.04656
675.92        65.95824
676.35        65.97558
676.77        66.11276
677.20         66.3476
677.62        66.61053
678.05        66.77217
678.47        66.79642
678.90         66.7238
679.32        66.60162
679.75        66.52318
680.17         66.5155
680.60        66.56134
681.02        66.61567
681.45        66.61013
681.87        66.54819
682.30        66.37993
682.72        66.19605
683.15        66.30208
683.57        66.64708
684.00        66.74545
684.42        66.61591
684.85        66.66911
685.27        66.89425
685.70        67.07288
686.12        67.15679
686.54        67.14888
686.97        67.05704
687.39        67.02089
687.82        67.04945
688.24        66.90103
688.66        66.90589
689.09        66.84078
689.51        66.81711
689.94        66.84801
690.36        66.90653
690.78        66.82056
691.21        66.63201
691.63        66.59305
692.06        66.70139
692.48        66.74572
692.90        66.71262
693.33        66.69734
693.75        66.70271
694.17        66.68543
694.60        66.63647
695.02        66.61938
695.44        66.63808
695.87        66.60728
696.29        66.56789
696.71        66.75649
697.14        67.07686
697.56        67.12193
697.98        66.91371
698.41        66.88243
698.83        67.01992
699.25        67.10412
699.68        67.09374
700.10        67.08881
700.52        67.07701
700.94         67.0416
701.37        66.97681
701.79        66.90948
702.21        66.83222
702.64        66.76133
703.06        66.70846
703.48        66.70881
703.90        66.76981
704.33        66.87016
704.75        66.98903
705.17        67.07073
705.59        67.10062
706.01         67.0694
706.44        66.99821
706.86        67.05547
707.28        67.06839
707.70        67.14232
708.12        67.21286
708.55        67.30425
708.97        67.37649
709.39        67.33218
709.81        67.20553
710.23        67.16182
710.66        67.21963
711.08         67.3113
711.50         67.3802
711.92        67.39236
712.34        67.33841
712.76        67.23244
713.19         67.1155
713.61        67.10243
714.03        67.19357
714.45        67.35216
714.87         67.5294
715.29        67.64725
715.71        67.68192
716.13        67.66929
716.56         67.6022
716.98        67.51831
717.40         67.4284
717.82        67.38522
718.24        67.40349
718.66        67.45851
719.08        67.54731
719.50        67.68524
719.92        67.85248
720.34        67.99908
720.76        68.10555
721.19        68.17207
721.61        68.19037
722.03        68.12053
722.45        67.96697
722.87        67.74689
723.29        67.52276
723.71        67.39492
724.13        67.39296
724.55        67.49927
724.97        67.66994
725.39        67.81052
725.81        67.88894
726.23         67.9503
726.65        68.02819
727.07        68.03719
727.49        68.21197
727.91        68.34586
728.33        68.47028
728.75        68.52585
729.17        68.50156
729.59        68.41645
730.01        68.30312
730.43        68.22038
730.85        68.18398
731.27        68.17538
731.69         68.1883
732.10        68.21117
732.52        68.22482
732.94        68.28809
733.36        68.38758
733.78        68.39075
734.20        68.27014
734.62         68.5192
735.04        68.09792
735.46        68.36794
735.88        68.84782
736.30         68.7365
736.72        68.11732
737.13        67.85229
737.55         68.0042
737.97        68.21462
738.39        68.37991
738.81        68.37804
739.23        68.23125
739.65        68.21371
740.06        68.29716
740.48         68.3572
740.90        68.38301
741.32        68.19623
741.74        68.36572
742.16        68.37573
742.57        68.40122
742.99        68.43761
743.41        68.48089
743.83        68.49168
744.25        68.45815
744.67        68.38048
745.08        68.32121
745.50        68.34628
745.92        68.48036
746.34        68.70463
746.75        68.90981
747.17        68.92196
747.59        68.71124
748.01        68.30954
748.42        67.88616
748.84        67.72923
749.26        67.86553
749.68        68.19747
750.09         68.5634
750.51        68.59103
750.93        68.34023
751.35        68.36182
751.76         68.6391
752.18        68.68504
752.60        68.49937
753.01        68.38255
753.43        68.36376
753.85        68.38695
754.27        68.46167
754.68        68.60703
755.10        68.78284
755.52        68.91967
755.93        69.00042
756.35        69.03423
756.77        69.02957
757.18        69.06903
757.60        69.19734
758.02        69.21083
758.43        69.07978
758.85        69.36584
759.26        69.62809
759.68        69.07646
760.10        68.96989
760.51        68.36532
760.93        69.17015
761.34          68.841
761.76        69.27035
762.18        69.28381
762.59        69.38378
763.01         69.1205
763.42        69.32467
763.84         69.2541
764.26        69.17732
764.67        69.23111
765.09        69.39677
765.50        69.41791
765.92         69.3041
766.33        69.17006
766.75        69.02593
767.16        68.95852
767.58        68.93869
768.00        69.08508
768.41        69.32333
768.83        69.22293
769.24        68.88493
769.66        68.86898
770.07        69.13305
770.49        69.32938
770.90        69.39259
771.32        69.32542
771.73        69.18903
772.15         69.1272
772.56        69.16602
772.97         69.2478
773.39        69.32121
773.80        69.28574
774.22        69.18272
774.63        69.39561
775.05         69.8259
775.46        70.04208
775.88        69.96623
776.29        69.87321
776.70        69.79848
777.12        69.70616
777.53        69.63921
777.95        69.59158
778.36        69.57742
778.77        69.59662
779.19        69.65877
779.60         69.7834
780.02        69.93375
780.43        70.12401
780.84        70.32436
781.26        70.36864
781.67        70.38338
782.09        70.74164
782.50        71.15366
782.91        71.63824
783.33         70.4057
783.74         70.0627
784.15        70.14315
784.57        69.99595
784.98        69.67597
785.39        69.76059
785.81         70.1953
786.22         70.4698
786.63           70.53
787.04        70.64776
787.46          70.817
787.87        70.84304
788.28        70.74563
788.70         70.6815
789.11         70.6582
789.52        70.54726
789.93        70.40726
790.35        70.54131
790.76        70.87771
791.17         70.8767
791.58        70.55846
792.00         70.4141
792.41        70.49092
792.82        70.46515
793.23        70.36681
793.65        70.48776
794.06        70.87073
794.47        71.25758
794.88         71.4627
795.29        72.08335
795.71        71.81111
796.12        71.60426
796.53        71.21001
796.94        71.26094
797.35        71.67179
797.76        71.57899
798.18        71.06538
798.59        70.92991
799.00        71.21076
799.41        71.44386
799.82        71.54021
800.23        71.58734
800.64        71.55716
801.06         71.3987
801.47        71.20486
801.88        71.05508
802.29        70.98745
802.70        71.00449
803.11        71.06607
803.52        71.09186
803.93        71.05984
804.34        70.98685
804.75        70.96156
805.17         71.0782
805.58        71.36832
805.99         71.8717
806.40        72.41136
806.81        72.42636
807.22        71.98268
807.63        71.75721
808.04        71.81311
808.45        71.72807
808.86         71.5201
809.27        71.50033
809.68        71.63041
810.09         71.6655
810.50        71.57822
810.91        71.45233
811.32        71.33501
811.73        71.31044
812.14        71.40116
812.55        71.51945
812.96        71.63983
813.37        71.83644
813.78        72.03747
814.19        72.01284
814.60        71.80163
815.01        71.67516
815.42        71.66013
815.83        71.60378
816.24        71.52975
816.65        71.55643
817.05        71.69765
817.46        71.88964
817.87        72.08463
818.28        72.15678
818.69        72.08096
819.10        71.88813
819.51        71.66599
819.92        71.57446
820.33        71.66054
820.74        71.87514
821.14        72.11676
821.55        72.26406
821.96        72.26287
822.37        72.15163
822.78        71.99705
823.19        71.91681
823.60        71.95053
824.00         72.0836
824.41        72.20844
824.82        72.24014
825.23        72.15478
825.64        71.99081
826.04        71.84433
826.45        71.83083
826.86         71.9886
827.27        72.27518
827.68        72.59686
828.08        72.83151
828.49        72.86858
828.90        72.77798
829.31        72.63599
829.72        72.57432
830.12        72.65366
830.53        72.79295
830.94        72.93787
831.35        72.96552
831.75        72.86751
832.16        72.64035
832.57        72.39492
832.97         72.2808
833.38        72.33221
833.79        72.50845
834.20         72.7188
834.60        72.82549
835.01        72.80735
835.42        72.69317
835.82        72.57541
836.23        72.53405
836.64        72.62379
837.04        72.83545
837.45        73.04197
837.86        73.13638
838.26        73.10349
838.67        72.96757
839.08        72.83727
839.48        72.87084
839.89        73.09793
840.29        73.45152
840.70        73.83015
841.11         74.0807
841.51        74.17351
841.92        74.11747
842.33        73.96222
842.73        73.78913
843.14        73.58569
843.54         73.3594
843.95        73.13492
844.35        72.96964
844.76        72.86944
845.17         72.8471
845.57        72.86163
845.98        72.79344
846.38        72.64602
846.79        72.42385
847.19         72.2295
847.60         72.1861
848.00        72.33534
848.41        72.58821
848.81        72.86969
849.22        72.98524
849.62        72.92052
850.03        72.71416
850.43        72.44297
850.84        72.14434
851.24        71.90218
851.65        71.65144
852.05        71.51926
852.46        71.61951
852.86        71.94579
853.27        72.44989
853.67        72.90721
854.07        73.19035
854.48          73.233
854.88        73.11846
855.29         72.8222
855.69        72.52039
856.10        72.19839
856.50        71.90572
856.90        71.65892
857.31        71.51253
857.71        71.51469
858.12        71.60014
858.52        71.75134
858.92        71.79884
859.33        71.68472
859.73        71.48941
860.13         71.2153
860.54        70.90585
860.94        70.63591
861.34        70.36588
861.75        70.14405
862.15        70.10696
862.55        70.23769
862.96        70.52099
863.36        70.82093
863.76         70.8931
864.17        70.67692
864.57        70.25098
864.97        69.79225
865.38        69.57132
865.78        69.70092
866.18        70.08335
866.58        70.53433
866.99        70.73637
867.39        70.62469
867.79        70.27158
868.19        69.85932
868.60        69.61857
869.00        69.60056
869.40        69.76888
869.80        70.00997
870.21          70.126
870.61        70.12691
871.01         70.0173
871.41        69.91528
871.81        69.98513
872.22        70.23231
872.62        70.63287
873.02        71.06127
873.42        71.27843
873.82        71.21431
874.22        70.95186
874.63        70.65781
875.03        70.54816
875.43        70.67133
875.83        70.94223
876.23        71.25048
876.63        71.41288
877.03        71.36952
877.44        71.18211
877.84        70.90468
878.24         70.5964
878.64        70.30731
879.04        70.03149
879.44        69.82419
879.84        69.76302
880.24        69.84587
880.64         70.0467
881.04        70.29508
881.44        70.45843
881.84        70.48892
882.24        70.41299
882.65        70.23322
883.05        70.06987
883.45        69.92706
883.85        69.79828
884.25        69.70667
884.65        69.68234
885.05        69.72966
885.45        69.84432
885.85          70.009
886.25        70.18864
886.65        70.35477
887.05         70.4925
887.45        70.57925
887.85        70.58999
888.25        70.51614
888.65         70.3651
889.04        70.13257
889.44        69.86164
889.84        69.56239
890.24         69.2458
890.64        68.96083
891.04        68.77894
891.44        68.71598
891.84        68.76124
892.24        68.85947
892.64         68.9128
893.04        68.90184
893.44        68.85962
893.83         68.8542
894.23        68.93254
894.63        69.12682
895.03         69.3857
895.43        69.67821
895.83        69.95673
896.23        70.19124
896.63        70.39732
897.02        70.51908
897.42        70.51187
897.82        70.37259
898.22        70.12831
898.62         69.8901
899.01        69.85498
899.41        70.04893
899.81        70.42773
900.21        70.86932
900.61        71.16499
901.00         71.2412
901.40        71.16933
901.80        71.02166
902.20        70.93053
902.59        70.94651
902.99        71.01246
903.39        71.09327
903.79        71.12513
904.18        71.08684
904.58        71.01328
904.98        70.93652
905.38        70.90233
905.77        70.90482
906.17        70.92632
906.57        70.92014
906.96        70.83543
907.36        70.63765
907.76         70.3721
908.15        70.07716
908.55        69.74223
908.95        69.42543
909.34        69.12403
909.74        68.92847
910.14        68.91386
910.53        69.08538
910.93        69.38642
911.33        69.74261
911.72        70.01738
912.12        70.14896
912.52        70.20607
912.91        70.17577
913.31        70.07608
913.70        69.92853
914.10         69.6954
914.49        69.54683
914.89        69.72705
915.29        70.28085
915.68        71.12216
916.08        71.93255
916.47        72.20341
916.87        71.86086
917.26        71.05149
917.66        70.13208
918.05        69.63862
918.45        69.69487
918.84        70.14922
919.24        70.74754
919.64        71.14302
920.03        71.24108
920.42        71.18128
920.82        71.02952
921.21        70.86687
921.61        70.72831
922.00        70.55323
922.40        70.47469
922.79        70.81569
923.19        71.54586
923.58        72.58167
923.98         73.4953
924.37        73.69007
924.77        73.05323
925.16        71.76685
925.55        70.26031
925.95        69.29581
926.34        69.12262
926.74        69.51782
927.13        70.23317
927.52        70.75486
927.92        70.93398
928.31         70.9089
928.70        70.79128
929.10        70.72816
929.49        70.76856
929.89        70.81142
930.28        70.85587
930.67        70.82123
931.07         70.6834
931.46        70.50872
931.85        70.34727
932.24        70.29343
932.64        70.35972
933.03        70.51202
933.42        70.67781
933.82         70.7359
934.21        70.66405
934.60        70.51408
934.99        70.34489
935.39        70.23407
935.78        70.24518
936.17        70.33947
936.56         70.5296
936.96        70.81667
937.35        71.21899
937.74        71.68898
938.13        72.12477
938.53        72.39341
938.92         72.4711
939.31        72.35945
939.70        72.15926
940.09        72.05553
940.49        72.07098
940.88         72.2024
941.27        72.29411
941.66        72.10392
942.05        71.61042
942.44        70.92548
942.84        70.27951
943.23        69.98064
943.62        70.13808
944.01        70.64181
944.40        71.32331
944.79        71.87355
945.18        72.15356
945.57        72.22245
945.97        72.09003
946.36        71.86028
946.75        71.54322
947.14        71.10742
947.53        70.60126
947.92        70.13301
948.31        69.75504
948.70        69.48578
949.09        69.30128
949.48        69.13022
949.87        68.96089
950.26        68.82654
950.65        68.76289
951.04        68.82102
951.43        69.01088
951.82         69.3019
952.21        69.64919
952.60         69.9872
952.99        70.26217
953.38        70.44262
953.77        70.53868
954.16        70.57942
954.55        70.56792
954.94        70.51125
955.33        70.32539
955.72        69.87632
956.11        69.16133
956.50        68.23137
956.89        67.32302
957.28        66.83356
957.66        66.90041
958.05        67.42654
958.44        68.11565
958.83        68.46951
959.22        68.35477
959.61        67.87226
960.00         67.3267
960.39         67.2172
960.78        67.63553
961.16        68.43907
961.55        69.19373
961.94        69.26385
962.33        68.51943
962.72        67.25872
963.11        65.92497
963.49        65.14051
963.88        65.07607
964.27        65.55227
964.66        66.41476
965.04        67.38394
965.43        68.21112
965.82        68.97973
966.21        69.62988
966.60        70.11424
966.98        70.42007
967.37        70.43025
967.76        70.20023
968.15        69.85955
968.53        69.49796
968.92        69.20199
969.31        68.84036
969.69          68.144
970.08         67.1141
970.47        65.85803
970.86        64.94772
971.24        65.34795
971.63        67.07951
972.02        69.70108
972.40        72.34831
972.79        73.72224
973.17        73.68419
973.56        72.52558
973.95        70.85021
974.33         69.7281
974.72        69.52036
975.11        69.89469
975.49         70.4752
975.88        70.65695
976.26        70.25734
976.65        69.54879
977.04        68.66696
977.42        67.77419
977.81        66.94012
978.19        66.04004
978.58        65.42786
978.96          65.658
979.35        66.77467
979.74         68.6665
980.12        70.65976
980.51        71.43838
980.89         70.8203
981.28        69.00504
981.66        66.86615
982.05        66.08127
982.43        67.09372
982.82        69.35168
983.20        71.89024
983.59         73.0591
983.97        72.56084
984.35        70.84357
984.74        68.64817
985.12        67.27463
985.51        67.14116
985.89        67.82833
986.28        68.83382
986.66        69.53725
987.04        69.71203
987.43        69.56363
987.81        69.25166
988.20        68.92567
988.58        68.71785
988.96        68.55807
989.35        68.30801
989.73        67.87798
990.12        67.20899
990.50        66.27283
990.88        65.40677
991.27        65.31553
991.65        66.13985
992.03        67.63941
992.42        68.95308
992.80        69.29855
993.18        68.43575
993.56         66.4931
993.95        64.12564
994.33         62.9083
994.71        63.60952
995.10        65.43747
995.48        67.45486
995.86        68.59366
996.24        68.75195
996.63        68.22713
997.01        67.37923
997.39        66.88969
997.77        67.07951
998.15        67.69997
998.54          68.376
998.92        68.66048
999.30        68.44983
999.68        67.92789
1000.06        67.40016
1000.45        67.33046
1000.83        67.89405
1001.21        68.81751
1001.59        69.77825
1001.97        70.33758
1002.35        70.37551
1002.73        70.03988
1003.12        69.36662
1003.50        68.34398
1003.88        67.23289
1004.26        66.14304
1004.64        65.37334
1005.02        65.25735
1005.40        65.79322
1005.78        66.89132
1006.16        68.27057
1006.54        69.37212
1006.92        69.97215
1007.30        70.18479
1007.69        70.17755
1008.07        70.13438
1008.45        70.20873
1008.83        70.28709
1009.21        70.36061
1009.59        70.44118
1009.97         70.5138
1010.35        70.62961
1010.73        70.73701
1011.11        70.66562
1011.49        70.40295
1011.86        70.10857
1012.24        69.81217
1012.62        69.81557
1013.00         70.1652
1013.38        70.78638
1013.76        71.52744
1014.14        72.14436
1014.52        72.52665
1014.90        72.66707
1015.28        72.64545
1015.66        72.63056
1016.04        72.66721
1016.41        72.83015
1016.79        72.70425
1017.17        72.03414
1017.55        70.85031
1017.93        69.35861
1018.31        68.05325
1018.69        67.67161
1019.06        68.44212
1019.44        70.21577
1019.82        72.56366
1020.20         74.4777
1020.58        75.38649
1020.95        75.35017
1021.33        74.74889
1021.71        74.09529
1022.09        73.50592
1022.46        72.81039
1022.84        71.77835
1023.22        69.85911
1023.60        66.91006
1023.97        62.87247
1024.35        58.68413
1024.73        56.00629
