SpectraSmart Spectrum 2.9.0.0
--------- Device Information -----------
Spectrum Name :  反射率_0
Saving Time :  2024/04/27 23:43:34
Spectro-Module Model Name : SE2030-DUVN
Spectro-Module Serial Number : OS361AC55029948
Wavelength Start : 200
Wavelength End : 1025
Wavelength Unit : Wavelength(nm)
Spectrum Unit : Reflectance(%)
-----------Spectrum Setting ------------
Integration Time : 20ms
Average : 10
Boxcar : 0
Background removal :  enabled
linearity correction :  enabled
SC :  disabled
Intensity correction :  disabled
DWT denoise :  enabled
savitzky-golay :  disabled
FFT :  disabled
Running average :  disabled
Kalman :  disabled
High pass :  disabled
---------------BEGIN--------------------
Wavelength(nm)             Reflectance(%)
200.29               0
200.75        108.8403
201.21         95.0036
201.67        86.15358
202.13        82.76966
202.58        82.38589
203.04        83.89788
203.50        87.18279
203.96        92.07911
204.42        97.26373
204.88        101.8407
205.34        105.1831
205.80        106.9781
206.26        107.3022
206.72        106.0603
207.18        101.5325
207.64        92.65782
208.10        84.27865
208.55        80.22078
209.01        78.06077
209.47        75.07085
209.93        69.31709
210.39        55.80778
210.85        18.56386
211.31       -12.56902
211.77        51.27199
212.23        84.45622
212.69        94.42833
213.14        96.69132
213.60        94.63689
214.06        88.80576
214.52        76.46205
214.98         61.4093
215.44        55.25293
215.90        55.43732
216.36        58.61565
216.81        63.08109
217.27        68.16379
217.73        74.81622
218.19         80.2895
218.65        79.26904
219.11        70.26968
219.57        53.61354
220.02        33.91606
220.48        25.01042
220.94         31.1553
221.40        46.33213
221.86        62.19354
222.32         70.4983
222.77        71.22353
223.23        68.05808
223.69        63.47404
224.15        59.67799
224.61        57.06479
225.06        54.44375
225.52        52.42338
225.98         52.0145
226.44        52.99865
226.90        54.66854
227.36        55.91913
227.81        55.72546
228.27        54.10394
228.73        51.21253
229.19        47.39716
229.65         43.7068
230.10         40.7619
230.56        38.79044
231.02        37.38544
231.48        35.96394
231.93        34.41127
232.39        33.04292
232.85        32.47395
233.31        33.53205
233.77        36.10135
234.22        39.75468
234.68        43.26545
235.14        45.22076
235.60        45.40264
236.05         44.0037
236.51        42.24627
236.97        42.69031
237.43         46.1852
237.88        52.05653
238.34        57.93079
238.80        61.55347
239.26         62.5066
239.71        60.71183
240.17        56.79261
240.63        56.36866
241.08        62.96911
241.54        71.78457
242.00         78.0894
242.46        80.51517
242.91         79.9005
243.37        75.53785
243.83        65.89357
244.28        56.91169
244.74        64.47623
245.20        83.39719
245.66        96.54317
246.11        99.89417
246.57        96.00057
247.03        84.06864
247.48        64.20199
247.94        50.44285
248.40        57.53386
248.85        77.84698
249.31        97.63833
249.77        105.4763
250.22        103.3686
250.68        97.25991
251.14         91.6665
251.59        90.37031
252.05        93.67362
252.51        100.4664
252.96         108.748
253.42        110.7897
253.88        103.0724
254.33        92.06542
254.79        82.97278
255.25        76.68652
255.70        72.40003
256.16        69.54392
256.62         68.7653
257.07        70.92181
257.53        75.00442
257.99         79.1978
258.44        81.54436
258.90        80.89429
259.35        77.49168
259.81        73.03477
260.27         68.5262
260.72         65.2117
261.18        63.54893
261.63        62.61911
262.09        62.17225
262.55         61.5209
263.00        60.47021
263.46        59.39208
263.91         58.2834
264.37        57.50619
264.83        56.99155
265.28        56.55266
265.74        56.10373
266.19        55.31442
266.65        54.23468
267.11        52.91977
267.56        51.50271
268.02        50.29894
268.47         49.3409
268.93        48.56788
269.38        47.86847
269.84        47.09795
270.30         46.2075
270.75        45.25301
271.21        44.27564
271.66        43.27968
272.12        42.30289
272.57        41.29416
273.03        40.32361
273.48          39.419
273.94         38.6429
274.39          37.953
274.85        37.33623
275.31        36.67745
275.76        35.94178
276.22        35.19363
276.67        34.46256
277.13        33.89964
277.58        33.45996
278.04        33.13461
278.49        32.77696
278.95        32.29639
279.40        31.62841
279.86        30.89094
280.31        30.13416
280.77        29.55149
281.22        29.14283
281.68         28.9059
282.13        28.75161
282.59         28.6088
283.04        28.43627
283.50        28.27085
283.95        28.14768
284.41        28.15863
284.86        28.28802
285.32         28.5142
285.77        28.73029
286.22        28.83019
286.68        28.81691
287.13        28.69704
287.59        28.58714
288.04        28.58562
288.50        28.74071
288.95        28.97343
289.41        29.23496
289.86         29.4004
290.32        29.46896
290.77         29.4836
291.22        29.49587
291.68         29.5674
292.13        29.72861
292.59        30.00447
293.04        30.42428
293.50        31.05642
293.95        31.90227
294.40        32.95444
294.86        34.18726
295.31        35.54696
295.77        37.00916
296.22        38.54636
296.68        40.13327
297.13        41.70319
297.58        43.23212
298.04        44.72789
298.49        46.18624
298.95        47.65767
299.40        49.16872
299.85        50.73452
300.31        52.41734
300.76        54.24625
301.21        56.20653
301.67        58.27205
302.12        60.31714
302.58          62.251
303.03        64.01382
303.48        65.65936
303.94         67.2797
304.39        68.92764
304.84        70.65792
305.30        72.46652
305.75        74.27617
306.20        76.06304
306.66        77.83253
307.11        79.54031
307.57        81.24039
308.02        82.88962
308.47        84.48866
308.93        86.03255
309.38        87.43665
309.83        88.68064
310.29        89.79346
310.74        90.77991
311.19        91.70467
311.65          92.642
312.10        93.57943
312.55          94.498
313.00        95.40158
313.46        96.30337
313.91        97.17959
314.36        98.04279
314.82        98.82201
315.27        99.39708
315.72        99.75304
316.18        99.94195
316.63        100.0663
317.08        100.3294
317.53        100.7828
317.99        101.3705
318.44         102.001
318.89        102.4932
319.35        102.7979
319.80        102.9773
320.25         103.112
320.70        103.3406
321.16        103.6847
321.61         104.107
322.06        104.5349
322.51        104.8679
322.97        105.0656
323.42        105.1961
323.87        105.2733
324.32        105.3759
324.78        105.5234
325.23        105.5853
325.68        105.8376
326.13        106.1163
326.59        106.4733
327.04        106.9309
327.49        107.4095
327.94        107.8066
328.39        108.0904
328.85        108.2553
329.30           108.4
329.75        108.5428
330.20        108.7119
330.66        108.8708
331.11        109.1027
331.56        109.4204
332.01        109.8341
332.46        110.3364
332.92        110.8452
333.37        111.3647
333.82        111.8153
334.27        112.2016
334.72        112.5353
335.17        112.8478
335.63        113.1293
336.08        113.4309
336.53        113.7306
336.98        114.0361
337.43        114.3598
337.88        114.7175
338.34        115.1117
338.79        115.5943
339.24        116.1482
339.69        116.7531
340.14        117.3905
340.59        118.0294
341.05        118.6571
341.50        119.2961
341.95        119.8996
342.40        120.4184
342.85        120.8496
343.30        121.1816
343.75        121.5281
344.20        122.0747
344.66        122.8412
345.11        123.7646
345.56        124.6134
346.01        125.0144
346.46        124.9118
346.91        124.4431
347.36        123.9116
347.81        123.7822
348.26        124.1602
348.72        124.9045
349.17        125.7636
349.62        126.3549
350.07        126.5603
350.52        126.4908
350.97        126.2952
351.42        126.2088
351.87        126.2959
352.32        126.4702
352.77        126.6162
353.22        126.5729
353.67        126.3028
354.13         125.877
354.58        125.3824
355.03        125.0122
355.48        124.8046
355.93           124.7
356.38        124.5589
356.83        124.1664
357.28        123.4857
357.73        122.6026
358.18        121.6711
358.63        120.9217
359.08        120.4152
359.53        120.0886
359.98        119.8261
360.43        119.4464
360.88        118.8968
361.33        118.2215
361.78        117.5189
362.23        116.9411
362.68        116.5109
363.13        116.1757
363.58        115.8071
364.03        115.1393
364.48        114.2535
364.93        113.1467
365.38        111.9821
365.83        110.9543
366.28        110.1241
366.73        109.4329
367.18         108.831
367.63        108.2378
368.08         107.619
368.53        107.0045
368.98        106.3802
369.43        105.7173
369.88        105.0134
370.33        104.2637
370.78        103.5033
371.23        102.8002
371.68         102.168
372.13        101.5884
372.58        101.0264
373.03        100.4216
373.48        99.76305
373.93        99.08045
374.38        98.39838
374.83         97.7495
375.28        97.14536
375.72        96.55367
376.17        96.01388
376.62        95.51875
377.07        95.05731
377.52         94.6124
377.97        94.15946
378.42        93.66245
378.87        93.11547
379.32        92.54248
379.77        91.94189
380.22        91.30344
380.67        90.64082
381.11        89.97332
381.56        89.35879
382.01        88.90475
382.46        88.63456
382.91        88.50822
383.36        88.45502
383.81        88.36039
384.26         88.1811
384.71         87.9408
385.15        87.62611
385.60        87.28442
386.05        86.91296
386.50        86.50333
386.95        86.09292
387.40        85.74841
387.85        85.48672
388.29         85.2472
388.74        85.07571
389.19        84.83522
389.64        84.49625
390.09         84.0609
390.54         83.5994
390.98        83.21039
391.43        82.97693
391.88        82.86362
392.33        82.72583
392.78        82.46368
393.23        82.09561
393.67        81.38979
394.12        80.60559
394.57        80.88963
395.02        80.92827
395.47        80.95834
395.91        80.58145
396.36        80.36257
396.81        80.30051
397.26        80.06421
397.71        79.72826
398.15        79.49569
398.60        79.45739
399.05        79.48277
399.50        79.51142
399.95         79.4425
400.39        79.26595
400.84        79.03001
401.29        78.76271
401.74        78.36794
402.18        77.93039
402.63        77.68502
403.08        77.61894
403.53        77.47509
403.97        77.24054
404.42        77.07772
404.87        76.99554
405.32        76.99522
405.76        77.06364
406.21        77.08283
406.66        77.01742
407.11        77.10181
407.55        77.21663
408.00         76.7166
408.45        75.78969
408.90        75.22849
409.34        75.16789
409.79        75.40662
410.24         75.7701
410.68         75.9656
411.13         75.9107
411.58        75.77176
412.03        75.60154
412.47        75.44173
412.92        75.30503
413.37        75.19434
413.81        75.10586
414.26         75.0963
414.71        75.14648
415.15        75.27155
415.60        75.40477
416.05        75.48681
416.49        75.50238
416.94        75.45356
417.39        75.37725
417.83        75.33263
418.28         75.3278
418.73        75.32828
419.17        75.32646
419.62         75.3164
420.07        75.30487
420.51        75.30279
420.96        75.29195
421.41        75.24456
421.85         75.1429
422.30        74.87573
422.74        74.54845
423.19        74.82726
423.64        75.53651
424.08        75.69827
424.53        75.24812
424.98        75.12392
425.42        75.38047
425.87        75.36251
426.31        75.11497
426.76        75.16707
427.21        75.44173
427.65        75.40903
428.10        75.10569
428.54        74.97463
428.99        75.06419
429.44         75.2401
429.88        75.38818
430.33        75.21418
430.77        74.79846
431.22        74.82695
431.66        75.23202
432.11        75.44519
432.56         75.4949
433.00        75.55746
433.45        75.46108
433.89        75.63257
434.34        76.11767
434.78        74.77377
435.23        74.97166
435.67        75.06696
436.12        76.27837
436.57        76.44958
437.01        75.89881
437.46         75.4916
437.90        75.72015
438.35        76.63988
438.79        76.07089
439.24        76.13152
439.68        76.20016
440.13        76.23753
440.57        76.26794
441.02        76.64874
441.46        77.16748
441.91        77.00962
442.35        76.36003
442.80        76.21316
443.24        76.99347
443.69        77.20782
444.13        76.95928
444.58        76.93134
445.02        77.09052
445.47        77.14294
445.91        77.10626
446.36         77.0933
446.80        77.07243
447.24        77.47211
447.69        77.33056
448.13        77.58221
448.58        77.84567
449.02        77.70502
449.47        77.27792
449.91        77.10892
450.36         77.2704
450.80        77.43776
451.25        77.56355
451.69        77.67352
452.13        77.73093
452.58        77.67129
453.02        77.52991
453.47        77.40605
453.91        77.30149
454.36        77.28117
454.80        77.27897
455.24        76.93258
455.69        76.34967
456.13        76.06661
456.58        76.22202
457.02        75.70147
457.46        76.24628
457.91        75.93367
458.35        75.63168
458.79        75.41633
459.24        75.40467
459.68        75.33974
460.13        75.24259
460.57        75.01643
461.01        75.01933
461.46        74.84612
461.90        74.83828
462.34        74.68163
462.79        74.84401
463.23        74.70463
463.68        74.43221
464.12        74.33226
464.56         74.3888
465.01        74.39239
465.45        74.22086
465.89        74.05914
466.34         73.9696
466.78        73.71985
467.22        73.36161
467.67        73.76092
468.11         73.7015
468.55        73.70412
468.99        73.44483
469.44        73.33014
469.88        73.36592
470.32        73.32823
470.77        73.19889
471.21        73.04941
471.65        72.87786
472.10        72.68679
472.54        72.48885
472.98        72.34492
473.42        72.27099
473.87        72.25016
474.31        72.22644
474.75        72.28523
475.20        72.37968
475.64        72.29353
476.08        72.04213
476.52        72.02804
476.97        72.30885
477.41        72.10698
477.85        72.13264
478.29        72.34926
478.74        72.31322
479.18        71.28715
479.62        71.74302
480.06        71.51249
480.50        71.37318
480.95         71.4459
481.39        71.68191
481.83        71.37713
482.27        71.81412
482.72        71.24677
483.16        71.54672
483.60        71.36826
484.04        71.16689
484.48         71.2157
484.93        71.66381
485.37        71.51276
485.81        71.66504
486.25        72.21362
486.69        73.04192
487.14        72.02784
487.58        71.59744
488.02        71.41192
488.46        71.79321
488.90         71.5742
489.34        71.14693
489.79        70.12704
490.23        70.88946
490.67        70.82477
491.11        70.57983
491.55        70.43359
491.99        70.41415
492.43        70.40656
492.88         70.3868
493.32        70.41731
493.76        70.45305
494.20        70.50303
494.64        70.57829
495.08         70.5361
495.52        70.42988
495.96        70.67371
496.41         71.1265
496.85        70.97929
497.29        70.34338
497.73        70.20866
498.17        70.48104
498.61        70.67515
499.05        70.65551
499.49        70.60671
499.93        70.56469
500.37        70.42156
500.82         70.1907
501.26        70.22924
501.70        70.63789
502.14        69.91228
502.58         70.5289
503.02        70.53636
503.46        70.36863
503.90         70.2188
504.34        70.05814
504.78        69.99163
505.22        69.99342
505.66        69.94156
506.10         69.8755
506.54        69.89601
506.98        69.98827
507.42        70.02863
507.86        70.59921
508.30        69.91087
508.74        70.33292
509.18        70.11308
509.62         69.9509
510.06        69.78371
510.50        69.67172
510.94        69.72413
511.38        69.87563
511.82        69.95239
512.26        69.92397
512.70        69.89326
513.14        69.87009
513.58        69.80028
514.02        69.68823
514.46         69.5975
514.90        69.56064
515.34        69.38673
515.78        69.48273
516.22        69.50903
516.66        69.57431
517.10        69.64989
517.54        69.72318
517.98        69.79171
518.42         69.8205
518.86        69.76627
519.30         69.6289
519.74        69.43047
520.18        69.22837
520.62         69.1114
521.06        69.10368
521.50        69.18253
521.93        69.31452
522.37        69.42773
522.81          69.499
523.25        69.53547
523.69        69.54678
524.13        69.54919
524.57        69.54855
525.01        69.54339
525.45        69.51235
525.89        69.42495
526.32         69.2802
526.76        69.10806
527.20        68.96668
527.64        68.95379
528.08        69.07948
528.52         69.3015
528.96        69.53979
529.40        69.66838
529.83        69.64944
530.27        69.53879
530.71        69.37098
531.15        69.21227
531.59        69.09291
532.03        68.99538
532.46        68.93355
532.90         68.9521
533.34        69.04249
533.78        69.19186
534.22        69.35027
534.66        69.43819
535.09        69.42815
535.53        69.35922
535.97        69.25226
536.41        69.16132
536.85        69.10509
537.28        69.07204
537.72        69.05481
538.16        69.03205
538.60        69.00079
539.04        68.98465
539.47        68.96823
539.91        68.96353
540.35        68.95339
540.79        68.94885
541.22        68.93407
541.66        68.89543
542.10         68.8294
542.54        68.74022
542.97        68.64923
543.41        68.62801
543.85        68.67387
544.29        68.77651
544.72         68.8752
545.16        68.91074
545.60         68.8557
546.04        68.72295
546.47        68.57956
546.91        68.54946
547.35        68.64295
547.79        68.81066
548.22        68.94695
548.66        68.94375
549.10        68.77626
549.53        68.54427
549.97        68.32664
550.41         68.1898
550.84        68.16865
551.28        68.27106
551.72        68.42186
552.15        68.47517
552.59        68.41783
553.03        68.27713
553.46        68.12357
553.90        68.11308
554.34        68.25052
554.77        68.50203
555.21         68.7515
555.65        68.82117
556.08        68.61349
556.52        68.35646
556.96        68.11336
557.39        68.06575
557.83        68.19089
558.27         68.1689
558.70        68.01566
559.14        67.98522
559.57         68.0694
560.01        68.23444
560.45        68.39677
560.88        68.33105
561.32        68.13526
561.75         68.0826
562.19        68.18439
562.63        68.20878
563.06        68.13741
563.50        67.99799
563.93        67.83757
564.37        67.92139
564.80        68.16539
565.24        68.23535
565.68        68.12585
566.11        68.10253
566.55        68.19969
566.98        68.24507
567.42        68.23132
567.85        68.24907
568.29        68.37415
568.72        68.32587
569.16        68.09167
569.60        68.65295
570.03        68.63535
570.47        68.41723
570.90        68.45677
571.34        68.92875
571.77        68.74002
572.21        68.72116
572.64        68.89489
573.08         68.6436
573.51        68.19638
573.95        68.28645
574.38        68.85091
574.82        68.66032
575.25        68.84348
575.69        68.64948
576.12        68.60259
576.56        68.74114
576.99         69.0989
577.42        68.89066
577.86         68.8167
578.29        69.07169
578.73        69.14573
579.16        69.18142
579.60        68.94719
580.03         68.7205
580.47        68.43095
580.90        69.23155
581.33        68.78754
581.77        69.30869
582.20        69.15963
582.64        69.12232
583.07          68.994
583.51        68.79285
583.94        68.80853
584.37        68.68059
584.81        68.50828
585.24        68.63435
585.68        69.05048
586.11        68.66506
586.54        68.74703
586.98        68.35912
587.41        68.83649
587.85        68.49115
588.28        68.90379
588.71         68.5714
589.15        69.05033
589.58        68.43059
590.01        68.46294
590.45        68.72639
590.88        67.83405
591.31         67.7925
591.75        67.99208
592.18        67.93501
592.61        67.84149
593.05        67.86288
593.48        68.94553
593.91        68.40544
594.35        68.33988
594.78        68.45834
595.21        68.13895
595.65        68.21851
596.08        68.22758
596.51        68.50421
596.94         67.8311
597.38        67.78789
597.81        68.15492
598.24         67.7487
598.68        68.13937
599.11        68.02251
599.54        68.09892
599.97        68.14001
600.41        68.35336
600.84         68.3764
601.27         68.2219
601.70        68.05236
602.14        67.67557
602.57         67.7448
603.00        68.03698
603.43        67.97979
603.87        67.89883
604.30         67.9655
604.73        67.93323
605.16        68.04394
605.60        67.72361
606.03        67.94822
606.46        68.50981
606.89        68.17911
607.32        67.97727
607.76        68.45415
608.19        68.02092
608.62        68.05063
609.05        67.90018
609.48        67.84897
609.92        67.83031
610.35        67.77381
610.78        67.65694
611.21        67.58467
611.64        67.80454
612.07        67.83722
612.50        67.75879
612.94        67.73224
613.37        67.78423
613.80        67.75774
614.23        67.74325
614.66        67.70908
615.09        67.64529
615.52         67.7578
615.96        68.05056
616.39        67.55507
616.82        67.47393
617.25        67.67264
617.68         67.3815
618.11        67.43246
618.54        67.50404
618.97        67.61443
619.40        67.64297
619.84        67.77885
620.27        67.65727
620.70        67.38074
621.13        66.88707
621.56        67.19736
621.99        67.28927
622.42        67.19404
622.85        67.19028
623.28        67.47791
623.71        67.32594
624.14        66.92393
624.57         66.9403
625.00        67.40182
625.43        66.98637
625.86        67.05436
626.29        67.13851
626.72        67.21249
627.15        67.12189
627.58        67.15252
628.01        67.33657
628.44        66.89754
628.87        66.89137
629.30        66.88522
629.73        67.08144
630.16        66.43525
630.59        66.70596
631.02        66.68417
631.45         66.8409
631.88        66.92664
632.31        66.93562
632.74        66.81184
633.17        66.84853
633.60        66.83036
634.03        66.84457
634.46        66.89089
634.89        66.95444
635.32        66.92336
635.75        66.90003
636.18        66.84467
636.61        66.80137
637.04        66.70496
637.47        66.60128
637.89         66.6683
638.32        66.85015
638.75        66.94141
639.18         66.9197
639.61        66.89822
640.04        66.88544
640.47        66.86171
640.90        66.83672
641.33        66.78808
641.76        66.71137
642.18        66.76773
642.61        66.69278
643.04        66.69075
643.47         66.6889
643.90        66.69672
644.33        66.71058
644.76        66.73291
645.18        66.74685
645.61        66.71302
646.04        66.62778
646.47        66.49332
646.90        66.35789
647.33        66.30562
647.75        66.36437
648.18        66.50922
648.61        66.65739
649.04        66.75863
649.47        66.77647
649.89        66.50077
650.32        66.09235
650.75        66.22256
651.18        66.76023
651.61        66.84182
652.03        66.43436
652.46        66.10365
652.89        66.02664
653.32        66.13132
653.74        66.18734
654.17        66.82219
654.60        66.74012
655.03        66.46175
655.46        66.45286
655.88         66.6679
656.31         68.9205
656.74        70.59188
657.16        69.86856
657.59        69.20146
658.02        67.70667
658.45        67.14255
658.87        66.87568
659.30        66.73463
659.73        66.58147
660.15        66.52927
660.58        66.26715
661.01        66.39671
661.44         66.7057
661.86        66.74178
662.29        66.50117
662.72        66.35863
663.14        66.38284
663.57        66.47782
664.00        66.60957
664.42        66.66188
664.85        66.62395
665.27        66.58076
665.70        66.53887
666.13        66.47361
666.55        66.39767
666.98        66.31167
667.41        66.25045
667.83        66.27026
668.26        66.36622
668.69        66.52728
669.11        66.70228
669.54        66.79385
669.96        66.78365
670.39        66.70448
670.82        66.60805
671.24        66.52799
671.67        66.50069
672.09        66.60752
672.52         66.8019
672.94        66.82128
673.37        66.69154
673.80        66.66589
674.22        66.75282
674.65        66.73523
675.07        66.62961
675.50        66.53339
675.92        66.48132
676.35        66.46827
676.77        66.50494
677.20        66.59088
677.62        66.69611
678.05        66.75048
678.47        66.73872
678.90        66.69199
679.32        66.63989
679.75        66.62705
680.17        66.69004
680.60        66.79482
681.02        66.90419
681.45        66.93322
681.87         66.8784
682.30        66.73547
682.72        66.58309
683.15        66.58935
683.57        66.76336
684.00        66.91148
684.42        66.99757
684.85        67.10117
685.27        67.19559
685.70         67.2165
686.12        67.17811
686.54        67.17022
686.97        67.18407
687.39        67.19763
687.82        67.20502
688.24        67.07216
688.66        67.12121
689.09         67.0658
689.51        67.02316
689.94        67.00399
690.36          67.009
690.78        66.98272
691.21        66.92564
691.63        66.87864
692.06        66.84829
692.48        66.81022
692.90        66.76979
693.33        66.73552
693.75        66.70999
694.17        66.69431
694.60        66.68154
695.02        66.68213
695.44        66.68656
695.87        66.71477
696.29        66.76511
696.71        66.79357
697.14        66.79873
697.56        66.88369
697.98        67.01673
698.41        67.12424
698.83        67.17746
699.25        67.23106
699.68        67.26572
700.10        67.28353
700.52        67.27598
700.94         67.2558
701.37        67.20382
701.79        67.12637
702.21         67.0155
702.64        66.88889
703.06         66.7908
703.48        66.80982
703.90        66.95918
704.33        67.19939
704.75        67.45844
705.17        67.59647
705.59        67.57921
706.01        67.42287
706.44        67.20232
706.86        67.17607
707.28        67.19477
707.70        67.33436
708.12        67.49139
708.55        67.63149
708.97          67.698
709.39        67.61372
709.81        67.42862
710.23        67.33396
710.66         67.3604
711.08        67.43148
711.50        67.48985
711.92        67.50272
712.34        67.45875
712.76        67.37255
713.19        67.28239
713.61        67.29597
714.03         67.4103
714.45          67.589
714.87        67.77874
715.29        67.89898
715.71        67.92776
716.13        67.89307
716.56          67.799
716.98        67.72739
717.40        67.68152
717.82        67.65163
718.24        67.65333
718.66        67.71261
719.08        67.82458
719.50         67.9722
719.92        68.12469
720.34        68.22985
720.76         68.2687
721.19        68.24744
721.61        68.17343
722.03        68.03173
722.45        67.83711
722.87        67.60381
723.29        67.39437
723.71        67.30644
724.13        67.36481
724.55        67.54819
724.97        67.79675
725.39        68.00522
725.81        68.13615
726.23        68.20603
726.65        68.24667
727.07        68.31676
727.49        68.42676
727.91        68.54789
728.33         68.6414
728.75        68.64896
729.17        68.56084
729.59        68.40883
730.01        68.23093
730.43        68.08564
730.85        67.99244
731.27        67.93077
731.69        67.90926
732.10        67.94004
732.52        68.00682
732.94         68.1541
733.36        68.31071
733.78        68.34467
734.20        68.23425
734.62        68.30888
735.04        67.53983
735.46        68.22284
735.88        68.39005
736.30        68.48658
736.72        68.08296
737.13        67.94488
737.55        68.10007
737.97        68.23899
738.39        68.32672
738.81        68.33229
739.23         68.2686
739.65        68.30716
740.06        68.39551
740.48        68.38988
740.90        68.25394
741.32        68.14618
741.74        68.02023
742.16        68.02605
742.57        68.15613
742.99        68.37673
743.41        68.60669
743.83        68.69983
744.25        68.62827
744.67        68.43382
745.08        68.21935
745.50        68.11602
745.92        68.17536
746.34        68.35226
746.75        68.57034
747.17        68.68612
747.59        68.65524
748.01        68.56263
748.42        68.46598
748.84        68.29909
749.26        68.12914
749.68        68.30889
750.09        68.70839
750.51        68.61641
750.93          68.149
751.35        68.19903
751.76        68.70139
752.18        68.85143
752.60         68.6189
753.01        68.45122
753.43        68.40459
753.85        68.41786
754.27        68.51178
754.68        68.69395
755.10        68.91725
755.52        69.10683
755.93        69.23486
756.35        69.31403
756.77        69.34389
757.18        69.33575
757.60        69.30079
758.02         69.2141
758.43        69.10686
758.85        69.00233
759.26        68.85532
759.68        68.80875
760.10        68.96532
760.51        68.12182
760.93        68.56069
761.34         68.4843
761.76         69.1252
762.18        69.30654
762.59        69.22849
763.01        69.12055
763.42        69.08589
763.84        69.03081
764.26        69.02222
764.67        69.12904
765.09        69.30447
765.50        69.39316
765.92        69.35497
766.33        69.06236
766.75        68.60984
767.16        68.45692
767.58         68.6271
768.00        69.06703
768.41        69.58944
768.83        69.61771
769.24        69.23079
769.66        69.07083
770.07        69.18136
770.49        69.37536
770.90        69.57733
771.32        69.57169
771.73        69.40836
772.15        69.38883
772.56        69.53105
772.97        69.67193
773.39        69.73746
773.80        69.64964
774.22        69.45107
774.63        69.52174
775.05        69.79517
775.46        69.89759
775.88        69.77229
776.29         69.6889
776.70        69.66798
777.12         69.6396
777.53        69.63473
777.95        69.65547
778.36        69.71547
778.77        69.81502
779.19        69.94933
779.60        70.11824
780.02        70.28426
780.43        70.42845
780.84        70.51817
781.26         70.5195
781.67        70.51968
782.09        70.57403
782.50         70.5278
782.91        70.94907
783.33        70.05423
783.74        69.91232
784.15        70.01183
784.57        70.07351
784.98        70.06569
785.39        70.12548
785.81        70.23886
786.22        70.30484
786.63        70.31916
787.04        70.35774
787.46        70.43248
787.87        70.48019
788.28        70.51448
788.70        70.57794
789.11        70.64642
789.52        70.69725
789.93        70.72576
790.35        70.72921
790.76        70.72671
791.17        70.68196
791.58        70.57891
792.00        70.47293
792.41        70.40316
792.82        70.19518
793.23        70.00337
793.65        70.36559
794.06        71.17183
794.47         71.6969
794.88         71.8294
795.29        71.78069
795.71        71.98035
796.12        71.63084
796.53        71.01622
796.94        70.97219
797.35        71.45543
797.76        71.52089
798.18        71.15926
798.59        71.07707
799.00        71.28394
799.41        71.35601
799.82        71.27478
800.23        71.23761
800.64        71.24886
801.06        71.22227
801.47        71.20249
801.88          71.188
802.29        71.18665
802.70        71.22391
803.11        71.27153
803.52        71.27016
803.93        71.20583
804.34        71.07965
804.75        70.98946
805.17        71.04906
805.58        71.29771
805.99        71.78542
806.40        72.31266
806.81        72.27862
807.22        71.74804
807.63         71.4011
808.04        71.35746
808.45        71.31027
808.86         71.2953
809.27        71.57759
809.68        72.03187
810.09         72.2636
810.50        72.19596
810.91         71.9479
811.32        71.63668
811.73        71.46835
812.14        71.50926
812.55        71.64632
812.96        71.81543
813.37        72.02264
813.78        72.17851
814.19        72.08031
814.60        71.81479
815.01        71.71949
815.42        71.83075
815.83        71.96923
816.24        72.09463
816.65        72.21109
817.05        72.29628
817.46        72.32201
817.87        72.30791
818.28        72.22906
818.69        72.09167
819.10        71.90472
819.51        71.73141
819.92        71.68359
820.33        71.79251
820.74        72.02856
821.14        72.30539
821.55        72.52425
821.96         72.6314
822.37          72.642
822.78        72.60613
823.19        72.61624
823.60        72.69868
824.00        72.85175
824.41        72.94927
824.82         72.8784
825.23        72.62189
825.64        72.22892
826.04        71.87122
826.45         71.7877
826.86        72.04102
827.27        72.55586
827.68        73.13818
828.08         73.4931
828.49        73.46509
828.90        73.17523
829.31        72.78728
829.72        72.58387
830.12        72.67209
830.53        72.92072
830.94        73.22703
831.35        73.38889
831.75        73.36371
832.16        73.17256
832.57        72.92325
832.97        72.75726
833.38        72.71757
833.79        72.76731
834.20        72.84348
834.60        72.85271
835.01        72.78457
835.42         72.6596
835.82        72.56276
836.23        72.55546
836.64        72.68243
837.04        72.93963
837.45        73.18738
837.86        73.29832
838.26        73.25504
838.67        73.08479
839.08        72.91667
839.48        72.94696
839.89        73.21218
840.29        73.63014
840.70        74.08263
841.11         74.3883
841.51        74.50974
841.92        74.47138
842.33        74.31864
842.73         74.1245
843.14        73.88346
843.54        73.60617
843.95        73.35548
844.35        73.25277
844.76        73.30872
845.17        73.50768
845.57         73.7529
845.98         73.8306
846.38        73.71735
846.79        73.44894
847.19        73.15103
847.60        72.98763
848.00          73.028
848.41        73.17503
848.81        73.39429
849.22        73.55557
849.62        73.64983
850.03        73.69689
850.43        73.70485
850.84        73.59631
851.24        73.42754
851.65        73.16217
852.05        72.96924
852.46        73.04353
852.86         73.4075
853.27        73.97642
853.67        74.51635
854.07        74.90253
854.48        75.05551
854.88        75.05483
855.29        74.83428
855.69        74.49218
856.10        73.99475
856.50        73.43513
856.90        72.86611
857.31        72.39735
857.71        72.11806
858.12        71.96906
858.52         71.9955
858.92        72.12037
859.33         72.2905
859.73         72.5462
860.13        72.78761
860.54        72.87054
860.94        72.78828
861.34        72.52399
861.75        72.15523
862.15        71.88422
862.55        71.73644
862.96        71.69715
863.36        71.67225
863.76        71.48442
864.17        71.10491
864.57        70.61849
864.97        70.19907
865.38         70.0965
865.78         70.4004
866.18        70.99548
866.58        71.65902
866.99        72.00843
867.39        71.94812
867.79        71.55824
868.19        71.01435
868.60        70.54355
869.00        70.21085
869.40         69.9858
869.80        69.83796
870.21        69.72695
870.61        69.71294
871.01        69.76617
871.41        69.89233
871.81        70.08677
872.22         70.3102
872.62        70.56933
873.02        70.81757
873.42         70.9641
873.82        70.98719
874.22        70.93333
874.63        70.85823
875.03        70.82181
875.43        70.85184
875.83        70.90538
876.23        71.02813
876.63        71.29472
877.03        71.68513
877.44        72.16276
877.84        72.54485
878.24        72.49815
878.64        71.98898
879.04        71.16635
879.44        70.31101
879.84        69.81107
880.24        69.75047
880.64         70.0201
881.04         70.4778
881.44        70.86943
881.84        71.08618
882.24        71.17575
882.65        71.15609
883.05        71.16278
883.45        71.19003
883.85        71.20948
884.25        71.15969
884.65        70.96462
885.05        70.62457
885.45        70.16781
885.85        69.75663
886.25        69.65767
886.65        69.92368
887.05        70.47992
887.45        71.06387
887.85        71.27084
888.25        71.01781
888.65        70.41264
889.04        69.72723
889.44        69.46707
889.84        69.72835
890.24        70.34406
890.64        71.02272
891.04        71.30557
891.44        71.08628
891.84        70.54085
892.24        69.88196
892.64        69.43305
893.04        69.30212
893.44        69.38574
893.83        69.64101
894.23        69.93973
894.63        70.24062
895.03        70.55826
895.43        70.84988
895.83        71.03324
896.23        71.09112
896.63         71.0476
897.02        70.90617
897.42        70.72099
897.82        70.51558
898.22        70.29888
898.62        70.15879
899.01        70.24844
899.41        70.56263
899.81        71.04631
900.21        71.57159
900.61        71.92091
901.00        72.01676
901.40        71.94396
901.80         71.7271
902.20        71.42894
902.59         71.1114
902.99        70.74837
903.39        70.47018
903.79        70.47373
904.18        70.77591
904.58        71.32037
904.98        71.91037
905.38        72.25594
905.77        72.28062
906.17        72.05222
906.57        71.71067
906.96        71.53098
907.36        71.56431
907.76        71.75146
908.15        71.94218
908.55        71.81501
908.95        71.34576
909.34        70.64189
909.74        69.96867
910.14        69.65968
910.53        69.80316
910.93        70.27979
911.33        70.90031
911.72        71.34144
912.12        71.47472
912.52        71.39919
912.91        71.22695
913.31        71.15392
913.70        71.22037
914.10        71.34412
914.49         71.4705
914.89        71.45531
915.29        71.28127
915.68        71.00803
916.08         70.7095
916.47           70.48
916.87        70.36903
917.26        70.33511
917.66        70.36438
918.05        70.39729
918.45        70.40533
918.84        70.42799
919.24        70.44955
919.64        70.52372
920.03         70.6746
920.42        70.87703
920.82        71.09343
921.21        71.26413
921.61        71.35885
922.00        71.38511
922.40        71.41267
922.79        71.63851
923.19        72.03934
923.58        72.58074
923.98        73.00996
924.37        73.00219
924.77        72.50487
925.16        71.63113
925.55        70.67799
925.95        70.15981
926.34        70.22449
926.74        70.69663
927.13        71.38514
927.52        71.87411
927.92        72.05371
928.31         72.0381
928.70        71.89878
929.10        71.73141
929.49        71.58031
929.89        71.35869
930.28        71.17808
930.67        71.13829
931.07        71.24619
931.46        71.51591
931.85        71.78294
932.24        71.81145
932.64        71.55437
933.03        71.07212
933.42        70.54637
933.82        70.26964
934.21        70.31996
934.60        70.63438
934.99        71.02067
935.39        71.13242
935.78        70.91987
936.17        70.47406
936.56        70.04778
936.96        70.05067
937.35        70.61121
937.74        71.53236
938.13        72.50353
938.53        73.09875
938.92        73.22219
939.31        72.97495
939.70        72.56036
940.09        72.33821
940.49         72.3849
940.88        72.61482
941.27        72.82408
941.66        72.70804
942.05        72.22163
942.44        71.52025
942.84        70.80646
943.23        70.32983
943.62        70.20797
944.01        70.34819
944.40        70.69895
944.79         71.1637
945.18        71.64259
945.57        72.11088
945.97        72.42989
946.36        72.47948
946.75        72.21074
947.14        71.66499
947.53        70.93388
947.92        70.20713
948.31        69.60001
948.70        69.12215
949.09        68.82245
949.48        68.74368
949.87        68.87695
950.26        69.20689
950.65        69.66724
951.04        70.14214
951.43        70.57699
951.82        70.96616
952.21         71.2616
952.60        71.41134
952.99         71.3953
953.38        71.19933
953.77        70.90096
954.16        70.62916
954.55        70.41476
954.94        70.25077
955.33        70.04633
955.72        69.63629
956.11        69.00331
956.50        68.22119
956.89        67.47178
957.28        67.05504
957.66        67.09319
958.05         67.5008
958.44        68.10168
958.83        68.60429
959.22        68.89639
959.61        68.98932
960.00        69.02596
960.39         69.2494
960.78        69.69267
961.16        70.31223
961.55        70.74968
961.94        70.51777
962.33        69.55782
962.72        68.10503
963.11        66.67666
963.49        66.00897
963.88        66.25707
964.27        67.22028
964.66        68.51017
965.04        69.41731
965.43        69.61381
965.82        69.35112
966.21        68.90335
966.60        68.71321
966.98        68.90687
967.37        69.26627
967.76        69.69358
968.15        70.00245
968.53        70.12082
968.92        70.16538
969.31        70.08364
969.69        69.75085
970.08        69.18897
970.47        68.44185
970.86         67.8685
971.24        68.10731
971.63        69.17435
972.02        70.81557
972.40        72.54888
972.79        73.57854
973.17        73.84748
973.56        73.50452
973.95        72.87168
974.33        72.49284
974.72        72.54226
975.11        72.82805
975.49        73.16139
975.88        73.26915
976.26        73.07374
976.65        72.70052
977.04        72.19429
977.42        71.58865
977.81        70.88577
978.19        70.03211
978.58        69.33868
978.96        69.27962
979.35        69.91714
979.74        71.18605
980.12        72.57659
980.51        73.02586
980.89        72.42422
981.28        70.93133
981.66        69.30629
982.05        68.98108
982.43        70.29842
982.82          72.739
983.20        75.41518
983.59        76.82064
983.97         76.6842
984.35         75.3874
984.74        73.55851
985.12        72.31702
985.51         72.0527
985.89        72.44759
986.28        73.12157
986.66        73.61832
987.04        73.74471
987.43        73.61258
987.81        73.39854
988.20        73.26329
988.58        73.31616
988.96        73.52766
989.35        73.52843
989.73        72.85641
990.12        71.37326
990.50        69.06172
990.88        66.74491
991.27        66.25334
991.65        68.05441
992.03         71.4708
992.42        74.70642
992.80        75.87302
993.18        74.53676
993.56        70.98065
993.95        66.31535
994.33        63.53922
994.71        64.13828
995.10        66.90684
995.48        70.02079
995.86        71.44369
996.24        70.96706
996.63        69.11159
997.01        66.89034
997.39        66.38989
997.77        68.35063
998.15        71.92097
998.54        75.51025
998.92           77.08
999.30        76.24202
999.68        73.61145
1000.06         70.3404
1000.45        68.54749
1000.83        69.01589
1001.21        70.99781
1001.59        73.47506
1001.97        74.97355
1002.35        75.09941
1002.73        74.34716
1003.12        73.07951
1003.50        71.93227
1003.88        71.32779
1004.26        70.94827
1004.64        70.84913
1005.02        71.14856
1005.40        71.78812
1005.78        72.84957
1006.16        73.86186
1006.54        73.92062
1006.92        72.83614
1007.30        70.83015
1007.69        68.79526
1008.07        68.12912
1008.45        69.23032
1008.83        71.64469
1009.21        74.35003
1009.59        75.90226
1009.97        75.90119
1010.35        74.52509
1010.73        72.46085
1011.11        71.46121
1011.49        72.29046
1011.86        74.52669
1012.24        76.63923
1012.62        76.76749
1013.00        74.67583
1013.38        71.06876
1013.76        67.34651
1014.14        65.79104
1014.52        67.09415
1014.90        70.67431
1015.28        75.33977
1015.66        78.64549
1016.04        79.55611
1016.41        78.75629
1016.79        77.04499
1017.17        76.05311
1017.55        76.21342
1017.93        77.04546
1018.31        78.01174
1018.69        78.29539
1019.06        77.73903
1019.44        76.67046
1019.82        75.65331
1020.20        75.74805
1020.58        77.12585
1020.95        79.01767
1021.33        80.78618
1021.71         81.6701
1022.09        81.46725
1022.46        80.45705
1022.84        78.45696
1023.22        74.93191
1023.60        69.86556
1023.97        63.10389
1024.35        56.07782
1024.73         51.8973
