SpectraSmart Spectrum 2.9.0.0
--------- Device Information -----------
Spectrum Name :  反射率_0
Saving Time :  2024/04/27 23:49:10
Spectro-Module Model Name : SE2030-DUVN
Spectro-Module Serial Number : OS361AC55029948
Wavelength Start : 200
Wavelength End : 1025
Wavelength Unit : Wavelength(nm)
Spectrum Unit : Reflectance(%)
-----------Spectrum Setting ------------
Integration Time : 20ms
Average : 10
Boxcar : 0
Background removal :  enabled
linearity correction :  enabled
SC :  disabled
Intensity correction :  disabled
DWT denoise :  enabled
savitzky-golay :  disabled
FFT :  disabled
Running average :  disabled
Kalman :  disabled
High pass :  disabled
---------------BEGIN--------------------
Wavelength(nm)             Reflectance(%)
200.29               0
200.75        63.30304
201.21        56.54448
201.67        52.31686
202.13        53.18848
202.58        57.59105
203.04        63.75212
203.50        71.24287
203.96        78.86465
204.42        85.21536
204.88        90.35449
205.34        94.04871
205.80        96.37923
206.26        97.59417
206.72        97.31276
207.18        94.35709
207.64        88.11375
208.10        81.86367
208.55        78.79001
209.01        76.04323
209.47        70.19793
209.93         57.8799
210.39        27.79922
210.85       -61.75403
211.31       -171.4415
211.77       -43.35903
212.23        41.35223
212.69        71.49887
213.14        81.26073
213.60        81.94973
214.06        76.99171
214.52        64.30357
214.98         49.4463
215.44        44.88594
215.90        46.41264
216.36        50.23821
216.81        54.86474
217.27        59.75226
217.73        65.93587
218.19        71.23408
218.65        71.16232
219.11        64.53545
219.57        51.94858
220.02        36.61162
220.48        28.86569
220.94        32.16217
221.40         42.0587
221.86        53.61338
222.32        61.98903
222.77        66.47186
223.23        68.68673
223.69        68.83308
224.15        66.77019
224.61        62.81724
225.06        56.80848
225.52        50.42934
225.98        47.13989
226.44        47.57373
226.90        49.87583
227.36        52.19136
227.81        52.98032
228.27        52.19964
228.73         50.3143
229.19        47.48435
229.65        44.24022
230.10        41.07211
230.56        38.30132
231.02        36.06381
231.48        34.58741
231.93         33.8008
232.39        33.66861
232.85        34.26579
233.31        35.67737
233.77        37.69859
234.22        40.23193
234.68        42.42089
235.14        43.28625
235.60        42.71494
236.05        40.76836
236.51         38.5484
236.97        38.45228
237.43        41.28537
237.88        46.43094
238.34        51.70784
238.80        54.99799
239.26        55.90105
239.71        54.50126
240.17        51.02778
240.63        49.32998
241.08        52.63834
241.54        57.76773
242.00        61.95404
242.46        64.52848
242.91        66.25999
243.37         67.9557
243.83        70.49744
244.28        74.00667
244.74        75.62037
245.20        74.41654
245.66        72.11271
246.11         69.5966
246.57        66.38042
247.03        61.41553
247.48        56.02657
247.94        58.52928
248.40        72.53583
248.85        91.12108
249.31        105.0347
249.77        107.6657
250.22        102.2334
250.68        93.56117
251.14        85.39669
251.59         80.5023
252.05        78.54908
252.51        77.75932
252.96        77.17462
253.42        75.86105
253.88         73.2022
254.33         70.8133
254.79        68.33574
255.25        64.03715
255.70        58.39338
256.16        52.88618
256.62        49.10985
257.07         48.9298
257.53        51.55088
257.99        54.77387
258.44        57.11415
258.90        57.70434
259.35        56.47652
259.81         54.5227
260.27        52.04248
260.72         49.2956
261.18         46.8463
261.63        44.50609
262.09        42.61517
262.55        41.23679
263.00        40.23713
263.46        39.59958
263.91        39.14113
264.37        38.87519
264.83        38.67031
265.28        38.48623
265.74         38.2058
266.19        37.53294
266.65        36.51969
267.11        35.23151
267.56        33.88214
268.02        32.90682
268.47        32.36065
268.93        32.12372
269.38        32.01034
269.84        31.73803
270.30        31.21697
270.75        30.54017
271.21         29.7565
271.66        28.90316
272.12        28.03735
272.57        27.11387
273.03        26.23717
273.48        25.50756
273.94        24.98378
274.39        24.61519
274.85        24.33355
275.31        23.97466
275.76        23.49348
276.22        22.95103
276.67        22.40225
277.13        21.99379
277.58        21.70955
278.04         21.5366
278.49        21.34495
278.95        21.03359
279.40        20.55652
279.86        20.01526
280.31          19.497
280.77        19.21675
281.22        19.16958
281.68        19.30166
282.13        19.47415
282.59        19.52259
283.04        19.40419
283.50        19.17356
283.95         18.9124
284.41        18.76594
284.86        18.75367
285.32        18.84228
285.77        18.92909
286.22        18.88982
286.68        18.72492
287.13        18.46028
287.59         18.2313
288.04        18.17535
288.50        18.33825
288.95        18.64159
289.41        18.98391
289.86        19.17979
290.32        19.20992
290.77        19.13606
291.22        19.06489
291.68        19.15065
292.13        19.42893
292.59         19.8659
293.04        20.40412
293.50        20.97255
293.95        21.54443
294.40         22.1629
294.86        22.85899
295.31        23.66996
295.77        24.61296
296.22         25.6524
296.68        26.78444
297.13        27.97679
297.58        29.21219
298.04        30.49197
298.49        31.78484
298.95         33.0717
299.40        34.36119
299.85        35.66692
300.31        37.06208
300.76        38.60791
301.21        40.30268
301.67        42.11345
302.12        43.91493
302.58        45.58695
303.03        47.08731
303.48        48.47756
303.94        49.88235
304.39        51.42213
304.84        53.14693
305.30        55.01908
305.75        56.92039
306.20        58.74184
306.66        60.46578
307.11        62.08002
307.57        63.66152
308.02        65.22709
308.47        66.78917
308.93        68.31879
309.38        69.73074
309.83        70.98256
310.29        72.09483
310.74        73.08586
311.19        74.01469
311.65        74.94818
312.10          75.876
312.55        76.77711
313.00        77.66273
313.46        78.55881
313.91        79.44755
314.36        80.33559
314.82        81.14026
315.27         81.7215
315.72        82.06097
316.18        82.21584
316.63        82.30537
317.08        82.55534
317.53        83.02093
317.99        83.63764
318.44        84.29974
318.89         84.8048
319.35        85.09998
319.80        85.25904
320.25        85.36653
320.70        85.56606
321.16        85.88438
321.61        86.27441
322.06        86.68391
322.51        87.04391
322.97        87.31158
323.42        87.54601
323.87        87.71551
324.32        87.78289
324.78        87.74475
325.23        87.64532
325.68        87.55714
326.13        87.62433
326.59        87.86123
327.04        88.27837
327.49        88.77015
327.94        89.18467
328.39        89.47459
328.85         89.6453
329.30        89.81409
329.75        90.06155
330.20        90.41608
330.66        90.81451
331.11        91.24209
331.56        91.57893
332.01        91.80662
332.46        91.95784
332.92        92.06875
333.37        92.32439
333.82        92.71561
334.27         93.1974
334.72         93.6945
335.17        94.08533
335.63        94.31581
336.08        94.47906
336.53        94.59593
336.98        94.73771
337.43        94.94123
337.88        95.18964
338.34        95.49191
338.79        95.90841
339.24        96.41702
339.69        96.99354
340.14        97.57862
340.59         98.0703
341.05        98.44429
341.50        98.74888
341.95        98.98577
342.40        99.17982
342.85        99.35777
343.30        99.50093
343.75        99.70943
344.20        100.1439
344.66        100.8127
345.11        101.6533
345.56        102.4538
346.01        102.8678
346.46        102.8357
346.91        102.4813
347.36        102.0397
347.81        101.8775
348.26        102.0869
348.72        102.5513
349.17        103.1257
349.62        103.5939
350.07        103.8705
350.52         104.018
350.97        104.0617
351.42        104.0349
351.87         103.964
352.32        103.8393
352.77        103.6676
353.22        103.4766
353.67        103.2724
354.13        103.0529
354.58        102.8302
355.03         102.678
355.48        102.5876
355.93        102.5363
356.38        102.3877
356.83        101.9286
357.28        101.1419
357.73        100.1207
358.18        99.05894
358.63        98.25461
359.08        97.78211
359.53        97.55283
359.98        97.43791
360.43        97.22944
360.88        96.85313
361.33        96.35718
361.78        95.78681
362.23        95.21927
362.68        94.67933
363.13        94.13219
363.58        93.53645
364.03        92.86951
364.48        92.08145
364.93         91.2501
365.38        90.43295
365.83        89.73742
366.28        89.17989
366.73        88.72073
367.18        88.28795
367.63         87.7627
368.08        87.11656
368.53        86.39583
368.98        85.63957
369.43        84.90981
369.88        84.23681
370.33        83.60268
370.78        83.03185
371.23        82.56504
371.68        82.19604
372.13        81.90501
372.58         81.6292
373.03        81.26458
373.48        80.78221
373.93        80.20937
374.38        79.58117
374.83         78.9569
375.28        78.36237
375.72        77.77126
376.17        77.22532
376.62        76.72395
377.07        76.26546
377.52         75.8433
377.97        75.44641
378.42        75.05444
378.87          74.657
379.32        74.25939
379.77        73.84002
380.22        73.36401
380.67        72.82982
381.11        72.25352
381.56        71.68004
382.01        71.19653
382.46        70.83141
382.91        70.56497
383.36        70.35405
383.81        70.12376
384.26         69.8508
384.71        69.55707
385.15         69.2478
385.60        68.98524
386.05        68.76216
386.50        68.55688
386.95        68.36164
387.40        68.17261
387.85        67.98656
388.29        67.76624
388.74        67.57121
389.19        67.33017
389.64        67.02708
390.09         66.6499
390.54        66.24722
390.98        65.88782
391.43        65.64314
391.88        65.50334
392.33        65.35506
392.78        65.13634
393.23        64.87045
393.67        64.30759
394.12        63.67987
394.57         64.0797
395.02        64.39536
395.47        64.45284
395.91        63.97661
396.36         63.7843
396.81        63.90273
397.26        63.88098
397.71        63.67253
398.15        63.43129
398.60         63.2363
399.05        62.83236
399.50        62.38464
399.95        62.47701
400.39        62.95279
400.84        62.95439
401.29        62.46182
401.74        61.96651
402.18        61.64414
402.63        61.65889
403.08        61.94196
403.53        61.99593
403.97        61.78772
404.42        61.70032
404.87        61.70355
405.32        61.61955
405.76        61.43888
406.21        61.09222
406.66        60.71287
407.11        60.76192
407.55        61.13573
408.00        61.22358
408.45        60.97299
408.90        60.47188
409.34        59.95409
409.79        60.10758
410.24        60.77871
410.68        61.03283
411.13        60.80083
411.58        60.65763
412.03        60.67851
412.47        60.71413
412.92        60.75759
413.37        60.86309
413.81        60.96843
414.26        61.02811
414.71        61.01478
415.15        60.95429
415.60         60.8604
416.05        60.81211
416.49        60.83793
416.94        60.91208
417.39        60.99952
417.83        61.04776
418.28        61.03489
418.73        60.95313
419.17        60.87187
419.62        60.90649
420.07        61.08872
420.51        61.39174
420.96        61.67476
421.41         61.7654
421.85        61.63116
422.30        61.12706
422.74        60.52751
423.19          60.889
423.64        62.00869
424.08        62.43839
424.53         62.0391
424.98        62.01805
425.42        62.41527
425.87        62.34831
426.31        61.93672
426.76        62.02978
427.21        62.54905
427.65        62.68871
428.10        62.47332
428.54        62.49977
428.99         62.8012
429.44        63.21233
429.88        63.54918
430.33        63.35366
430.77        62.78459
431.22        62.68917
431.66        63.07659
432.11        63.50468
432.56        63.93698
433.00        64.20972
433.45         64.0404
433.89        64.15652
434.34        64.76292
434.78        63.11316
435.23        63.16244
435.67        64.34314
436.12        65.04629
436.57        65.48489
437.01         65.0621
437.46        64.81796
437.90        65.13896
438.35        66.00713
438.79        65.42934
439.24        65.44873
439.68        65.51364
440.13        65.52769
440.57        65.50934
441.02        65.91142
441.46        66.52439
441.91        66.32275
442.35        65.54009
442.80        65.69496
443.24        66.63385
443.69        66.97302
444.13        66.66698
444.58        66.71059
445.02        67.09138
445.47        67.31809
445.91        67.34843
446.36        67.40756
446.80        67.49083
447.24        67.48067
447.69        67.45849
448.13        67.68967
448.58        68.10873
449.02        68.29546
449.47         68.2558
449.91        68.29994
450.36        68.44805
450.80        68.47063
451.25        68.41267
451.69        68.43754
452.13        68.54581
452.58         68.6326
453.02        68.66467
453.47        68.62807
453.91        68.51124
454.36         68.4218
454.80        68.31564
455.24        68.01645
455.69        67.68118
456.13        67.47723
456.58        67.47128
457.02         67.8925
457.46        68.39116
457.91        68.07988
458.35        67.34428
458.79        67.00308
459.24        67.18808
459.68        67.29462
460.13        67.26876
460.57        67.21115
461.01        67.13882
461.46        66.96043
461.90        66.71489
462.34        66.80803
462.79        66.82447
463.23        66.98341
463.68        67.10039
464.12         67.0255
464.56        66.83804
465.01        66.94003
465.45        67.12716
465.89         67.1125
466.34        66.97198
466.78        66.49407
467.22        65.76126
467.67        66.77075
468.11        66.61935
468.55        66.77099
468.99        66.40289
469.44        66.29953
469.88        66.46054
470.32        66.46294
470.77        66.32042
471.21        66.21996
471.65        66.17317
472.10        66.14124
472.54        66.09012
472.98        66.03339
473.42         65.9798
473.87        65.86353
474.31        65.69983
474.75          65.827
475.20        66.13322
475.64        66.03012
476.08        65.57139
476.52        65.46038
476.97        65.75175
477.41        65.74222
477.85         65.6804
478.29        66.00075
478.74        65.85162
479.18        65.10144
479.62        65.82697
480.06        65.80047
480.50        65.71776
480.95        65.71703
481.39        65.77181
481.83        65.82566
482.27        65.88355
482.72        65.57822
483.16        65.88493
483.60        65.55856
484.04        65.61529
484.48        65.49718
484.93        65.69778
485.37        65.42647
485.81        66.00585
486.25         66.4908
486.69        65.68776
487.14        64.79128
487.58         65.2038
488.02        65.59673
488.46        65.77769
488.90        65.97034
489.34        65.81279
489.79        64.88061
490.23        65.97758
490.67        65.97858
491.11        65.74969
491.55         65.6439
491.99        65.69614
492.43        65.69178
492.88        65.59497
493.32        65.51073
493.76        65.44238
494.20        65.44455
494.64        65.53728
495.08        65.62244
495.52        65.68696
495.96        65.89753
496.41        66.15714
496.85         66.0079
497.29        65.56029
497.73        65.49437
498.17        65.72829
498.61        66.01062
499.05        66.18085
499.49        66.16771
499.93        66.02541
500.37          65.896
500.82        65.79501
501.26        65.75166
501.70        66.19189
502.14        65.35223
502.58        65.70625
503.02        65.70919
503.46        65.81572
503.90        65.57652
504.34        65.82207
504.78        65.82648
505.22        65.80299
505.66        65.67533
506.10        65.53172
506.54        65.50095
506.98        65.57455
507.42        66.02725
507.86        66.14301
508.30        66.32792
508.74        66.35879
509.18        66.28433
509.62        66.14137
510.06        66.00439
510.50        65.91004
510.94        65.83458
511.38         65.7869
511.82        65.77979
512.26        65.81007
512.70        65.87759
513.14        65.95748
513.58        66.01102
514.02        66.02862
514.46        66.00621
514.90        65.94995
515.34         65.9574
515.78         65.9137
516.22        65.91113
516.66         65.9221
517.10        65.96416
517.54          66.034
517.98         66.1255
518.42        66.21672
518.86        66.26746
519.30        66.26807
519.74        66.23038
520.18        66.16927
520.62        66.10906
521.06        66.06236
521.50        66.02762
521.93        66.01221
522.37        66.01313
522.81        66.03359
523.25        66.06874
523.69        66.11483
524.13        66.16481
524.57        66.21162
525.01        66.25327
525.45         66.2724
525.89        66.24354
526.32        66.16071
526.76        66.04838
527.20        65.93235
527.64        65.86185
528.08        65.84946
528.52        65.88017
528.96        65.93586
529.40         65.9861
529.83        66.01268
530.27        66.03507
530.71        66.04313
531.15        66.03033
531.59        65.99873
532.03        65.94987
532.46        65.89223
532.90        65.86308
533.34        65.86442
533.78        65.88907
534.22        65.92464
534.66        65.95143
535.09        65.95374
535.53        65.95264
535.97        65.94205
536.41        65.92766
536.85        65.91196
537.28        65.89807
537.72        65.88053
538.16        65.84182
538.60        65.78646
539.04        65.73645
539.47        65.69473
539.91        65.70293
540.35        65.74606
540.79         65.8206
541.22        65.89389
541.66        65.92081
542.10        65.88914
542.54        65.82021
542.97        65.72506
543.41        65.65597
543.85        65.61162
544.29        65.59356
544.72        65.59985
545.16        65.61874
545.60        65.62169
546.04        65.75906
546.47        65.79522
546.91         65.7686
547.35         65.6446
547.79        65.68056
548.22        65.80483
548.66          65.699
549.10        65.40156
549.53        65.29028
549.97        65.38478
550.41        65.43411
550.84        65.43534
551.28        65.54037
551.72        65.70821
552.15        65.79545
552.59        65.79845
553.03        65.73489
553.46        65.64578
553.90         65.6459
554.34        65.73816
554.77        65.90883
555.21        66.07848
555.65        66.12724
556.08        65.97372
556.52        65.81556
556.96        65.69372
557.39        65.76031
557.83        65.98061
558.27        66.03456
558.70         65.9278
559.14        65.92439
559.57        66.00413
560.01        66.07303
560.45        66.08495
560.88        65.94719
561.32        65.77394
561.75        65.74062
562.19        65.84658
562.63        65.96181
563.06        66.00527
563.50        65.77525
563.93         65.3828
564.37        65.36704
564.80        65.68262
565.24        65.90741
565.68        65.96857
566.11        66.02708
566.55        66.08404
566.98        66.01434
567.42        65.87897
567.85        65.75061
568.29        65.82402
568.72        65.77891
569.16        65.67358
569.60        65.85629
570.03        66.00549
570.47        65.78281
570.90        65.91148
571.34        66.05336
571.77        66.06773
572.21        65.82332
572.64        65.71767
573.08        65.72797
573.51        65.42655
573.95        65.57454
574.38         65.9054
574.82         65.5887
575.25        65.66245
575.69        65.42848
576.12        65.26895
576.56        65.62926
576.99        65.96139
577.42        65.79753
577.86         65.9125
578.29        65.63203
578.73        65.36192
579.16        65.41287
579.60        65.63005
580.03        65.78004
580.47        65.76673
580.90        65.40628
581.33        65.78964
581.77        66.09356
582.20        65.50846
582.64         65.6127
583.07        65.28271
583.51        65.29552
583.94        65.58379
584.37        65.87424
584.81        65.76636
585.24        65.75316
585.68        65.85137
586.11        65.49966
586.54        65.39731
586.98        65.20947
587.41        66.20041
587.85        65.58239
588.28        65.72256
588.71        65.37029
589.15        66.22453
589.58        65.45733
590.01        65.91193
590.45        66.14158
590.88        65.21021
591.31        65.16699
591.75        65.47472
592.18        65.60017
592.61        65.59066
593.05        65.81653
593.48        66.19076
593.91        65.64834
594.35         65.5125
594.78        65.80796
595.21         65.6458
595.65        65.84824
596.08        65.26147
596.51        65.34805
596.94        65.69429
597.38         65.9128
597.81        66.01088
598.24        65.53595
598.68        65.93675
599.11        65.71044
599.54        65.97275
599.97        65.76764
600.41        65.90972
600.84        65.86808
601.27        65.78903
601.70        65.88843
602.14        65.48458
602.57        65.84879
603.00         66.0149
603.43        66.03822
603.87        66.06638
604.30        65.90637
604.73        65.73943
605.16         65.9544
605.60        66.05934
606.03        66.31335
606.46        66.57285
606.89        66.04668
607.32        66.16123
607.76        66.62615
608.19        66.22896
608.62        66.29363
609.05        66.38448
609.48         66.3884
609.92        66.21385
610.35        66.51122
610.78        66.46538
611.21        65.96616
611.64        66.28433
612.07        66.19208
612.50        66.13708
612.94        66.12286
613.37        66.20235
613.80        66.21725
614.23        66.32221
614.66        66.41148
615.09        66.45536
615.52        66.42379
615.96        66.41996
616.39        65.94215
616.82        66.17458
617.25        66.43715
617.68        66.51735
618.11        66.37614
618.54        66.03291
618.97        66.17175
619.40        66.64246
619.84        67.03453
620.27        66.68867
620.70        66.39022
621.13        66.08086
621.56        66.28695
621.99        66.49358
622.42        66.34483
622.85        66.43766
623.28        65.88078
623.71        66.38934
624.14        66.08187
624.57        66.23141
625.00        66.67246
625.43        66.17707
625.86        66.22173
626.29        66.38257
626.72        66.21543
627.15        66.27129
627.58        66.26483
628.01        66.39092
628.44        66.21198
628.87        66.15948
629.30        66.22482
629.73        66.38375
630.16        66.15227
630.59        66.17154
631.02        66.15498
631.45        66.25899
631.88        66.31302
632.31        66.32775
632.74        66.04316
633.17        66.13564
633.60        66.09119
634.03        66.10971
634.46        66.16798
634.89        66.23953
635.32        66.25757
635.75        66.20044
636.18         66.1282
636.61         66.0593
637.04        65.93604
637.47        65.79025
637.89        65.85786
638.32        66.10128
638.75        66.14141
639.18        65.91276
639.61        66.34202
640.04        66.04126
640.47        66.12542
640.90        66.18504
641.33        66.22504
641.76        66.21519
642.18        66.30373
642.61        66.23592
643.04        66.20644
643.47        66.15553
643.90         66.1129
644.33        66.08214
644.76         66.0602
645.18        66.03801
645.61        65.98756
646.04        65.90885
646.47        65.80639
646.90        65.70676
647.33        65.67088
647.75         65.7225
648.18        65.79979
648.61        65.86145
649.04        66.01878
649.47        66.19303
649.89        65.95358
650.32        65.47238
650.75        65.56363
651.18        66.15578
651.61        66.42948
652.03        66.27087
652.46        66.09828
652.89        66.06421
653.32        65.84175
653.74        65.66682
654.17        66.20866
654.60        66.37545
655.03        65.84087
655.46         65.8478
655.88        66.61224
656.31        67.17609
656.74        66.20801
657.16        64.93121
657.59        64.87622
658.02        65.61925
658.45        66.83888
658.87        66.86163
659.30        66.71248
659.73        66.18272
660.15        66.40408
660.58        66.21948
661.01        66.26959
661.44        66.19795
661.86        66.21346
662.29        66.28011
662.72        66.19189
663.14        66.02299
663.57        66.05637
664.00        66.26965
664.42        66.33929
664.85        66.25768
665.27        66.21311
665.70        66.21014
666.13        66.17548
666.55        66.11813
666.98        66.05371
667.41        66.01321
667.83        66.04443
668.26        66.14597
668.69        66.30762
669.11        66.48053
669.54         66.6004
669.96        66.65585
670.39        66.58948
670.82        66.46079
671.24        66.51155
671.67        66.68473
672.09        66.62341
672.52         66.3828
672.94        66.23251
673.37        66.23309
673.80        66.35845
674.22        66.55669
674.65        66.62672
675.07        66.55878
675.50        66.45126
675.92        66.36037
676.35        66.31584
676.77        66.34047
677.20        66.41933
677.62        66.52855
678.05         66.6108
678.47        66.64783
678.90        66.66668
679.32        66.66731
679.75        66.66116
680.17        66.65425
680.60        66.65161
681.02        66.64388
681.45         66.6196
681.87        66.59335
682.30        66.49828
682.72        66.39413
683.15        66.51461
683.57        66.80883
684.00        66.87241
684.42        66.71844
684.85        66.69604
685.27        66.80314
685.70        66.84809
686.12        66.81792
686.54        66.80885
686.97        66.84068
687.39        66.89764
687.82        66.92857
688.24        67.01473
688.66        67.08006
689.09        66.74712
689.51        66.89293
689.94        66.84007
690.36        66.86208
690.78        66.92986
691.21        67.02198
691.63        67.07423
692.06        67.06546
692.48        67.01139
692.90        66.94215
693.33        66.89607
693.75        66.89462
694.17        66.93958
694.60        66.97498
695.02        66.98365
695.44        66.95808
695.87        66.77517
696.29        66.54938
696.71        66.78438
697.14        67.33409
697.56        67.40218
697.98        67.02217
698.41        66.95145
698.83        67.18643
699.25        67.31538
699.68        67.29163
700.10        67.30354
700.52        67.33894
700.94        67.34854
701.37        67.32475
701.79        67.29336
702.21        67.24346
702.64        67.19906
703.06        67.15495
703.48        67.11681
703.90        67.09363
704.33        67.07601
704.75        67.08707
705.17        67.14278
705.59        67.24205
706.01         67.3512
706.44         67.4385
706.86        67.58475
707.28        67.59127
707.70         67.5931
708.12        67.55996
708.55        67.56608
708.97        67.59001
709.39        67.52445
709.81        67.39706
710.23        67.35864
710.66        67.42142
711.08        67.52453
711.50        67.60915
711.92        67.63374
712.34        67.58516
712.76        67.47616
713.19        67.34135
713.61        67.28761
714.03        67.32016
714.45        67.41296
714.87        67.53238
715.29        67.62463
715.71        67.67329
716.13        67.69698
716.56        67.68989
716.98        67.71447
717.40         67.7595
717.82        67.81318
718.24        67.87537
718.66        67.95054
719.08        68.03243
719.50        68.11251
719.92        68.18139
720.34        68.22219
720.76        68.23097
721.19        68.21101
721.61         68.1666
722.03        68.07497
722.45        67.94247
722.87        67.77709
723.29        67.63765
723.71        67.61585
724.13        67.72943
724.55        67.95606
724.97        68.21051
725.39        68.35109
725.81        68.34116
726.23        68.21346
726.65        68.05779
727.07        68.02113
727.49        68.13685
727.91        68.36073
728.33          68.596
728.75        68.68246
729.17        68.58219
729.59        68.35036
730.01        68.09009
730.43        67.96547
730.85        68.01463
731.27        68.17735
731.69         68.3778
732.10        68.50137
732.52        68.49971
732.94        68.46043
733.36        68.41935
733.78        68.32468
734.20        68.17844
734.62         68.4659
735.04        68.10871
735.46        68.38918
735.88        68.83965
736.30        68.71146
736.72        68.10782
737.13        67.99631
737.55         68.3857
737.97        68.57203
738.39        68.51189
738.81        68.59751
739.23        68.79347
739.65        68.81809
740.06        68.67136
740.48        68.61178
740.90        68.62185
741.32        68.67011
741.74        68.65731
742.16        68.72572
742.57         68.8484
742.99         69.0019
743.41        69.14572
743.83        69.19547
744.25        69.13819
744.67        68.99324
745.08        68.84748
745.50        68.80467
745.92        68.90819
746.34        69.12546
746.75        69.36302
747.17        69.48137
747.59        69.44565
748.01        69.24329
748.42        68.98389
748.84        68.93628
749.26        69.07448
749.68        69.15501
750.09         69.1236
750.51        68.95825
750.93        68.74833
751.35         68.8334
751.76        69.15397
752.18        69.25526
752.60        69.11401
753.01        69.00768
753.43        68.96832
753.85        68.96241
754.27        69.00384
754.68        69.09705
755.10        69.22346
755.52        69.34885
755.93         69.4706
756.35        69.59911
756.77        69.67698
757.18        69.76382
757.60        69.90755
758.02        69.70256
758.43        69.19802
758.85        69.81464
759.26        70.09901
759.68        69.48125
760.10        70.11314
760.51        68.84389
760.93        68.82179
761.34         69.1378
761.76        69.85803
762.18        70.25512
762.59        70.11935
763.01        69.99709
763.42        70.02106
763.84        69.97944
764.26        69.94322
764.67        70.14945
765.09        70.47437
765.50        70.29391
765.92          69.771
766.33        69.51804
766.75        69.84935
767.16        69.93134
767.58        69.78356
768.00        69.89781
768.41        70.23411
768.83        70.23426
769.24        69.97299
769.66         70.0033
770.07        70.25632
770.49        70.36636
770.90        70.28583
771.32         70.0731
771.73        69.83891
772.15        69.74406
772.56        69.82648
772.97        70.05083
773.39        70.31293
773.80        70.39418
774.22        70.30719
774.63        70.47585
775.05        70.83305
775.46        70.99809
775.88        70.91386
776.29        70.83945
776.70        70.80736
777.12        70.77432
777.53         70.7787
777.95          70.823
778.36        70.89725
778.77        70.95895
779.19        70.99563
779.60        71.02256
780.02        71.04872
780.43        71.10768
780.84        71.17715
781.26        71.26496
781.67        71.40272
782.09        71.40406
782.50        71.16429
782.91        71.60329
783.33        70.90189
783.74        70.82653
784.15        70.84548
784.57        70.88101
784.98        70.91932
785.39        71.01633
785.81        71.16731
786.22        71.32809
786.63        71.47558
787.04        71.60542
787.46        71.72088
787.87        71.80692
788.28        71.83099
788.70        71.77685
789.11        71.64281
789.52        71.35515
789.93         71.0369
790.35        71.12615
790.76        71.56048
791.17        71.67017
791.58        71.47502
792.00         71.5358
792.41        71.87431
792.82        72.14687
793.23        72.30416
793.65        72.36304
794.06        72.35645
794.47        72.44532
794.88        72.60562
795.29        72.46764
795.71        72.48486
796.12         72.2661
796.53        72.02854
796.94        72.23052
797.35        72.75217
797.76          72.738
798.18         72.2428
798.59        72.09078
799.00        72.32242
799.41        72.45013
799.82        72.42578
800.23        72.41871
800.64        72.41921
801.06        72.36312
801.47        72.28964
801.88        72.18042
802.29        72.05067
802.70        71.93112
803.11        71.84488
803.52        71.81989
803.93        71.86024
804.34        71.94087
804.75         72.0895
805.17        72.31123
805.58        72.61222
805.99        73.03484
806.40        73.42896
806.81        73.37265
807.22        72.91431
807.63        72.50491
808.04        72.29148
808.45        72.20496
808.86        72.29972
809.27        72.71412
809.68        73.27948
810.09        73.58039
810.50         73.5192
810.91        73.21411
811.32        72.81911
811.73        72.60632
812.14        72.66014
812.55        72.85021
812.96        73.07674
813.37         73.2868
813.78        73.37314
814.19        73.14965
814.60        72.74747
815.01        72.56516
815.42         72.6581
815.83        72.84466
816.24         73.0405
816.65        73.17113
817.05        73.19382
817.46        73.09002
817.87        72.97739
818.28          72.983
818.69        73.13133
819.10        73.38783
819.51         73.6423
819.92        73.69778
820.33        73.51299
820.74         73.1627
821.14        72.78976
821.55        72.64589
821.96        72.76953
822.37        73.08753
822.78        73.49326
823.19         73.7894
823.60        73.89784
824.00        73.89524
824.41        73.77039
824.82        73.59998
825.23        73.41951
825.64        73.20914
826.04        73.03996
826.45        72.99561
826.86        73.10431
827.27        73.35667
827.68         73.6646
828.08        73.89793
828.49        73.94818
828.90        73.88123
829.31        73.78264
829.72        73.80804
830.12        74.01196
830.53        74.28587
830.94        74.55193
831.35        74.65108
831.75        74.56058
832.16        74.29306
832.57         73.9355
832.97        73.60179
833.38        73.34754
833.79        73.16573
834.20        73.07153
834.60        73.07545
835.01        73.17942
835.42        73.36987
835.82           73.63
836.23        73.84501
836.64        73.99637
837.04        74.10514
837.45         74.1226
837.86        74.08051
838.26        74.00762
838.67        73.90211
839.08        73.79044
839.48        73.69717
839.89        73.64275
840.29        73.62457
840.70        73.69637
841.11        73.94171
841.51        74.36763
841.92        74.88833
842.33        75.37749
842.73        75.62258
843.14        75.51849
843.54        75.16079
843.95        74.65921
844.35        74.22187
844.76        73.91684
845.17        73.70248
845.57           73.58
845.98        73.50153
846.38        73.47199
846.79        73.49928
847.19        73.56167
847.60        73.55626
848.00        73.48655
848.41        73.33278
848.81        73.18915
849.22        73.14764
849.62        73.26407
850.03        73.47865
850.43        73.73132
850.84        73.84396
851.24        73.82669
851.65        73.67085
852.05        73.52236
852.46        73.53201
852.86        73.72793
853.27        74.04851
853.67        74.31782
854.07        74.47786
854.48        74.46873
854.88        74.37452
855.29        74.12505
855.69         73.8036
856.10          73.372
856.50        72.91093
856.90        72.50868
857.31        72.33378
857.71        72.46219
858.12        72.79619
858.52        73.24317
858.92        73.51293
859.33        73.51076
859.73        73.34241
860.13        73.07467
860.54        72.86774
860.94        72.81713
861.34        72.82664
861.75          72.853
862.15        72.89673
862.55        72.91462
862.96        72.94943
863.36        72.93501
863.76        72.73874
864.17        72.34844
864.57        71.81609
864.97        71.32458
865.38        71.14829
865.78        71.38996
866.18        71.95929
866.58        72.61634
866.99        72.93423
867.39        72.82175
867.79        72.37362
868.19        71.84295
868.60        71.57872
869.00        71.65531
869.40        71.99196
869.80        72.42738
870.21        72.66967
870.61        72.69395
871.01        72.54506
871.41        72.33766
871.81        72.22679
872.22        72.22203
872.62         72.2834
873.02         72.3789
873.42        72.44845
873.82        72.46944
874.22        72.49541
874.63         72.5095
875.03        72.44732
875.43        72.31936
875.83        72.11737
876.23          71.965
876.63        72.07599
877.03        72.47161
877.44        73.07219
877.84        73.64669
878.24        73.77528
878.64        73.38792
879.04        72.65722
879.44        71.86646
879.84        71.41042
880.24        71.37819
880.64        71.64655
881.04        72.09216
881.44        72.49887
881.84        72.76519
882.24        72.93726
882.65        72.99006
883.05        72.98499
883.45        72.90659
883.85        72.75655
884.25        72.54826
884.65        72.31229
885.05        72.07407
885.45        71.83894
885.85        71.69682
886.25        71.78857
886.65        72.12405
887.05        72.64586
887.45        73.17539
887.85        73.44357
888.25        73.38621
888.65        73.06661
889.04        72.62814
889.44        72.36362
889.84        72.33997
890.24        72.48504
890.64        72.67886
891.04        72.72811
891.44         72.5949
891.84        72.36485
892.24        72.14572
892.64        72.09497
893.04        72.24892
893.44        72.53765
893.83         72.9091
894.23        73.22275
894.63         73.4464
895.03        73.59546
895.43        73.66318
895.83        73.63747
896.23        73.53852
896.63        73.39657
897.02        73.22279
897.42        73.07513
897.82        72.96231
898.22         72.8736
898.62        72.87977
899.01        73.10268
899.41        73.51632
899.81        74.07726
900.21        74.60247
900.61        74.79316
901.00        74.57784
901.40        74.07373
901.80         73.4565
902.20        73.02435
902.59        72.88059
902.99        72.92646
903.39        73.11672
903.79        73.35294
904.18        73.57481
904.58        73.82155
904.98        74.03282
905.38        74.12226
905.77        74.06763
906.17        73.87434
906.57        73.62012
906.96        73.47729
907.36        73.46823
907.76        73.58491
908.15        73.71848
908.55        73.60607
908.95        73.23371
909.34        72.65971
909.74        72.13318
910.14        71.97375
910.53         72.2524
910.93        72.86078
911.33        73.54055
911.72        73.85453
912.12        73.68286
912.52        73.18474
912.91        72.62332
913.31         72.4054
913.70        72.60567
914.10        73.08547
914.49        73.66933
914.89          73.978
915.29        73.91164
915.68        73.59019
916.08        73.17484
916.47        72.90738
916.87        72.87865
917.26        72.98911
917.66        73.17876
918.05        73.32274
918.45        73.37428
918.84        73.40825
919.24        73.42309
919.64        73.48918
920.03        73.63873
920.42        73.83074
920.82        74.04365
921.21        74.24701
921.61        74.40994
922.00        74.53912
922.40        74.65323
922.79        74.86293
923.19        75.13343
923.58        75.46701
923.98        75.68852
924.37        75.59108
924.77        75.14363
925.16        74.41328
925.55        73.64745
925.95        73.26894
926.34        73.39175
926.74         73.8783
927.13        74.51859
927.52        74.86694
927.92        74.83098
928.31         74.5322
928.70        74.15044
929.10        73.95287
929.49        74.00829
929.89        74.17815
930.28         74.4275
930.67        74.58631
931.07        74.58096
931.46        74.50667
931.85        74.33764
932.24        74.05597
932.64        73.68987
933.03        73.25843
933.42        72.88165
933.82        72.74744
934.21        72.90868
934.60        73.33549
934.99        73.90508
935.39        74.38263
935.78        74.71255
936.17        74.89438
936.56        75.03471
936.96        75.31028
937.35        75.79128
937.74        76.38415
938.13        76.84973
938.53        76.86253
938.92        76.37634
939.31        75.45098
939.70        74.45985
940.09        74.05034
940.49        74.35774
940.88        75.26234
941.27        76.19878
941.66        76.28903
942.05        75.39381
942.44        73.80838
942.84        72.21803
943.23         71.6921
943.62        72.52083
944.01        74.35049
944.40        76.53729
944.79        77.92815
945.18         78.1171
945.57        77.43433
945.97        76.27331
946.36        75.30441
946.75        74.71384
947.14        74.30612
947.53        73.99877
947.92        73.68324
948.31        73.33157
948.70        73.05747
949.09        72.89278
949.48        72.82664
949.87        72.84763
950.26        72.91828
950.65        73.00711
951.04        73.08885
951.43        73.14429
951.82        73.16604
952.21        73.13948
952.60        73.05343
952.99        72.91267
953.38        72.72686
953.77        72.53133
954.16        72.37306
954.55        72.26657
954.94        72.21133
955.33        72.17999
955.72        72.12534
956.11        72.03045
956.50        71.89521
956.89        71.76896
957.28        71.72794
957.66         71.8213
958.05        72.03234
958.44        72.24696
958.83        72.28584
959.22          72.103
959.61         71.6877
960.00        71.29432
960.39        71.32549
960.78        71.84145
961.16        72.80052
961.55        73.64328
961.94        73.51341
962.33        72.27647
962.72        70.27035
963.11        68.31435
963.49        67.60899
963.88        68.38638
964.27        70.28758
964.66        72.60241
965.04        74.04208
965.43        74.08224
965.82        73.14877
966.21        71.79636
966.60        70.87968
966.98        70.65913
967.37        70.83453
967.76        71.19009
968.15        71.32654
968.53        71.12965
968.92        70.81409
969.31        70.52446
969.69        70.41088
970.08        70.51522
970.47        70.74459
970.86        71.15177
971.24        71.86186
971.63        72.75507
972.02        73.76262
972.40        74.66856
972.79         75.0451
973.17        74.92882
973.56        74.36417
973.95        73.62652
974.33         73.1778
974.72        73.16421
975.11        73.46606
975.49        73.87083
975.88        74.03512
976.26        73.87299
976.65        73.49867
977.04        73.04201
977.42         72.7036
977.81        72.50666
978.19        72.33559
978.58        72.33596
978.96        72.69751
979.35         73.3867
979.74        74.41072
980.12        75.39642
980.51        75.51072
980.89        74.71719
981.28        73.10558
981.66        71.39317
982.05        70.92671
982.43        72.03049
982.82        74.25768
983.20        76.70858
983.59         77.8289
983.97        77.35389
984.35        75.66429
984.74        73.50748
985.12        72.22564
985.51        72.22716
985.89        73.08596
986.28        74.22729
986.66        74.90888
987.04        74.89288
987.43         74.4107
987.81        73.71863
988.20        73.13916
988.58        72.85461
988.96        72.74384
989.35        72.56634
989.73        72.06042
990.12        71.11578
990.50        69.77012
990.88        68.43638
991.27        68.01557
991.65        68.77016
992.03        70.39632
992.42        71.98686
992.80        72.72384
993.18        72.35522
993.56         71.0187
993.95        69.28585
994.33        68.46973
994.71         69.1889
995.10        70.80637
995.48        72.45599
995.86        73.14931
996.24        72.81095
996.63        71.66352
997.01        70.31822
997.39        69.99434
997.77        71.12691
998.15        73.25496
998.54        75.40491
998.92        76.30497
999.30        75.72427
999.68        74.06206
1000.06        72.06445
1000.45        71.08545
1000.83        71.62729
1001.21        73.14257
1001.59         75.0051
1001.97        76.32691
1002.35        76.86444
1002.73        76.96388
1003.12        76.63012
1003.50        75.78214
1003.88        74.64709
1004.26        73.24207
1004.64        72.12803
1005.02        72.03973
1005.40        72.97522
1005.78        74.73891
1006.16        76.60943
1006.54        77.22158
1006.92        76.20798
1007.30        74.02268
1007.69        71.45456
1008.07        69.74838
1008.45        69.41799
1008.83        70.07228
1009.21         71.3429
1009.59         72.7255
1009.97        74.04514
1010.35        75.51629
1010.73        77.02979
1011.11        78.13211
1011.49        78.52631
1011.86        78.20324
1012.24        77.30458
1012.62        76.41213
1013.00        75.72602
1013.38        75.27856
1013.76        74.93902
1014.14        74.45052
1014.52        73.77066
1014.90        72.90765
1015.28        72.39842
1015.66        73.18146
1016.04        75.36996
1016.41        78.69328
1016.79        81.65339
1017.17        82.49129
1017.55        80.95604
1017.93        77.59873
1018.31        73.92894
1018.69        72.33722
1019.06        73.52827
1019.44        77.05503
1019.82        81.51715
1020.20        83.86314
1020.58        82.96221
1020.95        79.69685
1021.33        75.95466
1021.71        74.09118
1022.09         74.4352
1022.46        76.21497
1022.84        78.07781
1023.22        77.46292
1023.60        73.53954
1023.97        66.71315
1024.35        58.80758
1024.73        53.93712
