SpectraSmart Spectrum 2.9.0.0
--------- Device Information -----------
Spectrum Name :  反射率_0
Saving Time :  2024/04/27 23:52:49
Spectro-Module Model Name : SE2030-DUVN
Spectro-Module Serial Number : OS361AC55029948
Wavelength Start : 200
Wavelength End : 1025
Wavelength Unit : Wavelength(nm)
Spectrum Unit : Reflectance(%)
-----------Spectrum Setting ------------
Integration Time : 20ms
Average : 10
Boxcar : 0
Background removal :  enabled
linearity correction :  enabled
SC :  disabled
Intensity correction :  disabled
DWT denoise :  enabled
savitzky-golay :  disabled
FFT :  disabled
Running average :  disabled
Kalman :  disabled
High pass :  disabled
---------------BEGIN--------------------
Wavelength(nm)             Reflectance(%)
200.29               0
200.75        84.84619
201.21        81.64862
201.67        76.46456
202.13        73.29922
202.58        71.55734
203.04        70.86741
203.50        70.53176
203.96        69.88588
204.42        69.03049
204.88        68.17493
205.34        68.02823
205.80        69.54343
206.26        72.91087
206.72        78.59589
207.18         85.8924
207.64         87.1807
208.10        79.52867
208.55        70.64085
209.01        63.33823
209.47        56.78376
209.93        47.90967
210.39         28.3778
210.85        -25.1221
211.31       -73.45057
211.77        15.77485
212.23        65.67574
212.69        81.45779
213.14        85.03507
213.60        82.17477
214.06        73.16228
214.52        56.81285
214.98        45.91632
215.44        52.92939
215.90        65.85603
216.36        75.95598
216.81        80.71924
217.27        81.73447
217.73        81.01195
218.19        78.78245
218.65        75.01357
219.11        69.90477
219.57        62.98406
220.02        55.50711
220.48        52.29559
220.94        54.51107
221.40        60.32335
221.86        66.72306
222.32        70.64236
222.77        71.90478
223.23        71.55563
223.69        70.35558
224.15        68.98481
224.61        67.57373
225.06        65.66895
225.52         63.6181
225.98        61.95996
226.44        60.98331
226.90        60.49795
227.36        60.11594
227.81        59.31932
228.27         58.0093
228.73        56.19106
229.19        53.82772
229.65        51.11878
230.10        48.35801
230.56        45.96932
231.02        44.08488
231.48        42.89335
231.93        42.31899
232.39        42.33298
232.85        42.92525
233.31        44.11725
233.77        45.73769
234.22        47.70906
234.68        49.41841
235.14        50.19887
235.60        49.96172
236.05        48.72068
236.51        47.21972
236.97        47.06649
237.43        48.82814
237.88        52.22525
238.34        55.61328
238.80        57.43743
239.26        57.30968
239.71        54.97495
240.17        50.78953
240.63         49.3881
241.08        54.19622
241.54         61.3656
242.00        66.79041
242.46        69.13101
242.91        69.08356
243.37        66.31898
243.83        59.78424
244.28         53.4076
244.74        58.15361
245.20           70.64
245.66        79.30675
246.11        81.22614
246.57        78.02013
247.03        69.32852
247.48        55.44068
247.94         47.1701
248.40         54.5956
248.85        70.85105
249.31        86.26823
249.77        93.16678
250.22        92.90279
250.68         89.7236
251.14        85.94022
251.59         83.1428
252.05        81.28616
252.51         78.8008
252.96        75.42517
253.42        73.29677
253.88        73.25455
254.33        74.91531
254.79        75.64474
255.25        72.72601
255.70        67.01676
256.16         60.5645
256.62        55.85327
257.07        55.57784
257.53        58.79816
257.99        62.92779
258.44        65.64832
258.90        65.42159
259.35        62.48627
259.81        58.50539
260.27        54.52735
260.72        51.79551
261.18         50.6482
261.63        50.18374
262.09        50.01143
262.55        49.38838
263.00        48.18036
263.46        46.80689
263.91        45.42421
264.37        44.53085
264.83        44.10115
265.28        43.90536
265.74        43.76348
266.19        43.28945
266.65        42.50147
267.11          41.497
267.56         40.4252
268.02        39.60963
268.47        39.07425
268.93        38.70796
269.38        38.39243
269.84        37.97641
270.30         37.3934
270.75        36.69813
271.21        35.86663
271.66        34.81267
272.12        33.58796
272.57        32.21699
273.03         30.9007
273.48        29.87175
273.94        29.23187
274.39        28.87654
274.85        28.70327
275.31        28.49199
275.76        28.15423
276.22        27.74796
276.67         27.2909
277.13         26.8917
277.58        26.52704
278.04        26.21496
278.49         25.8273
278.95        25.28651
279.40        24.55906
279.86        23.74452
280.31        22.99269
280.77        22.61873
281.22        22.60921
281.68        22.87918
282.13        23.16299
282.59        23.12382
283.04        22.70602
283.50        22.04765
283.95        21.36193
284.41        21.00329
284.86        21.03151
285.32        21.32987
285.77         21.7075
286.22        21.92205
286.68        21.92874
287.13        21.77856
287.59        21.59935
288.04        21.51107
288.50        21.56975
288.95        21.70065
289.41        21.84159
289.86        21.86526
290.32        21.77758
290.77        21.63733
291.22         21.5394
291.68        21.61399
292.13        21.88209
292.59        22.30338
293.04        22.83271
293.50        23.42087
293.95        24.03302
294.40        24.70176
294.86        25.39392
295.31        26.04865
295.77        26.67892
296.22        27.29113
296.68        27.99048
297.13        28.91936
297.58        30.09791
298.04        31.46592
298.49        32.89772
298.95        34.23016
299.40        35.42718
299.85        36.54553
300.31        37.68739
300.76        38.96152
301.21        40.39642
301.67        41.95261
302.12         43.5192
302.58        45.00018
303.03         46.3541
303.48        47.63055
303.94        48.95065
304.39        50.42722
304.84        52.09487
305.30         53.9109
305.75        55.71893
306.20        57.35035
306.66        58.79319
307.11        60.07599
307.57        61.33818
308.02        62.69526
308.47        64.18758
308.93        65.75241
309.38        67.29208
309.83        68.74002
310.29        70.09172
310.74        71.36384
311.19        72.55964
311.65        73.65648
312.10        74.62966
312.55        75.48381
313.00        76.29487
313.46        77.19786
313.91        78.20215
314.36        79.27808
314.82        80.31062
315.27        81.10313
315.72        81.61327
316.18        81.91879
316.63        82.12338
317.08        82.42705
317.53        82.88789
317.99        83.44345
318.44        84.03546
318.89        84.54535
319.35        84.93193
319.80        85.23898
320.25        85.49417
320.70        85.74458
321.16        85.99725
321.61        86.25065
322.06         86.4846
322.51        86.68034
322.97        86.82542
323.42        86.96551
323.87        87.11327
324.32        87.30324
324.78        87.53045
325.23        87.80939
325.68        88.11232
326.13        88.41522
326.59        88.68401
327.04        88.96786
327.49        89.23497
327.94         89.4668
328.39        89.66382
328.85        89.79884
329.30         89.9649
329.75        90.19862
330.20        90.50979
330.66        90.85491
331.11        91.22891
331.56        91.51669
332.01        91.70311
332.46        91.82245
332.92        91.89264
333.37         92.0712
333.82        92.35428
334.27        92.71329
334.72        93.13197
335.17        93.58457
335.63        94.02921
336.08        94.51454
336.53        94.98889
336.98        95.40278
337.43         95.7478
337.88        96.03865
338.34        96.29262
338.79        96.59001
339.24        96.93903
339.69        97.32316
340.14        97.74687
340.59         98.2127
341.05        98.71325
341.50        99.25871
341.95        99.79226
342.40        100.2389
342.85        100.5847
343.30         100.835
343.75        101.0698
344.20         101.422
344.66        101.9179
345.11        102.5168
345.56        103.0878
346.01        103.4197
346.46        103.4763
346.91        103.3282
347.36        103.1551
347.81          103.23
348.26        103.6097
348.72         104.215
349.17        104.8591
349.62        105.2605
350.07        105.3473
350.52        105.2046
350.97         104.997
351.42        104.9857
351.87        105.2278
352.32        105.6262
352.77        106.0221
353.22         106.182
353.67        106.0473
354.13        105.7043
354.58        105.2491
355.03        104.8938
355.48        104.6924
355.93        104.5848
356.38        104.4598
356.83        104.1468
357.28        103.6155
357.73        102.9386
358.18        102.2377
358.63        101.6896
359.08         101.337
359.53        101.1249
359.98        100.9516
360.43        100.6601
360.88        100.2063
361.33        99.62969
361.78        99.01784
362.23        98.51264
362.68        98.14522
363.13         97.8664
363.58        97.57015
364.03        97.10626
364.48         96.4251
364.93        95.60441
365.38        94.75843
365.83        94.07198
366.28        93.58837
366.73        93.25246
367.18        92.95994
367.63        92.54267
368.08        91.96009
368.53        91.26898
368.98        90.55968
369.43        89.97349
369.88        89.54725
370.33        89.23211
370.78        88.95429
371.23        88.59927
371.68        88.13015
372.13        87.57681
372.58        86.99371
373.03        86.46995
373.48         86.0299
373.93        85.64722
374.38        85.26647
374.83        84.79879
375.28         84.2327
375.72        83.59501
376.17        82.98518
376.62        82.48935
377.07        82.12479
377.52        81.83841
377.97        81.59544
378.42        81.34316
378.87        81.05849
379.32        80.77232
379.77        80.43523
380.22        79.96693
380.67        79.36993
381.11        78.66779
381.56        77.99639
382.01        77.59475
382.46        77.50833
382.91        77.66118
383.36        77.86567
383.81        77.82339
384.26        77.46739
384.71        76.89565
385.15        76.24426
385.60        75.78561
386.05        75.57178
386.50         75.5192
386.95        75.54637
387.40        75.53247
387.85        75.43609
388.29        75.25408
388.74        75.08823
389.19        74.90406
389.64         74.6973
390.09        74.43987
390.54        74.14466
390.98        73.82681
391.43         73.5445
391.88        73.29916
392.33        73.03493
392.78        72.73582
393.23        72.43057
393.67        71.95971
394.12        71.46378
394.57        71.68324
395.02        71.50257
395.47        71.50468
395.91        71.36077
396.36        71.28877
396.81        71.28159
397.26        71.22297
397.71        71.09756
398.15        70.89603
398.60        70.69827
399.05         70.4215
399.50        70.13436
399.95        70.00419
400.39         70.0164
400.84        69.95751
401.29        69.79454
401.74        69.56434
402.18        69.29924
402.63        69.04285
403.08        68.84489
403.53        68.70096
403.97        68.63004
404.42        68.69176
404.87        68.82336
405.32        68.92614
405.76        68.95766
406.21        68.87447
406.66        68.74041
407.11        68.77973
407.55         68.9398
408.00        68.94454
408.45         68.7561
408.90        68.21024
409.34        67.52673
409.79        67.50396
410.24        68.00523
410.68        68.11423
411.13        67.77166
411.58        67.52139
412.03        67.44459
412.47        67.43349
412.92        67.47917
413.37        67.61288
413.81        67.75301
414.26        67.83414
414.71        67.82055
415.15        67.75055
415.60        67.62724
416.05        67.52251
416.49        67.46919
416.94         67.4378
417.39        67.44006
417.83        67.49286
418.28        67.58278
418.73        67.68716
419.17        67.78471
419.62        67.84294
420.07        67.86192
420.51        67.85444
420.96        67.80567
421.41        67.71028
421.85        67.55981
422.30        67.22713
422.74        66.83948
423.19        67.08118
423.64        67.78545
424.08        67.97678
424.53        67.55614
424.98        67.42289
425.42        67.62788
425.87        67.44887
426.31        67.02878
426.76         67.2294
427.21        67.92291
427.65        68.09751
428.10        67.74295
428.54         67.6563
428.99         67.8746
429.44        68.00156
429.88        67.97494
430.33        67.79158
430.77        67.49974
431.22        67.52048
431.66        67.80003
432.11        67.94651
432.56        68.05114
433.00        68.18544
433.45        68.09136
433.89        68.42029
434.34        69.30176
434.78        67.20618
435.23         67.5877
435.67        68.24738
436.12        68.88006
436.57        69.12608
437.01        68.66672
437.46        68.33239
437.90        68.52499
438.35        69.49443
438.79        68.95321
439.24        69.03685
439.68         69.0841
440.13        69.08416
440.57         69.0906
441.02        69.42432
441.46        69.93192
441.91        70.02237
442.35         69.6986
442.80        69.65585
443.24        69.86061
443.69        69.95272
444.13        69.90695
444.58        69.92135
445.02        69.98299
445.47        70.06126
445.91        70.13076
446.36        70.21234
446.80        70.28839
447.24        70.28622
447.69        70.27225
448.13        70.49495
448.58        70.87906
449.02        70.98267
449.47        70.82079
449.91         70.7385
450.36         70.7681
450.80        70.67333
451.25        70.51015
451.69        70.45966
452.13        70.52502
452.58        70.59412
453.02         70.6327
453.47        70.62162
453.91        70.53772
454.36        70.49441
454.80        70.43552
455.24        70.09017
455.69        69.60413
456.13        69.32192
456.58        69.36357
457.02        69.40189
457.46        69.99162
457.91        69.78008
458.35        69.31937
458.79          69.052
459.24        69.08361
459.68        69.02486
460.13        68.90686
460.57        68.58714
461.01        68.37123
461.46        68.29882
461.90        68.24601
462.34        67.81561
462.79        68.25771
463.23        68.30646
463.68        68.32274
464.12        68.18317
464.56        67.97196
465.01        68.10142
465.45        68.35052
465.89        68.17708
466.34        67.70963
466.78        67.38809
467.22        67.24736
467.67        67.65709
468.11        67.41592
468.55        67.36224
468.99        67.19032
469.44        67.15193
469.88        67.24831
470.32        67.30679
470.77        67.30491
471.21        67.28876
471.65        67.24483
472.10        67.17004
472.54        67.04248
472.98        66.87878
473.42        66.69373
473.87        66.47972
474.31        66.25232
474.75        66.20397
475.20        66.31091
475.64        66.32735
476.08        66.20071
476.52        66.25322
476.97        66.51913
477.41        66.23746
477.85        66.14044
478.29        66.52329
478.74         66.6284
479.18        66.11203
479.62        66.50777
480.06        66.37159
480.50        66.19788
480.95        66.25129
481.39        66.57301
481.83        65.74031
482.27        66.32733
482.72        65.98677
483.16        66.10532
483.60        66.09486
484.04        66.07665
484.48        66.37003
484.93        67.08016
485.37        66.42027
485.81        66.53093
486.25        67.00654
486.69        67.33356
487.14        66.37615
487.58        66.50622
488.02        66.63076
488.46        66.67686
488.90        66.72218
489.34        66.83726
489.79        65.81248
490.23        66.66072
490.67        66.44371
491.11        66.10702
491.55        66.00758
491.99        66.15845
492.43        66.22388
492.88        66.15596
493.32        66.17154
493.76        66.24245
494.20        66.31126
494.64        66.39166
495.08        66.40507
495.52        66.38486
495.96        66.62505
496.41        67.02967
496.85         66.9685
497.29        66.53174
497.73        66.57058
498.17        66.93764
498.61        67.08381
499.05         66.9053
499.49        66.65778
499.93        66.45393
500.37        66.37202
500.82        66.36325
501.26        66.42103
501.70        66.64706
502.14        65.92798
502.58        66.62199
503.02        66.72462
503.46        66.64289
503.90        66.64173
504.34        66.66394
504.78        66.71156
505.22        66.72482
505.66         66.6677
506.10        66.61037
506.54         66.5645
506.98        66.49953
507.42        67.02545
507.86         67.0829
508.30        66.91415
508.74        67.04521
509.18        66.84274
509.62        66.61591
510.06        66.45641
510.50        66.41125
510.94        66.43377
511.38        66.47881
511.82        66.49301
512.26        66.45626
512.70        66.39378
513.14         66.3368
513.58        66.30682
514.02        66.30978
514.46        66.37695
514.90        66.49773
515.34        66.42209
515.78        66.52295
516.22        66.50146
516.66        66.48593
517.10        66.48743
517.54        66.51115
517.98        66.54538
518.42         66.5731
518.86        66.56657
519.30        66.52003
519.74        66.48023
520.18        66.45776
520.62        66.38541
521.06        66.30797
521.50        66.40221
521.93        66.62282
522.37        66.71774
522.81        66.66601
523.25         66.5918
523.69        66.52306
524.13        66.45437
524.57        66.39918
525.01        66.35938
525.45        66.32643
525.89        66.28738
526.32        66.23348
526.76        66.18159
527.20        66.13746
527.64        66.11706
528.08         66.1211
528.52        66.14114
528.96        66.16129
529.40        66.15741
529.83        66.12041
530.27        66.07353
530.71        66.02225
531.15         65.9857
531.59        65.96857
532.03        65.95882
532.46        65.95652
532.90        65.98366
533.34        66.03117
533.78        66.09616
534.22        66.14275
534.66         66.1162
535.09        66.00655
535.53        65.85263
535.97        65.69939
536.41        65.64487
536.85         65.7099
537.28        65.83426
537.72        65.97162
538.16        66.11239
538.60        66.19666
539.04        66.09563
539.47        65.86265
539.91        65.76152
540.35        65.80375
540.79        65.87833
541.22        65.93835
541.66        65.96259
542.10        65.93418
542.54        65.86671
542.97        65.78899
543.41        65.78051
543.85        65.83899
544.29        65.94166
544.72        66.03632
545.16        66.07043
545.60         66.0153
546.04        65.91095
546.47        65.78961
546.91        65.66203
547.35        65.57156
547.79        65.60947
548.22        65.70007
548.66        65.70934
549.10        65.64404
549.53        65.45918
549.97        65.59724
550.41        65.63509
550.84        65.68798
551.28        65.82542
551.72        66.02446
552.15         66.1087
552.59        66.05544
553.03        66.26685
553.46        66.07775
553.90         66.1014
554.34          66.143
554.77        66.16399
555.21        66.14668
555.65        66.22288
556.08        66.26564
556.52        66.12238
556.96          65.848
557.39        65.86879
557.83        66.15698
558.27        66.24444
558.70        66.11287
559.14        66.09611
559.57        66.18582
560.01        66.20243
560.45        66.13486
560.88        66.14223
561.32        66.23242
561.75        66.10006
562.19        65.84109
562.63        65.86093
563.06        66.09419
563.50        66.06358
563.93        65.78664
564.37        65.70589
564.80        65.81535
565.24        65.93655
565.68        66.02625
566.11        66.09791
566.55        66.16434
566.98        66.18252
567.42        66.18132
567.85         66.2198
568.29        66.32475
568.72        66.25013
569.16        66.07362
569.60        66.15696
570.03         66.5179
570.47        66.38757
570.90        66.56161
571.34        66.97546
571.77        66.94535
572.21        66.82836
572.64        66.88663
573.08         66.7616
573.51        66.45025
573.95        66.47077
574.38        66.71723
574.82        66.70424
575.25        67.00806
575.69        66.64021
576.12         66.4513
576.56        66.53929
576.99        66.65804
577.42        66.81664
577.86        66.58086
578.29        66.83364
578.73        66.71777
579.16        66.73174
579.60        66.58913
580.03         66.5007
580.47        66.74106
580.90        66.71459
581.33        66.97116
581.77        67.08167
582.20        66.97041
582.64        66.60189
583.07        66.60732
583.51        66.41468
583.94        66.44506
584.37        66.50542
584.81        66.61457
585.24        66.61254
585.68         66.5637
586.11        66.44572
586.54        66.58141
586.98        66.12518
587.41        66.66298
587.85        66.24473
588.28        66.35288
588.71        66.14484
589.15        66.68919
589.58        66.11812
590.01        66.41338
590.45        66.70357
590.88         65.8043
591.31        65.64652
591.75        65.66445
592.18        65.75928
592.61        66.11914
593.05        65.86195
593.48        66.39379
593.91         66.5776
594.35        66.38362
594.78        66.61848
595.21        66.05592
595.65        65.97496
596.08        65.99834
596.51        66.21969
596.94        65.92414
597.38        65.95009
597.81        66.16077
598.24        65.95815
598.68        66.39558
599.11        66.02483
599.54        66.28558
599.97          66.258
600.41        66.45386
600.84        66.45911
601.27        66.30914
601.70        66.24007
602.14        65.75735
602.57        66.10307
603.00        66.33471
603.43        66.45337
603.87        66.61815
604.30          66.259
604.73        66.35117
605.16        66.53929
605.60        66.27017
606.03        66.45437
606.46        66.78598
606.89        66.68199
607.32        66.59332
607.76        66.85735
608.19        66.60802
608.62        66.50231
609.05        66.32047
609.48        66.32387
609.92        66.46928
610.35         66.4957
610.78        66.66849
611.21        66.26099
611.64        66.64194
612.07        66.58821
612.50        66.49106
612.94        66.46484
613.37        66.56456
613.80        66.24546
614.23        66.73396
614.66        66.20193
615.09        66.70923
615.52        66.68423
615.96        66.66634
616.39        66.40875
616.82        66.63119
617.25        66.44609
617.68        66.42954
618.11        66.38968
618.54          66.481
618.97        66.60559
619.40        66.64931
619.84        66.94332
620.27        66.73029
620.70        66.53839
621.13        66.17274
621.56         66.3784
621.99         66.2087
622.42        66.33607
622.85        66.13669
623.28        66.64203
623.71        66.43436
624.14        66.00303
624.57        66.20826
625.00        66.63794
625.43          66.096
625.86        66.21051
626.29        66.54668
626.72        66.23021
627.15        66.26779
627.58        66.11944
628.01        66.22392
628.44        65.75655
628.87        65.73933
629.30        66.29128
629.73        66.14035
630.16        66.05534
630.59        66.07077
631.02        66.04301
631.45        66.09588
631.88        66.08154
632.31        66.01101
632.74         65.9599
633.17        65.93253
633.60        65.90717
634.03        65.87901
634.46        65.90509
634.89        65.94706
635.32        65.84013
635.75         65.6284
636.18        65.55198
636.61         65.6185
637.04        65.66245
637.47        65.66734
637.89         65.7048
638.32        65.75073
638.75         65.7947
639.18        65.83012
639.61        65.84187
640.04         65.8196
640.47        65.77951
640.90        65.72818
641.33        65.63362
641.76        65.50719
642.18        65.53351
642.61        65.45865
643.04         65.4776
643.47        65.50211
643.90        65.51202
644.33        65.49722
644.76        65.47173
645.18        65.43655
645.61        65.37592
646.04        65.29611
646.47         65.2013
646.90         65.1214
647.33        65.09872
647.75        65.14112
648.18        65.25337
648.61        65.39198
649.04        65.44203
649.47        65.38982
649.89        65.35076
650.32        65.35671
650.75         65.2872
651.18        65.19282
651.61        65.39044
652.03        65.73441
652.46        65.66949
652.89        65.36656
653.32        65.14983
653.74        65.34626
654.17        66.16199
654.60        65.80865
655.03        65.54068
655.46        65.87408
655.88        66.34163
656.31        67.59843
656.74        68.79166
657.16        67.86642
657.59        67.08987
658.02        66.14222
658.45        66.15182
658.87        66.21139
659.30        66.34394
659.73        65.92731
660.15        65.73148
660.58        65.63377
661.01        65.71801
661.44         65.8991
661.86        66.00401
662.29         65.9905
662.72        65.90685
663.14         65.8202
663.57        65.88072
664.00         66.0528
664.42        66.06868
664.85        65.92371
665.27         65.7818
665.70        65.68264
666.13        65.62217
666.55        65.61704
666.98        65.65701
667.41        65.73142
667.83        65.81945
668.26        65.90185
668.69        65.99462
669.11        66.07423
669.54        66.11545
669.96        66.12469
670.39        66.03866
670.82        65.92849
671.24        66.04082
671.67        66.32336
672.09        66.43266
672.52        66.36544
672.94        66.31303
673.37        66.29623
673.80        66.22874
674.22        66.13201
674.65        66.02512
675.07        65.94099
675.50        65.87799
675.92        65.85835
676.35        65.88641
676.77        65.96336
677.20        66.08776
677.62        66.22276
678.05        66.28687
678.47        66.26446
678.90        66.18797
679.32        66.09692
679.75        66.06974
680.17        66.12173
680.60        66.23375
681.02        66.35839
681.45        66.41148
681.87        66.38905
682.30        66.27383
682.72        66.13261
683.15        66.16267
683.57        66.34698
684.00        66.38147
684.42        66.29783
684.85        66.37167
685.27        66.59167
685.70        66.82845
686.12        67.00419
686.54         67.0317
686.97         66.9047
687.39        66.78077
687.82        66.70607
688.24        66.49822
688.66        66.50012
689.09        66.49899
689.51        66.56277
689.94        66.56823
690.36        66.50951
690.78        66.39283
691.21        66.26292
691.63        66.24792
692.06         66.3373
692.48        66.36306
692.90        66.32268
693.33        66.33078
693.75         66.3834
694.17        66.40488
694.60         66.3961
695.02         66.4072
695.44        66.42924
695.87        66.50703
696.29        66.61008
696.71        66.56633
697.14        66.41404
697.56        66.47065
697.98        66.68964
698.41        66.85835
698.83        66.82265
699.25        66.85932
699.68        66.91271
700.10        66.92689
700.52        66.89123
700.94        66.83359
701.37        66.75787
701.79        66.70473
702.21        66.66927
702.64        66.65208
703.06        66.65603
703.48         66.7083
703.90        66.80798
704.33        66.93576
704.75        67.06717
705.17        67.10735
705.59        67.03638
706.01        66.92319
706.44        66.83199
706.86        66.64728
707.28        66.74628
707.70           66.82
708.12        66.96419
708.55           67.07
708.97        67.06647
709.39        67.32571
709.81        67.05313
710.23        67.06184
710.66        67.12297
711.08        67.19206
711.50        67.21909
711.92        67.19976
712.34        67.13957
712.76        67.03743
713.19        66.93597
713.61        66.94899
714.03         67.0738
714.45        67.27584
714.87        67.49316
715.29        67.62999
715.71         67.6614
716.13        67.61778
716.56        67.51434
716.98        67.45235
717.40        67.43921
717.82        67.45897
718.24        67.51183
718.66         67.5994
719.08        67.71156
719.50        67.83932
719.92        67.96789
720.34        68.07063
720.76        68.13481
721.19        68.15773
721.61        68.13299
722.03        68.02406
722.45        67.83745
722.87         67.5912
723.29        67.35484
723.71        67.23772
724.13        67.26816
724.55        67.42208
724.97        67.63221
725.39        67.78175
725.81        67.83476
726.23        67.81758
726.65        67.77837
727.07        67.79881
727.49        67.89579
727.91        68.03456
728.33        68.16727
728.75        68.21884
729.17        68.17194
729.59        68.06106
730.01        67.92377
730.43         67.8182
730.85         67.7645
731.27        67.74088
731.69        67.75652
732.10        67.82509
732.52        67.92612
732.94         68.1107
733.36        68.33305
733.78        68.38759
734.20        68.23283
734.62        68.43112
735.04        67.97478
735.46        68.17266
735.88        68.60659
736.30        68.67569
736.72        68.39101
737.13        68.32155
737.55        68.45396
737.97        68.50769
738.39        68.44353
738.81        68.17289
739.23        67.80181
739.65        67.84657
740.06        68.20052
740.48        68.30729
740.90        68.10815
741.32        68.00156
741.74        67.94213
742.16         67.9601
742.57        68.04694
742.99        68.19612
743.41        68.37378
743.83        68.51357
744.25        68.59476
744.67        68.62174
745.08        68.62852
745.50        68.63555
745.92        68.66778
746.34        68.71626
746.75        68.74837
747.17        68.72607
747.59        68.64606
748.01        68.47255
748.42        68.27954
748.84        68.28004
749.26        68.43124
749.68        68.49076
750.09        68.42696
750.51        68.29465
750.93        68.16245
751.35        68.25161
751.76        68.51484
752.18         68.5741
752.60        68.48349
753.01        68.39706
753.43        68.35641
753.85        68.33806
754.27        68.35272
754.68         68.3979
755.10        68.46997
755.52        68.56136
755.93        68.67312
756.35        68.81879
756.77        68.94419
757.18        69.02177
757.60        69.05943
758.02        68.87783
758.43        68.61466
758.85        68.84145
759.26           69.37
759.68        69.34118
760.10         69.0957
760.51        68.06986
760.93        68.61854
761.34        68.60641
761.76        68.90424
762.18        68.96684
762.59        68.91685
763.01        68.82228
763.42        68.98603
763.84        69.02041
764.26        69.01838
764.67        69.26699
765.09        69.63703
765.50        69.46403
765.92        68.92188
766.33        68.74342
766.75        68.87389
767.16        69.26198
767.58        68.90836
768.00        68.99257
768.41        69.24144
768.83        69.34142
769.24        69.27824
769.66        69.29762
770.07        69.35565
770.49        69.22049
770.90        68.96368
771.32        68.92049
771.73        69.11568
772.15        69.24397
772.56        69.30322
772.97        69.53616
773.39        69.83773
773.80        69.84878
774.22         69.5879
774.63        69.51883
775.05         69.6422
775.46        69.69518
775.88         69.6507
776.29        69.73174
776.70        69.89478
777.12        69.96954
777.53        69.95341
777.95         69.8792
778.36        69.79306
778.77        69.74779
779.19        69.76299
779.60        69.82921
780.02        69.91161
780.43        69.99234
780.84        70.04146
781.26        70.03776
781.67        70.06851
782.09        70.17397
782.50        70.19228
782.91         70.6983
783.33        69.90393
783.74        69.82692
784.15        69.94766
784.57        70.02142
784.98         70.0169
785.39        70.03863
785.81        70.09163
786.22        70.13945
786.63        70.18961
787.04        70.27526
787.46        70.40556
787.87        70.55166
788.28        70.68062
788.70        70.74884
789.11        70.72902
789.52        70.61275
789.93        70.46429
790.35        70.44616
790.76        70.57401
791.17        70.64208
791.58        70.61957
792.00        70.63508
792.41        70.70802
792.82        70.65593
793.23        70.56175
793.65        70.77203
794.06        71.22221
794.47        71.47663
794.88        71.49911
795.29        71.35334
795.71        71.47684
796.12        71.27833
796.53        70.95124
796.94         70.9006
797.35        71.10463
797.76        71.10068
798.18        70.92072
798.59        70.94994
799.00         71.1979
799.41        71.44548
799.82        71.60484
800.23        71.64549
800.64        71.54378
801.06        71.28657
801.47        71.00876
801.88        70.86119
802.29        70.89358
802.70        71.07249
803.11         71.3145
803.52        71.47003
803.93        71.49283
804.34        71.42007
804.75        71.32717
805.17        71.32333
805.58         71.4647
805.99        71.70084
806.40        71.94019
806.81        72.00914
807.22        71.88157
807.63        71.66081
808.04        71.44835
808.45        71.37166
808.86        71.47165
809.27        71.71764
809.68        72.01178
810.09        72.16853
810.50         72.1364
810.91        71.97557
811.32        71.75521
811.73        71.60398
812.14        71.56676
812.55        71.55882
812.96        71.57171
813.37        71.69974
813.78        71.87895
814.19        71.88274
814.60        71.73676
815.01        71.68375
815.42        71.74249
815.83        71.76672
816.24         71.7701
816.65        71.85735
817.05        72.03197
817.46        72.21533
817.87         72.3868
818.28        72.46722
818.69        72.44005
819.10         72.3378
819.51        72.18271
819.92        72.01662
820.33        71.87496
820.74        71.75561
821.14        71.69203
821.55          71.769
821.96        71.97038
822.37        72.27005
822.78        72.59672
823.19        72.81387
823.60        72.87271
824.00        72.83032
824.41        72.66874
824.82        72.45798
825.23        72.23804
825.64         72.0054
826.04        71.85412
826.45        71.89958
826.86        72.16419
827.27        72.60556
827.68        73.09988
828.08        73.46239
828.49          73.561
828.90        73.48021
829.31        73.28123
829.72        73.08309
830.12        72.95799
830.53        72.82572
830.94        72.71915
831.35        72.65968
831.75        72.66738
832.16        72.70834
832.57        72.76405
832.97        72.75008
833.38        72.64807
833.79        72.50163
834.20        72.35912
834.60        72.29065
835.01         72.3277
835.42        72.43108
835.82        72.62607
836.23        72.87708
836.64        73.17981
837.04        73.54565
837.45        73.84612
837.86         73.9741
838.26        73.91965
838.67        73.70344
839.08        73.43442
839.48        73.28104
839.89        73.29659
840.29        73.43687
840.70        73.65547
841.11        73.87553
841.51        74.07836
841.92        74.24386
842.33        74.36755
842.73        74.43484
843.14        74.39424
843.54        74.27337
843.95        74.09161
844.35        73.90853
844.76        73.74078
845.17        73.59277
845.57        73.47673
845.98        73.36656
846.38         73.2818
846.79        73.20381
847.19        73.15812
847.60        73.13137
848.00        73.13609
848.41        73.13425
848.81        73.12502
849.22        73.03273
849.62         72.8911
850.03        72.71521
850.43        72.55736
850.84        72.41783
851.24        72.35649
851.65        72.29988
852.05        72.37909
852.46        72.69958
852.86        73.22692
853.27        73.90372
853.67        74.43166
854.07        74.59553
854.48        74.33447
854.88        73.75893
855.29        72.99199
855.69        72.50105
856.10        72.35616
856.50        72.52231
856.90        72.82383
857.31        72.99174
857.71        72.98999
858.12        72.85931
858.52         72.6892
858.92        72.49345
859.33        72.27907
859.73        72.04449
860.13        71.82301
860.54        71.71432
860.94        71.77531
861.34        71.96969
861.75        72.15491
862.15        72.15827
862.55        71.92019
862.96        71.50571
863.36        71.06644
863.76        70.84878
864.17        70.90384
864.57        71.15829
864.97        71.48453
865.38        71.65837
865.78        71.66169
866.18        71.54713
866.58        71.34076
866.99        71.10999
867.39         70.9295
867.79        70.73919
868.19         70.6088
868.60        70.61224
869.00        70.73829
869.40        71.00686
869.80        71.29086
870.21         71.3521
870.61        71.20733
871.01        70.87198
871.41        70.51184
871.81        70.36417
872.22        70.45448
872.62        70.74868
873.02        71.13874
873.42         71.4057
873.82        71.47218
874.22        71.40918
874.63        71.32615
875.03        71.35677
875.43        71.53704
875.83        71.80145
876.23         72.0819
876.63        72.27351
877.03        72.33555
877.44        72.29649
877.84        72.18284
878.24        72.00793
878.64        71.79588
879.04        71.55111
879.44        71.32136
879.84        71.16856
880.24        71.10133
880.64        71.11446
881.04        71.16444
881.44        71.16763
881.84        71.10131
882.24        70.97987
882.65        70.83332
883.05        70.82014
883.45         70.9244
883.85        71.10407
884.25         71.2832
884.65        71.35206
885.05        71.28868
885.45        71.12959
885.85        70.93723
886.25        70.82057
886.65        70.81846
887.05        70.90365
887.45        71.02409
887.85        71.10152
888.25        71.10637
888.65        71.04723
889.04        70.96069
889.44        70.94965
889.84        71.01059
890.24        71.11539
890.64        71.17157
891.04        71.03896
891.44        70.70864
891.84        70.25029
892.24        69.80063
892.64        69.56598
893.04        69.60136
893.44        69.84982
893.83         70.2394
894.23        70.58171
894.63        70.83688
895.03         71.0295
895.43        71.18205
895.83        71.33755
896.23        71.49603
896.63        71.61986
897.02        71.66864
897.42        71.62976
897.82        71.50026
898.22        71.32806
898.62         71.1434
899.01        70.99953
899.41        70.90644
899.81        70.85696
900.21        70.90662
900.61        71.14143
901.00        71.53738
901.40        72.06264
901.80        72.54446
902.20        72.73051
902.59        72.57696
902.99        72.14165
903.39        71.59156
903.79        71.19927
904.18        71.05319
904.58        71.09805
904.98        71.23641
905.38        71.32417
905.77        71.30568
906.17        71.22114
906.57         71.1328
906.96        71.15621
907.36        71.29605
907.76         71.5491
908.15         71.7815
908.55         71.7083
908.95        71.32351
909.34        70.68689
909.74        70.13298
910.14        70.12581
910.53         70.7421
910.93        71.80276
911.33        72.91705
911.72        73.42002
912.12        73.13603
912.52        72.32871
912.91        71.32994
913.31        70.62623
913.70        70.34344
914.10        70.32993
914.49        70.52618
914.89        70.76936
915.29        70.99435
915.68        71.24557
916.08         71.4951
916.47        71.67644
916.87        71.79025
917.26        71.81419
917.66        71.76366
918.05        71.65171
918.45        71.49124
918.84        71.31374
919.24         71.1624
919.64        71.18325
920.03        71.41779
920.42        71.82488
920.82        72.28693
921.21        72.60853
921.61        72.71954
922.00        72.65174
922.40        72.52715
922.79        72.64523
923.19        73.01414
923.58        73.57104
923.98        74.00796
924.37         73.9165
924.77        73.22809
925.16        72.08513
925.55        70.86002
925.95        70.19294
926.34        70.26668
926.74        70.87132
927.13        71.72502
927.52        72.26721
927.92        72.35725
928.31        72.15719
928.70        71.82903
929.10        71.60722
929.49        71.57206
929.89        71.59759
930.28        71.72032
930.67        71.90693
931.07        72.11645
931.46        72.39449
931.85         72.6463
932.24        72.74609
932.64        72.67272
933.03        72.45309
933.42        72.18821
933.82        72.04688
934.21        72.07757
934.60        72.24523
934.99        72.45908
935.39        72.54094
935.78        72.47511
936.17         72.2973
936.56        72.10979
936.96        72.07458
937.35         72.2683
937.74        72.58948
938.13        72.90656
938.53        73.03403
938.92        72.94382
939.31        72.70054
939.70        72.39754
940.09         72.2002
940.49        72.13866
940.88        72.17819
941.27        72.28677
941.66        72.42242
942.05        72.56055
942.44         72.7396
942.84        72.88333
943.23        72.80325
943.62        72.49459
944.01        71.97287
944.40        71.44421
944.79        71.28341
945.18        71.56772
945.57        72.18112
945.97        72.77768
946.36        72.90594
946.75        72.44007
947.14        71.51796
947.53        70.45152
947.92        69.79496
948.31        69.71812
948.70        70.06348
949.09        70.55314
949.48        70.74201
949.87        70.53207
950.26        70.09898
950.65        69.65252
951.04        69.51524
951.43        69.77105
951.82        70.27513
952.21        70.92008
952.60        71.53011
952.99        71.99915
953.38        72.36923
953.77        72.55934
954.16        72.45131
954.55         72.0507
954.94        71.37801
955.33        70.62406
955.72        70.12234
956.11        69.96264
956.50        70.08679
956.89        70.29911
957.28        70.22614
957.66        69.80251
958.05        69.15063
958.44        68.49265
958.83        68.16552
959.22        68.25494
959.61        68.62291
960.00        69.14945
960.39        69.66015
960.78        70.06847
961.16         70.4375
961.55        70.65668
961.94        70.64732
962.33        70.40538
962.72        69.97112
963.11        69.46233
963.49        69.06193
963.88        68.82551
964.27        68.72141
964.66        68.73439
965.04        68.84693
965.43        68.95948
965.82        69.12125
966.21        69.29379
966.60        69.42744
966.98        69.51435
967.37        69.51072
967.76        69.45509
968.15        69.40635
968.53        69.40849
968.92        69.47444
969.31        69.55409
969.69        69.55288
970.08        69.46023
970.47        69.31002
970.86        69.31049
971.24        69.82217
971.63        70.79284
972.02        72.05226
972.40        73.28118
972.79        73.91573
973.17        73.95601
973.56        73.49806
973.95        72.80436
974.33        72.31361
974.72        72.17206
975.11        72.23276
975.49        72.36938
975.88        72.39905
976.26        72.26299
976.65        72.05563
977.04        71.73982
977.42        71.21226
977.81        70.44663
978.19        69.43905
978.58        68.58277
978.96        68.50488
979.35        69.29807
979.74        70.79966
980.12        72.46857
980.51        73.20049
980.89        72.84518
981.28        71.59662
981.66        70.02826
982.05        69.25463
982.43        69.60017
982.82        70.66494
983.20        71.99762
983.59         72.7356
983.97        72.73478
984.35         72.2281
984.74        71.41879
985.12         70.6394
985.51          70.076
985.89        69.68427
986.28        69.51072
986.66        69.71927
987.04        70.25971
987.43        71.03783
987.81        71.97475
988.20        72.80372
988.58         73.4331
988.96        73.89017
989.35        73.96695
989.73        73.46629
990.12        72.32957
990.50        70.51937
990.88        68.53047
991.27        67.55374
991.65        68.02067
992.03        69.64651
992.42         71.4026
992.80        72.26553
993.18        71.92094
993.56        70.51512
993.95        68.68463
994.33        67.89336
994.71        68.76841
995.10        70.58006
995.48        72.24457
995.86        72.51441
996.24        71.28252
996.63        68.81033
997.01        65.95531
997.39        64.63079
997.77        65.62421
998.15        68.30003
998.54        71.28708
998.92        72.74595
999.30        72.27185
999.68        70.37793
1000.06        67.98283
1000.45        66.75188
1000.83        67.31804
1001.21        69.09796
1001.59        71.21381
1001.97        72.42188
1002.35        72.41863
1002.73        71.57613
1003.12         70.4737
1003.50         70.1089
1003.88        70.84332
1004.26        72.14556
1004.64        73.43027
1005.02        74.04452
1005.40        73.86929
1005.78        73.17139
1006.16        72.08992
1006.54        70.86787
1006.92        69.70088
1007.30        68.56335
1007.69         67.6843
1008.07        67.30081
1008.45        67.51506
1008.83        68.24237
1009.21        69.19363
1009.59        69.93864
1009.97        70.33319
1010.35        70.41416
1010.73        70.20936
1011.11        69.85998
1011.49        69.50715
1011.86        69.26216
1012.24        68.96935
1012.62        68.65602
1013.00        68.35426
1013.38        68.10679
1013.76        68.14312
1014.14        68.81486
1014.52        70.18038
1014.90        72.15293
1015.28        74.28123
1015.66        75.63458
1016.04        75.87056
1016.41        75.29494
1016.79        74.23514
1017.17        73.62423
1017.55        73.66992
1017.93        74.10133
1018.31        74.72023
1018.69        75.17816
1019.06        75.40788
1019.44        75.63342
1019.82        75.74473
1020.20        75.51407
1020.58        74.94165
1020.95        73.94372
1021.33         73.1104
1021.71        73.21258
1022.09         74.2198
1022.46        75.84838
1022.84        77.24551
1023.22        76.65717
1023.60        73.51199
1023.97        67.93301
1024.35        61.09121
1024.73        55.75232
