SpectraSmart Spectrum 2.9.0.0
--------- Device Information -----------
Spectrum Name :  反射率_0
Saving Time :  2024/04/28 00:10:31
Spectro-Module Model Name : SE2030-DUVN
Spectro-Module Serial Number : OS361AC55029948
Wavelength Start : 200
Wavelength End : 1025
Wavelength Unit : Wavelength(nm)
Spectrum Unit : Reflectance(%)
-----------Spectrum Setting ------------
Integration Time : 20ms
Average : 10
Boxcar : 0
Background removal :  enabled
linearity correction :  enabled
SC :  disabled
Intensity correction :  disabled
DWT denoise :  enabled
savitzky-golay :  disabled
FFT :  disabled
Running average :  disabled
Kalman :  disabled
High pass :  disabled
---------------BEGIN--------------------
Wavelength(nm)             Reflectance(%)
200.29               0
200.75        76.30516
201.21        73.03982
201.67        72.98338
202.13        72.63666
202.58        71.33529
203.04        70.29448
203.50        70.92779
203.96        74.84055
204.42        80.87215
204.88        87.15077
205.34        92.08724
205.80        94.60769
206.26         94.8499
206.72          93.026
207.18        88.35094
207.64        82.38151
208.10        79.30931
208.55        79.60938
209.01        80.64791
209.47        81.63293
209.93         82.8578
210.39        85.70673
210.85        97.70165
211.31        132.6685
211.77        130.8291
212.23        116.9359
212.69        109.7921
213.14        107.1614
213.60        105.7451
214.06        104.6673
214.52        102.5263
214.98        97.41825
215.44        91.86987
215.90        88.32523
216.36        87.28511
216.81        88.28144
217.27        90.56851
217.73        93.93752
218.19        96.71478
218.65        95.86175
219.11        90.45409
219.57        80.80353
220.02        69.10928
220.48        62.66546
220.94        64.14875
221.40        70.92638
221.86        79.07809
222.32        84.66732
222.77        87.22802
223.23         87.9986
223.69        88.05498
224.15        88.50851
224.61        89.59249
225.06        90.95033
225.52        91.86651
225.98        90.76605
226.44        88.06055
226.90        84.92097
227.36         82.6936
227.81        82.28095
228.27        83.55973
228.73        86.02657
229.19        88.63499
229.65        89.25466
230.10        87.19469
230.56        83.56493
231.02        79.67664
231.48        77.39878
231.93        76.96931
232.39        77.81174
232.85        79.26427
233.31        80.54186
233.77        81.38812
234.22        82.13527
234.68        82.67685
235.14        82.82734
235.60        82.63122
236.05        82.03403
236.51        81.46674
236.97         82.0195
237.43        83.92553
237.88         86.8672
238.34        89.69337
238.80        91.58314
239.26        92.42142
239.71        92.61074
240.17         91.4944
240.63        89.21472
241.08        87.16417
241.54        85.66864
242.00        85.30614
242.46        86.12388
242.91        88.30983
243.37        92.94339
243.83         102.323
244.28        113.8309
244.74        113.1991
245.20        101.2169
245.66         89.9659
246.11        83.19081
246.57        78.59789
247.03        74.33441
247.48        71.34051
247.94        74.86914
248.40        86.54369
248.85        101.3345
249.31        113.2308
249.77        118.0508
250.22        117.5581
250.68        114.5601
251.14        111.3496
251.59        110.0549
252.05        110.9349
252.51        113.2161
252.96        116.6817
253.42         119.694
253.88        120.1389
254.33        118.8111
254.79        116.5463
255.25        112.5463
255.70        107.1944
256.16        101.9275
256.62        98.14843
257.07        97.53004
257.53         99.7076
257.99        102.5828
258.44        104.3769
258.90         104.326
259.35        102.2483
259.81        99.64331
260.27        96.91628
260.72          94.632
261.18        93.36609
261.63        92.32114
262.09        91.73586
262.55         91.2589
263.00        90.65686
263.46        90.22281
263.91        89.59441
264.37        88.84277
264.83        87.86615
265.28        86.63874
265.74        85.44547
266.19        84.25753
266.65        83.20728
267.11        82.19492
267.56        81.11733
268.02        79.96061
268.47         78.6777
268.93        77.35551
269.38        76.07425
269.84        75.01292
270.30        74.17756
270.75        73.47588
271.21         72.8121
271.66        71.96325
272.12        70.90612
272.57        69.65702
273.03        68.30567
273.48         66.8722
273.94        65.49226
274.39        64.11609
274.85        62.88667
275.31        61.84526
275.76        60.95514
276.22        60.25348
276.67        59.60131
277.13        58.98713
277.58        58.28468
278.04        57.55779
278.49        56.72206
278.95        55.85094
279.40        54.88013
279.86        53.91847
280.31        52.88762
280.77        51.86895
281.22        50.83188
281.68        49.86722
282.13        49.01476
282.59        48.43806
283.04        48.08643
283.50        47.94584
283.95         47.8462
284.41        47.61438
284.86        47.18462
285.32        46.66103
285.77         46.1317
286.22        45.80585
286.68        45.73057
287.13        45.77585
287.59        45.87835
288.04        45.83838
288.50        45.65614
288.95        45.35097
289.41        45.01667
289.86        44.70966
290.32        44.49591
290.77        44.34225
291.22        44.25525
291.68        44.22902
292.13        44.25591
292.59         44.3871
293.04        44.64728
293.50        45.10745
293.95        45.75854
294.40        46.57959
294.86        47.53647
295.31         48.5635
295.77        49.64526
296.22        50.77518
296.68        51.94394
297.13        53.10555
297.58        54.25423
298.04        55.39915
298.49        56.56391
298.95        57.84808
299.40        59.26289
299.85        60.80182
300.31        62.44593
300.76         64.0959
301.21        65.71887
301.67        67.34061
302.12        68.91765
302.58        70.49714
303.03        72.04641
303.48        73.58552
303.94         75.1623
304.39        76.75079
304.84        78.38757
305.30        80.09347
305.75        81.80688
306.20        83.53704
306.66        85.29265
307.11        87.00368
307.57         88.7048
308.02        90.31875
308.47        91.84363
308.93        93.29501
309.38        94.59619
309.83        95.74664
310.29        96.78254
310.74        97.69611
311.19        98.56869
311.65        99.49949
312.10        100.4727
312.55        101.4619
313.00        102.4217
313.46        103.2896
313.91        104.0275
314.36        104.6691
314.82        105.2092
315.27        105.6362
315.72        105.9615
316.18        106.2098
316.63        106.4131
317.08         106.663
317.53        106.9858
317.99        107.3596
318.44        107.7685
318.89        108.1505
319.35        108.4852
319.80        108.7999
320.25        109.0941
320.70         109.378
321.16         109.642
321.61        109.8862
322.06        110.1225
322.51        110.3877
322.97        110.6646
323.42        110.9821
323.87        111.2663
324.32        111.4153
324.78        111.4032
325.23        111.3161
325.68         111.231
326.13        111.3036
326.59        111.5513
327.04        111.9739
327.49        112.4964
327.94        113.0325
328.39        113.5338
328.85        113.9741
329.30        114.3896
329.75        114.6754
330.20        114.8224
330.66        114.8254
331.11        114.8059
331.56        114.8434
332.01        114.9892
332.46        115.2281
332.92        115.5374
333.37         116.024
333.82        116.6216
334.27        117.3121
334.72        118.0063
335.17        118.5579
335.63        118.9045
336.08        119.1423
336.53        119.3102
336.98        119.5352
337.43        119.8672
337.88        120.2724
338.34        120.7427
338.79        121.3197
339.24        121.9663
339.69        122.6736
340.14        123.3635
340.59        123.9024
341.05        124.2684
341.50        124.5185
341.95        124.7089
342.40         124.957
342.85        125.2992
343.30        125.6786
343.75        126.1248
344.20        126.6816
344.66        127.3315
345.11        128.0623
345.56        128.6966
346.01        128.9451
346.46        128.7793
346.91        128.3025
347.36         127.802
347.81        127.7233
348.26        128.1563
348.72        128.9634
349.17        129.8759
349.62        130.4814
350.07        130.6575
350.52        130.5249
350.97        130.2455
351.42        130.0801
351.87        130.1028
352.32        130.2171
352.77        130.3211
353.22        130.2726
353.67        130.0314
354.13        129.6651
354.58        129.2145
355.03        128.7989
355.48        128.4449
355.93        128.1147
356.38        127.7383
356.83         127.209
357.28         126.514
357.73        125.7094
358.18        124.8763
358.63        124.1301
359.08        123.5059
359.53        122.9724
359.98        122.4893
360.43        121.9936
360.88        121.4558
361.33          120.88
361.78        120.2782
362.23        119.6656
362.68        119.0362
363.13        118.3872
363.58        117.6825
364.03        116.7908
364.48        115.8444
364.93        114.7915
365.38        113.7224
365.83        112.7108
366.28        111.7882
366.73         110.933
367.18        110.1675
367.63        109.5245
368.08        108.9924
368.53        108.5578
368.98        108.1254
369.43        107.5405
369.88        106.7706
370.33        105.8539
370.78        104.8976
371.23        104.0865
371.68        103.4675
372.13        102.9834
372.58        102.5512
373.03         102.033
373.48        101.3896
373.93        100.6732
374.38        99.92719
374.83         99.2112
375.28        98.54903
375.72        97.90253
376.17        97.30276
376.62        96.73261
377.07        96.18217
377.52         95.6395
377.97        95.10927
378.42        94.59666
378.87        94.09908
379.32        93.62742
379.77        93.12656
380.22        92.50566
380.67        91.76419
381.11        90.94178
381.56        90.16028
382.01        89.63592
382.46         89.4125
382.91        89.40961
383.36        89.48205
383.81         89.4005
384.26        89.09637
384.71        88.63651
385.15          88.065
385.60        87.51697
386.05        87.02139
386.50        86.54833
386.95        86.11591
387.40        85.76214
387.85         85.4887
388.29        85.23721
388.74         85.0601
389.19        84.82648
389.64        84.50371
390.09        84.09084
390.54        83.62167
390.98        83.14228
391.43        82.73331
391.88        82.38636
392.33         82.0416
392.78        81.66856
393.23        81.29546
393.67        80.77068
394.12        80.26473
394.57        80.42383
395.02        80.41193
395.47        80.32583
395.91        79.97665
396.36        79.82829
396.81        79.90133
397.26        79.95786
397.71         79.8917
398.15        79.65108
398.60        79.31773
399.05        78.72266
399.50        78.09445
399.95        78.01781
400.39        78.39713
400.84         78.5379
401.29        78.31166
401.74        77.84832
402.18        77.27139
402.63        76.89272
403.08         76.7655
403.53        76.55662
403.97        76.28988
404.42        76.29262
404.87        76.44045
405.32        76.43324
405.76        76.22083
406.21        75.73148
406.66        75.16999
407.11        75.19021
407.55         75.6704
408.00        75.77951
408.45        75.43356
408.90        74.76943
409.34        74.06882
409.79        74.14956
410.24        74.84247
410.68        75.05305
411.13        74.70513
411.58        74.48349
412.03        74.45785
412.47        74.41604
412.92        74.34464
413.37        74.32082
413.81        74.29698
414.26        74.25366
414.71        74.16463
415.15        74.05697
415.60        73.91404
416.05        73.78001
416.49        73.67878
416.94        73.58939
417.39        73.52751
417.83        73.51797
418.28        73.54636
418.73        73.57696
419.17         73.6008
419.62        73.60841
420.07        73.61307
420.51        73.63317
420.96        73.61588
421.41        73.53407
421.85        73.38055
422.30        72.91401
422.74        72.35535
423.19        72.81899
423.64        74.02275
424.08        74.27233
424.53        73.47944
424.98        73.21141
425.42        73.55341
425.87         73.3965
426.31        72.85406
426.76        72.93963
427.21        73.51601
427.65        73.51174
428.10        73.00976
428.54        72.91682
428.99        73.26888
429.44        73.72299
429.88        74.07735
430.33        73.84637
430.77         73.1711
431.22        73.11915
431.66        73.61603
432.11        73.65001
432.56         73.3026
433.00        73.45616
433.45        73.89336
433.89        74.09582
434.34        74.12283
434.78        73.17924
435.23        73.25007
435.67        73.82734
436.12         74.4119
436.57        74.53764
437.01        74.08463
437.46        73.77908
437.90        73.82621
438.35        74.58918
438.79        74.00475
439.24        74.06013
439.68        74.14636
440.13         74.0702
440.57        73.89928
441.02        74.20284
441.46        74.81522
441.91        74.83074
442.35        74.31619
442.80        74.41871
443.24          75.022
443.69        75.10374
444.13        74.69136
444.58        74.71277
445.02        75.07617
445.47        75.05855
445.91        74.70136
446.36        74.59074
446.80        74.73222
447.24        74.90633
447.69        74.88412
448.13        75.07887
448.58        75.32845
449.02        75.18126
449.47        74.77016
449.91        74.64144
450.36        74.85425
450.80        75.09177
451.25        75.26083
451.69        75.31541
452.13        75.20919
452.58         74.9045
453.02        74.50018
453.47        74.19001
453.91        74.01427
454.36        74.02419
454.80         74.0751
455.24        73.80552
455.69        73.33685
456.13        72.96288
456.58        72.82582
457.02        73.13377
457.46        73.55345
457.91        73.51698
458.35        72.90373
458.79        72.65907
459.24        72.75673
459.68        72.74584
460.13        72.64329
460.57        72.33353
461.01        72.14927
461.46        72.07619
461.90        71.77897
462.34        71.60813
462.79        71.79704
463.23        71.70406
463.68        71.47414
464.12         71.3448
464.56        71.37635
465.01        71.56922
465.45         71.6886
465.89        71.67159
466.34        71.51699
466.78        70.81149
467.22        69.77448
467.67        70.12074
468.11        70.33568
468.55        70.38469
468.99         69.8446
469.44        69.68847
469.88        69.91444
470.32        69.96383
470.77        69.82944
471.21          69.756
471.65        69.75103
472.10        69.76098
472.54        69.72662
472.98         69.6548
473.42        69.56221
473.87        69.30759
474.31         68.9612
474.75        69.14677
475.20         69.7142
475.64        69.48736
476.08        68.96085
476.52        68.74378
476.97        69.00783
477.41        68.85449
477.85        69.01614
478.29         68.6964
478.74        69.28107
479.18         68.3512
479.62        68.83363
480.06        68.70065
480.50        68.67355
480.95        68.87833
481.39        69.24264
481.83        68.79003
482.27        68.86866
482.72        68.69489
483.16         68.3792
483.60        68.28323
484.04        68.34186
484.48        68.36729
484.93        68.45273
485.37        68.97617
485.81        69.31832
486.25        69.70059
486.69        71.38663
487.14        70.34351
487.58        68.60622
488.02        68.84042
488.46        68.44881
488.90        68.39111
489.34        68.47407
489.79        67.53741
490.23        67.86965
490.67        67.73511
491.11        67.74401
491.55        67.71872
491.99        67.65378
492.43        67.55726
492.88        67.39771
493.32         67.4809
493.76        67.30714
494.20        67.33968
494.64        67.45251
495.08        67.52138
495.52        67.55965
495.96        67.88789
496.41        68.36485
496.85        68.25159
497.29        67.65882
497.73        67.52489
498.17        67.76983
498.61        67.92668
499.05        67.87408
499.49         67.8452
499.93        67.85403
500.37        67.66288
500.82        67.30451
501.26        67.31837
501.70        67.78037
502.14        67.02508
502.58          67.462
503.02        67.43585
503.46        67.37325
503.90        67.35418
504.34        67.30355
504.78        67.27641
505.22        67.21066
505.66        67.05593
506.10        66.90063
506.54        66.81264
506.98        66.75416
507.42        67.32468
507.86        67.24023
508.30        67.24348
508.74        67.31434
509.18        67.17269
509.62        66.98557
510.06        66.88232
510.50        66.90692
510.94        67.00417
511.38        67.11591
511.82        67.15775
512.26        67.10446
512.70        66.98841
513.14        66.86355
513.58        66.78746
514.02        66.77731
514.46        66.86019
514.90        67.00126
515.34        66.90872
515.78        66.95062
516.22        66.83625
516.66        66.73304
517.10        66.71312
517.54        66.79144
517.98        66.93321
518.42        67.06648
518.86        67.08723
519.30        66.97564
519.74        66.77663
520.18        66.55883
520.62        66.42576
521.06        66.40944
521.50        66.47906
521.93        66.60876
522.37        66.74214
522.81        66.85682
523.25        66.95584
523.69          67.032
524.13        67.07449
524.57        67.08025
525.01        67.05023
525.45         66.9763
525.89        66.85077
526.32        66.67826
526.76        66.48431
527.20        66.30925
527.64        66.22204
528.08        66.23314
528.52        66.31593
528.96         66.4247
529.40        66.48606
529.83        66.47208
530.27        66.41627
530.71        66.32483
531.15        66.22237
531.59        66.12413
532.03        66.02073
532.46        65.93797
532.90        65.94177
533.34        66.02999
533.78        66.18148
534.22         66.3403
534.66        66.41972
535.09        66.39227
535.53        66.30251
535.97        66.17963
536.41        66.08736
536.85        66.04801
537.28        66.04856
537.72        66.07576
538.16        66.09884
538.60        66.11057
539.04        66.13272
539.47        66.15605
539.91         66.2024
540.35        66.25356
540.79         66.3128
541.22        66.34927
541.66        66.32509
542.10        66.23433
542.54        66.09451
542.97        65.93999
543.41         65.8608
543.85        65.86024
544.29        65.91976
544.72        65.98962
545.16        66.01513
545.60        65.96667
546.04        65.88934
546.47        65.81297
546.91        65.72873
547.35        65.67531
547.79        65.78312
548.22         65.9686
548.66        66.00989
549.10        65.89359
549.53        65.82047
549.97        65.82368
550.41        65.82508
550.84        65.83202
551.28        65.89886
551.72        65.99421
552.15        66.02341
552.59        65.98825
553.03         65.9455
553.46        65.84014
553.90        65.80948
554.34        65.82871
554.77        65.89393
555.21        65.96841
555.65        65.99923
556.08        65.91014
556.52        65.88056
556.96        65.88297
557.39        65.93224
557.83        65.99776
558.27         65.8815
558.70        65.62766
559.14        65.51199
559.57        65.54451
560.01        65.58744
560.45        65.61147
560.88        65.67789
561.32        65.80252
561.75        65.82383
562.19         65.7838
562.63        65.85337
563.06        65.97871
563.50        65.88798
563.93        65.61993
564.37        65.51692
564.80        65.58183
565.24        65.70168
565.68        65.82662
566.11        65.91656
566.55           65.98
566.98        66.01681
567.42        66.04358
567.85        66.07703
568.29        66.18063
568.72        66.16776
569.16        66.08381
569.60        66.45643
570.03        66.60143
570.47        66.55463
570.90        66.95654
571.34        66.97868
571.77        67.03388
572.21        66.90488
572.64        67.07912
573.08        66.61565
573.51        66.33704
573.95        67.10503
574.38        67.34737
574.82        67.40967
575.25        67.38333
575.69        66.93861
576.12        66.93688
576.56         66.8891
576.99          67.099
577.42        67.35719
577.86        67.13873
578.29        67.64306
578.73        67.85244
579.16        67.78142
579.60        67.42523
580.03          67.176
580.47        67.05369
580.90        67.60381
581.33        67.91607
581.77           67.48
582.20        68.29089
582.64        68.38805
583.07          67.995
583.51        67.52658
583.94        67.19637
584.37        67.05817
584.81        67.22157
585.24        67.46394
585.68        67.67267
586.11        67.58356
586.54        67.88573
586.98        66.99325
587.41        67.09648
587.85        67.30939
588.28        67.44522
588.71        67.01207
589.15        67.48862
589.58        66.80614
590.01        66.78499
590.45        67.00497
590.88        66.36269
591.31        66.19109
591.75        66.35207
592.18        66.14312
592.61        66.03611
593.05        66.17553
593.48        67.41637
593.91        67.55683
594.35        66.86813
594.78        66.93118
595.21        66.62849
595.65        66.66679
596.08        66.62894
596.51         66.6771
596.94        66.30993
597.38        66.28568
597.81        66.55604
598.24        66.28687
598.68        66.65687
599.11        66.50852
599.54        67.20113
599.97        67.25986
600.41        66.96969
600.84        66.90015
601.27        67.04921
601.70        66.71486
602.14        66.50223
602.57        66.62059
603.00        66.55448
603.43        66.68662
603.87        67.09872
604.30        66.86069
604.73        66.58113
605.16        66.54108
605.60         66.4186
606.03        66.49702
606.46        66.45672
606.89        67.10033
607.32        67.00535
607.76        66.79864
608.19        66.95799
608.62        66.83236
609.05        66.52419
609.48        66.38007
609.92        66.26976
610.35        66.51689
610.78        66.72051
611.21        65.98705
611.64        66.65714
612.07         66.5295
612.50         66.3943
612.94        66.26808
613.37        66.17243
613.80         66.6295
614.23        66.38544
614.66        66.52094
615.09        66.59066
615.52        66.63649
615.96         66.7028
616.39        66.15917
616.82        66.19357
617.25        66.32082
617.68        65.98122
618.11        65.93383
618.54        65.95269
618.97        66.17161
619.40        66.47643
619.84        66.57494
620.27        66.50729
620.70        66.31096
621.13        66.02976
621.56        65.96416
621.99        65.61479
622.42        65.53367
622.85        66.10631
623.28        66.22077
623.71        66.02577
624.14        65.82069
624.57        65.72198
625.00        66.20593
625.43        65.71407
625.86        65.72723
626.29        65.81465
626.72        65.48269
627.15        65.63846
627.58        65.58894
628.01        65.67271
628.44        65.60726
628.87        65.28194
629.30        65.93804
629.73        65.77364
630.16        65.21894
630.59        65.50027
631.02        65.40975
631.45         65.4351
631.88        65.44617
632.31         65.4797
632.74        65.31123
633.17        65.43452
633.60        65.43042
634.03         65.4409
634.46        65.45923
634.89        65.47707
635.32        65.45859
635.75        65.39514
636.18        65.33646
636.61        65.29025
637.04        65.19361
637.47        65.08772
637.89        65.15233
638.32        65.33937
638.75        65.43584
639.18        65.41512
639.61        65.46172
640.04         65.4387
640.47        65.40896
640.90        65.33967
641.33        65.21785
641.76        65.06247
642.18        65.07166
642.61        64.99873
643.04        65.03213
643.47        65.07327
643.90        65.08508
644.33        65.05424
644.76        64.99899
645.18        64.93535
645.61        64.87479
646.04        64.82749
646.47        64.78355
646.90        64.75883
647.33        64.78228
647.75        64.86572
648.18        64.99863
648.61        65.13058
649.04        65.24749
649.47        65.30495
649.89        65.12482
650.32        64.84302
650.75        64.89878
651.18        65.24371
651.61        65.52814
652.03        65.59335
652.46        65.27438
652.89        64.83656
653.32        64.63723
653.74        65.05233
654.17        65.76333
654.60        65.47968
655.03         65.1302
655.46        65.37823
655.88        66.23374
656.31        68.69894
656.74        74.23936
657.16        72.01797
657.59        69.21301
658.02         66.4835
658.45        65.95583
658.87        66.09659
659.30        65.81695
659.73        65.54681
660.15        65.35012
660.58        65.25671
661.01        65.48772
661.44        65.79488
661.86        65.75793
662.29         65.3856
662.72        65.27883
663.14         65.4566
663.57        65.46959
664.00        65.32883
664.42        65.29168
664.85        65.36414
665.27         65.4171
665.70        65.42529
666.13         65.4101
666.55        65.36953
666.98        65.28653
667.41        65.19888
667.83        65.17452
668.26        65.22121
668.69        65.33028
669.11        65.46305
669.54        65.57182
669.96        65.65178
670.39        65.63355
670.82         65.5683
671.24        65.72286
671.67        66.02499
672.09         66.0042
672.52        65.72677
672.94         65.6658
673.37        65.81959
673.80         65.8175
674.22         65.6766
674.65        65.60853
675.07        65.63452
675.50        65.66109
675.92        65.69502
676.35        65.69274
676.77        65.63897
677.20         65.8494
677.62        65.77146
678.05        65.82693
678.47        65.84924
678.90        65.86829
679.32        65.88956
679.75        65.94394
680.17        66.03654
680.60        66.15965
681.02        66.27571
681.45        66.31207
681.87        66.26931
682.30        66.13485
682.72        65.98611
683.15        66.00152
683.57        66.18462
684.00        66.31846
684.42        66.37774
684.85        66.47628
685.27        66.58971
685.70        66.64687
686.12        66.64803
686.54        66.64187
686.97        66.62705
687.39        66.64445
687.82        66.68704
688.24        66.56075
688.66        66.58649
689.09        66.53026
689.51        66.50104
689.94        66.47539
690.36        66.46937
690.78        66.42973
691.21        66.37919
691.63        66.47053
692.06        66.63123
692.48        66.60629
692.90        66.45445
693.33        66.35217
693.75        66.28282
694.17        66.72485
694.60        66.50775
695.02        66.57037
695.44        66.55789
695.87        66.51306
696.29        66.45975
696.71        66.42068
697.14        66.41888
697.56        66.51813
697.98        66.67439
698.41        66.80003
698.83        66.86137
699.25        66.91947
699.68        66.95961
700.10        66.99455
700.52        67.01653
700.94         67.0228
701.37        67.00356
701.79         66.9841
702.21        66.95057
702.64        66.91254
703.06        66.86858
703.48        66.83502
703.90         66.8212
704.33         66.8218
704.75        66.83157
705.17        66.82054
705.59        66.78675
706.01        66.71389
706.44        66.64541
706.86         66.7744
707.28         66.9209
707.70        67.19406
708.12        67.46492
708.55        67.61424
708.97        67.60715
709.39        67.47994
709.81        67.30231
710.23        67.20228
710.66        67.21794
711.08        67.33171
711.50        67.46233
711.92        67.50293
712.34        67.43272
712.76        67.28956
713.19        67.13991
713.61        67.13786
714.03        67.29132
714.45        67.54406
714.87        67.81731
715.29          67.994
715.71         68.0426
716.13        68.00449
716.56        67.89343
716.98        67.80807
717.40        67.75866
717.82        67.72674
718.24        67.73483
718.66        67.82119
719.08        67.98018
719.50         68.1936
719.92        68.40679
720.34        68.52691
720.76        68.52824
721.19        68.43089
721.61        68.28112
722.03         68.1069
722.45        67.93189
722.87        67.79385
723.29        67.73396
723.71         67.5959
724.13        67.73441
724.55        67.86746
724.97        68.05635
725.39        68.21346
725.81        68.31497
726.23        68.37222
726.65        68.41437
727.07        68.47572
727.49        68.61389
727.91        68.76388
728.33        68.89841
728.75        68.95031
729.17        68.90576
729.59        68.79335
730.01        68.65208
730.43        68.54453
730.85        68.49251
731.27        68.47703
731.69        68.49692
732.10        68.55742
732.52        68.64661
732.94        68.77826
733.36        68.92056
733.78        69.02195
734.20          69.076
734.62        69.13613
735.04        68.91264
735.46        69.15146
735.88        69.60417
736.30        69.35432
736.72        68.56599
737.13        68.42738
737.55        68.90696
737.97        69.15881
738.39        69.08752
738.81        68.93388
739.23        68.77374
739.65        68.85966
740.06        69.10147
740.48        69.13527
740.90        68.91243
741.32        68.75063
741.74         68.6174
742.16        68.57422
742.57         68.6147
742.99        68.79372
743.41        69.02814
743.83        69.03783
744.25         68.8514
744.67         68.7823
745.08        68.88088
745.50        68.93488
745.92        68.96618
746.34        69.11997
746.75        69.32428
747.17         69.4003
747.59        69.32747
748.01        69.10084
748.42        68.84924
748.84        68.88672
749.26        69.18541
749.68        69.43659
750.09         69.5333
750.51        69.47411
750.93        69.28663
751.35        69.12231
751.76         69.0216
752.18        68.89796
752.60        68.78099
753.01        68.76611
753.43        68.84671
753.85        68.98337
754.27         69.1606
754.68        69.39341
755.10        69.62154
755.52        69.74346
755.93        69.74693
756.35        69.66106
756.77        69.55283
757.18         69.5659
757.60        69.73407
758.02        69.91813
758.43        70.06335
758.85        70.31236
759.26        70.45821
759.68        70.34673
760.10        70.07304
760.51          69.452
760.93        69.36762
761.34        69.62834
761.76        69.90574
762.18        70.11236
762.59        70.08482
763.01        69.98774
763.42        69.98094
763.84        70.04743
764.26        70.24354
764.67        70.73402
765.09        71.30991
765.50        71.18458
765.92        70.49895
766.33        70.11672
766.75        70.09413
767.16        69.97342
767.58        69.73029
768.00        69.86098
768.41        70.27305
768.83        70.29496
769.24        69.98959
769.66        69.97733
770.07        70.21974
770.49        70.37513
770.90        70.39783
771.32        70.29799
771.73         70.1383
772.15        70.11807
772.56        70.27956
772.97        70.42788
773.39        70.43685
773.80        70.83503
774.22        70.43738
774.63        70.62996
775.05        70.97085
775.46        71.08462
775.88        70.90601
776.29         70.7276
776.70        70.60798
777.12        70.51051
777.53        70.47652
777.95        70.48844
778.36        70.55681
778.77         70.6557
779.19        70.77517
779.60        70.98871
780.02        71.20754
780.43        71.23409
780.84        71.11092
781.26        70.98752
781.67        70.99315
782.09        71.31818
782.50        71.73261
782.91        72.00564
783.33        71.22541
783.74        71.05996
784.15        71.22894
784.57        71.20425
784.98        71.00684
785.39        71.13013
785.81        71.50489
786.22         71.6374
786.63        71.54246
787.04        71.61079
787.46        71.85756
787.87        72.05305
788.28        72.13741
788.70        72.14455
789.11        72.06065
789.52        71.79141
789.93        71.46965
790.35        71.54991
790.76        71.96908
791.17        72.06078
791.58        71.82758
792.00        71.76751
792.41        71.89572
792.82        71.99263
793.23        72.06168
793.65        71.94278
794.06         71.8008
794.47        72.33372
794.88        73.27318
795.29        73.42693
795.71        73.18844
796.12        72.54688
796.53         71.8661
796.94        71.71965
797.35        72.09755
797.76        72.08366
798.18        71.66123
798.59        71.68398
799.00         72.1924
799.41        72.07494
799.82        72.42807
800.23         72.4901
800.64        72.59241
801.06        72.62197
801.47        72.63429
801.88        72.63349
802.29        72.61967
802.70        72.61393
803.11        72.62067
803.52        72.63696
803.93        72.66608
804.34        72.71439
804.75        72.78783
805.17        72.87514
805.58         72.9997
805.99        73.14337
806.40        73.28214
806.81        73.36299
807.22        73.37012
807.63        73.33527
808.04        73.29547
808.45        73.27853
808.86        73.29395
809.27        73.35078
809.68         73.4024
810.09        73.35716
810.50        73.20556
810.91        72.98309
811.32        72.77097
811.73         72.7151
812.14        72.84833
812.55        73.07796
812.96        73.33092
813.37        73.58739
813.78        73.75121
814.19        73.62053
814.60        73.28008
815.01        73.07429
815.42        73.04972
815.83        73.02754
816.24        73.02406
816.65        73.14372
817.05        73.38401
817.46        73.68287
817.87        73.96648
818.28        74.06855
818.69        73.95976
819.10        73.67941
819.51        73.34966
819.92        73.19839
820.33        73.29391
820.74        73.56818
821.14        73.89378
821.55        74.10582
821.96        74.13738
822.37        74.04411
822.78        73.89391
823.19         73.8062
823.60        73.82443
824.00        73.92679
824.41         74.0291
824.82        74.08861
825.23        74.08942
825.64        74.06657
826.04        74.06781
826.45        74.12379
826.86        74.25582
827.27        74.44022
827.68        74.65652
828.08        74.90755
828.49         75.1055
828.90        75.27748
829.31        75.40452
829.72         75.4612
830.12        75.46525
830.53         75.3805
830.94        75.23546
831.35        75.04314
831.75        74.84863
832.16        74.62292
832.57        74.43698
832.97         74.3672
833.38        74.42217
833.79        74.57996
834.20        74.79863
834.60         75.0093
835.01        75.19856
835.42        75.37095
835.82        75.52331
836.23        75.57545
836.64        75.54278
837.04        75.45235
837.45        75.31824
837.86        75.26773
838.26        75.34205
838.67         75.5084
839.08        75.70842
839.48        75.82005
839.89         75.8138
840.29        75.71954
840.70        75.62914
841.11         75.6943
841.51        75.95633
841.92        76.32191
842.33        76.67707
842.73        76.82837
843.14        76.68308
843.54        76.34811
843.95        75.94478
844.35        75.68888
844.76        75.63773
845.17        75.73067
845.57        75.92667
845.98        76.11414
846.38        76.27026
846.79        76.39907
847.19        76.48854
847.60         76.4626
848.00        76.33477
848.41        76.07698
848.81        75.78442
849.22        75.54639
849.62        75.43477
850.03        75.42361
850.43        75.46996
850.84        75.40475
851.24        75.25386
851.65        75.01093
852.05        74.87714
852.46        75.08316
852.86        75.64236
853.27        76.42749
853.67        77.14536
854.07        77.61848
854.48        77.76553
854.88        77.69077
855.29         77.3714
855.69        76.99561
856.10        76.55758
856.50        76.12643
856.90        75.72088
857.31         75.3978
857.71        75.22019
858.12        75.13113
858.52        75.17067
858.92        75.25297
859.33        75.32456
859.73        75.43607
860.13        75.48624
860.54        75.33527
860.94        75.00591
861.34        74.50658
861.75        73.97279
862.15        73.68569
862.55        73.67665
862.96        73.88886
863.36        74.17255
863.76        74.25595
864.17        74.06021
864.57        73.67999
864.97        73.26305
865.38        73.02402
865.78        73.06773
866.18        73.30544
866.58        73.59275
866.99        73.69296
867.39        73.57049
867.79        73.27472
868.19        72.95621
868.60        72.79637
869.00        72.82781
869.40        73.02197
869.80        73.27109
870.21        73.38674
870.61        73.38477
871.01        73.26633
871.41        73.12978
871.81        73.11321
872.22        73.21631
872.62        73.41726
873.02        73.64907
873.42        73.78008
873.82        73.76958
874.22        73.68098
874.63        73.57573
875.03        73.50592
875.43        73.50394
875.83        73.53942
876.23        73.63766
876.63        73.84328
877.03        74.14309
877.44         74.5067
877.84        74.83904
878.24        74.94926
878.64        74.79744
879.04        74.44432
879.44        74.02381
879.84        73.72356
880.24        73.59117
880.64        73.59238
881.04        73.65076
881.44         73.6311
881.84        73.49573
882.24        73.27439
882.65        73.04826
883.05        73.05352
883.45        73.27885
883.85        73.65025
884.25        73.99031
884.65        74.04019
885.05        73.76044
885.45        73.24293
885.85        72.66896
886.25        72.35595
886.65        72.39802
887.05        72.68954
887.45        73.08781
887.85        73.37695
888.25        73.47475
888.65        73.42806
889.04        73.26443
889.44        73.07062
889.84         72.8651
890.24        72.63792
890.64        72.36667
891.04        72.02509
891.44        71.63844
891.84         71.2538
892.24        70.97787
892.64        70.95965
893.04        71.21968
893.44        71.69963
893.83          72.301
894.23        72.79515
894.63        73.13474
895.03        73.35601
895.43        73.48792
895.83        73.59477
896.23        73.69373
896.63        73.74068
897.02        73.74592
897.42        73.77316
897.82        73.81834
898.22         73.9034
898.62        73.95468
899.01        73.85153
899.41        73.56064
899.81        73.12378
900.21        72.71156
900.61        72.60429
901.00        72.84311
901.40        73.36124
901.80        73.91029
902.20         74.1033
902.59        73.87485
902.99        73.34565
903.39        72.76268
903.79        72.52129
904.18        72.71593
904.58        73.19846
904.98        73.80606
905.38        74.32038
905.77        74.64858
906.17        74.85226
906.57        74.92041
906.96        74.84939
907.36        74.63603
907.76        74.31722
908.15        73.93455
908.55        73.49764
908.95        73.08208
909.34        72.68403
909.74        72.47003
910.14        72.61887
910.53        73.13581
910.93        73.92931
911.33        74.73166
911.72        75.08851
912.12        74.87702
912.52        74.26336
912.91        73.49521
913.31        72.95798
913.70        72.74562
914.10        72.74992
914.49        72.91122
914.89        73.05361
915.29        73.13324
915.68        73.20564
916.08         73.3028
916.47        73.45808
916.87        73.68312
917.26        73.90955
917.66        74.10262
918.05        74.19067
918.45        74.15219
918.84        74.04699
919.24        73.87304
919.64        73.71282
920.03        73.61491
920.42        73.55463
920.82        73.56066
921.21        73.66077
921.61        73.83628
922.00        74.09388
922.40        74.37335
922.79         74.6429
923.19         74.8373
923.58        74.99103
923.98        75.05486
924.37        75.02398
924.77        74.89596
925.16         74.6637
925.55        74.41574
925.95        74.29784
926.34        74.34789
926.74        74.52576
927.13        74.75282
927.52         74.7935
927.92        74.62677
928.31        74.30739
928.70        73.99438
929.10        73.92354
929.49        74.13528
929.89        74.50902
930.28        74.94407
930.67        75.14245
931.07        75.00631
931.46        74.66619
931.85        74.18825
932.24        73.71054
932.64        73.29627
933.03         72.9062
933.42        72.61551
933.82        72.53928
934.21        72.69208
934.60        73.06803
934.99        73.50987
935.39        73.71719
935.78        73.65124
936.17        73.36354
936.56        73.05785
936.96        73.08476
937.35        73.56026
937.74        74.31247
938.13        75.09903
938.53        75.58234
938.92        75.69408
939.31        75.53783
939.70        75.26126
940.09        75.11643
940.49        75.16422
940.88        75.35156
941.27        75.58198
941.66        75.72619
942.05        75.74177
942.44        75.67736
942.84        75.58316
943.23        75.46987
943.62        75.37804
944.01        75.30424
944.40        75.21281
944.79        75.05608
945.18        74.82926
945.57        74.53718
945.97        74.25567
946.36         74.1648
946.75        74.24728
947.14        74.46054
947.53        74.62382
947.92        74.43048
948.31        73.83311
948.70        72.95943
949.09         72.0659
949.48        71.53912
949.87        71.48367
950.26        71.80207
950.65        72.32784
951.04        72.78822
951.43        73.09187
951.82        73.29687
952.21        73.48901
952.60        73.81543
952.99        74.28545
953.38        74.79831
953.77        75.20817
954.16        75.32715
954.55        75.11477
954.94        74.63014
955.33        74.00752
955.72        73.46384
956.11        73.07841
956.50        72.83043
956.89        72.62632
957.28        72.28391
957.66        71.80938
958.05        71.27979
958.44         70.8743
958.83        70.84988
959.22        71.23462
959.61        71.87889
960.00        72.61285
960.39        73.19344
960.78        73.50905
961.16        73.62827
961.55        73.44781
961.94        72.92883
962.33        72.13807
962.72        71.18748
963.11        70.26184
963.49         69.6073
963.88         69.3058
964.27        69.31368
964.66        69.67115
965.04         70.4299
965.43        71.42689
965.82        72.60365
966.21         73.7104
966.60        74.42574
966.98        74.67645
967.37        74.45965
967.76        73.90372
968.15         73.2767
968.53         72.7462
968.92        72.32357
969.31        71.98974
969.69        71.65332
970.08        71.30795
970.47        71.02674
970.86        71.03409
971.24        71.68423
971.63        72.89352
972.02         74.4425
972.40        75.95039
972.79        76.80232
973.17        76.97476
973.56        76.55753
973.95        75.81592
974.33        75.20016
974.72        74.87993
975.11        74.75087
975.49        74.69331
975.88        74.52377
976.26        74.20789
976.65        73.83619
977.04        73.50397
977.42        73.32024
977.81        73.26896
978.19        73.27085
978.58        73.40481
978.96        73.75892
979.35        74.26953
979.74        74.91676
980.12        75.48833
980.51        75.42632
980.89        74.73909
981.28        73.47148
981.66        72.04612
982.05        71.27188
982.43        71.39507
982.82         72.2049
983.20        73.27792
983.59        73.75905
983.97        73.53783
984.35        72.77244
984.74        71.90385
985.12        71.69367
985.51        72.30859
985.89        73.48512
986.28         74.7123
986.66        75.35299
987.04        75.25799
987.43        74.61711
987.81        73.83274
988.20        73.50878
988.58        73.86311
988.96        74.66653
989.35        75.50262
989.73        75.83965
990.12        75.47871
990.50        74.54667
990.88        73.34046
991.27        72.57213
991.65        72.55573
992.03        73.10819
992.42        73.72202
992.80        74.00478
993.18        73.75588
993.56        73.07778
993.95        72.29632
994.33        72.02116
994.71        72.54345
995.10        73.47032
995.48        74.35664
995.86        74.66168
996.24        74.34569
996.63        73.51218
997.01        72.52011
997.39        72.06797
997.77        72.44051
998.15        73.39095
998.54         74.4321
998.92        74.91761
999.30        74.72537
999.68        74.11551
1000.06        73.38403
1000.45        73.02638
1000.83         73.2804
1001.21        73.83521
1001.59        74.63835
1001.97        75.65389
1002.35        76.84779
1002.73        78.38234
1003.12        79.71692
1003.50        79.62796
1003.88        77.95817
1004.26        75.15007
1004.64        72.55489
1005.02        71.86243
1005.40        73.24889
1005.78        76.29316
1006.16        79.71547
1006.54          81.173
1006.92        79.95006
1007.30        76.64394
1007.69        72.81406
1008.07          70.998
1008.45         71.9556
1008.83        74.92855
1009.21        78.25683
1009.59        79.54857
1009.97         78.1688
1010.35        74.47394
1010.73        69.94112
1011.11        68.23933
1011.49        70.87564
1011.86        76.70168
1012.24         82.6899
1012.62        85.00824
1013.00        83.05227
1013.38        78.14307
1013.76        72.39278
1014.14        69.29264
1014.52        69.97794
1014.90        73.45721
1015.28        78.47671
1015.66         82.4583
1016.04        84.18769
1016.41        84.49133
1016.79        83.69588
1017.17        82.66637
1017.55        81.76805
1017.93        80.68501
1018.31        79.59142
1018.69        78.85909
1019.06        78.63297
1019.44        79.00626
1019.82        79.86737
1020.20         80.7818
1020.58        81.45238
1020.95         81.7195
1021.33        81.78268
1021.71         81.9079
1022.09        82.11591
1022.46        82.36278
1022.84        82.18414
1023.22        80.59839
1023.60        77.36862
1023.97        72.45079
1024.35        67.28405
1024.73        64.89022
