SpectraSmart Spectrum 2.9.0.0
--------- Device Information -----------
Spectrum Name :  反射率_0
Saving Time :  2024/04/27 23:48:17
Spectro-Module Model Name : SE2030-DUVN
Spectro-Module Serial Number : OS361AC55029948
Wavelength Start : 200
Wavelength End : 1025
Wavelength Unit : Wavelength(nm)
Spectrum Unit : Reflectance(%)
-----------Spectrum Setting ------------
Integration Time : 20ms
Average : 10
Boxcar : 0
Background removal :  enabled
linearity correction :  enabled
SC :  disabled
Intensity correction :  disabled
DWT denoise :  enabled
savitzky-golay :  disabled
FFT :  disabled
Running average :  disabled
Kalman :  disabled
High pass :  disabled
---------------BEGIN--------------------
Wavelength(nm)             Reflectance(%)
200.29               0
200.75        40.69091
201.21        53.32472
201.67        60.55808
202.13        60.17574
202.58        54.61309
203.04        46.20223
203.50        38.39579
203.96        36.27795
204.42        39.68387
204.88        45.66761
205.34        50.83031
205.80        52.19685
206.26        49.04781
206.72        40.21454
207.18        25.57741
207.64        15.98471
208.10        20.38379
208.55        32.43789
209.01         40.2045
209.47        39.65596
209.93        29.65316
210.39      -0.6096178
210.85       -91.34494
211.31       -180.8351
211.77       -33.15653
212.23        50.53171
212.69        77.32408
213.14        83.71532
213.60        80.00437
214.06        67.84205
214.52        43.35719
214.98        18.49536
215.44        15.13222
215.90        23.16979
216.36         33.9773
216.81        44.77157
217.27        55.51453
217.73         68.2819
218.19         79.5239
218.65        82.03548
219.11        73.67491
219.57        54.83199
220.02        31.18964
220.48        19.71854
220.94        25.95567
221.40        42.84407
221.86        60.27645
222.32        68.12231
222.77        66.62725
223.23        60.65077
223.69        53.65446
224.15        48.73597
224.61        46.36236
225.06        44.94801
225.52        44.82413
225.98        46.25407
226.44        48.46282
226.90        50.83853
227.36        52.56567
227.81        52.96063
228.27        52.15313
228.73        50.32122
229.19        47.57859
229.65        44.46964
230.10        41.45007
230.56        38.86671
231.02        36.91901
231.48        35.85683
231.93         35.5745
232.39        36.03922
232.85        37.05326
233.31        38.32783
233.77        39.72023
234.22        41.33529
234.68         42.7697
235.14        43.69136
235.60        44.08758
236.05         43.8446
236.51        43.74589
236.97        45.24966
237.43        48.64441
237.88        53.55902
238.34        58.03799
238.80        60.27465
239.26        59.83813
239.71        56.16703
240.17        49.50889
240.63        46.22808
241.08        51.58931
241.54           60.94
242.00        68.29507
242.46         71.2501
242.91        70.53026
243.37        65.50352
243.83        53.83669
244.28        40.43983
244.74        43.60995
245.20        60.50679
245.66        73.50132
246.11        76.65565
246.57        71.85696
247.03        59.10863
247.48        37.50696
247.94        19.31451
248.40        20.19443
248.85        33.96385
249.31        51.05226
249.77        63.43011
250.22        70.21984
250.68        74.08233
251.14         76.3035
251.59        78.02878
252.05        79.93462
252.51        81.60812
252.96        82.44836
253.42        81.85078
253.88        79.54153
254.33        76.96388
254.79        74.96147
255.25        72.80032
255.70        70.37766
256.16        68.41171
256.62        67.53257
257.07        68.47538
257.53        70.86882
257.99         73.3601
258.44        74.78032
258.90        74.62765
259.35        72.83858
259.81         70.4961
260.27        67.95581
260.72        65.70875
261.18        64.20532
261.63        62.89492
262.09        61.88215
262.55         60.8462
263.00        59.63909
263.46        58.50632
263.91        57.31666
264.37        56.26937
264.83        55.31833
265.28        54.40161
265.74        53.57269
266.19        52.66861
266.65        51.75034
267.11        50.80671
267.56        49.86551
268.02        49.08181
268.47        48.43139
268.93        47.87297
269.38         47.3532
269.84        46.82534
270.30        46.24611
270.75        45.61975
271.21        44.88603
271.66        43.90437
272.12        42.70498
272.57        41.31583
273.03        39.93791
273.48        38.79442
273.94        37.99516
274.39        37.42728
274.85        37.00985
275.31        36.53001
275.76        35.91318
276.22        35.25151
276.67        34.55226
277.13        33.93262
277.58        33.35841
278.04        32.83898
278.49        32.29065
278.95         31.7144
279.40        31.06885
279.86        30.45189
280.31        29.86501
280.77        29.42791
281.22        29.11345
281.68        28.91795
282.13        28.79345
282.59        28.73057
283.04        28.68373
283.50        28.66405
283.95        28.61021
284.41        28.47253
284.86        28.23552
285.32        27.95219
285.77        27.66024
286.22        27.45622
286.68        27.37401
287.13         27.3466
287.59        27.38865
288.04        27.44172
288.50        27.51485
288.95        27.59475
289.41         27.6661
289.86        27.65342
290.32        27.58121
290.77        27.47062
291.22        27.40625
291.68        27.50971
292.13        27.79992
292.59        28.26101
293.04        28.84381
293.50        29.49171
293.95        30.17435
294.40        30.92613
294.86        31.75518
295.31        32.66391
295.77        33.66763
296.22        34.74371
296.68        35.91965
297.13        37.20931
297.58        38.60424
298.04        40.08883
298.49         41.6022
298.95        43.09746
299.40        44.56377
299.85        46.01865
300.31        47.53545
300.76        49.17208
301.21        50.92775
301.67        52.77826
302.12        54.58543
302.58        56.22891
303.03        57.66969
303.48        58.98852
303.94        60.35008
304.39        61.91893
304.84        63.75254
305.30        65.79089
305.75         67.8743
306.20        69.84615
306.66        71.67493
307.11        73.36055
307.57        74.98528
308.02        76.55962
308.47        78.11369
308.93        79.63493
309.38        81.06732
309.83        82.42782
310.29        83.74789
310.74        85.02067
311.19        86.28592
311.65        87.57085
312.10         88.8386
312.55        90.07258
313.00        91.25484
313.46        92.37363
313.91        93.40759
314.36        94.37309
314.82          95.242
315.27        95.96477
315.72        96.54225
316.18        97.00967
316.63        97.42113
317.08        97.90267
317.53        98.48271
317.99        99.11736
318.44         99.7635
318.89        100.3185
319.35        100.7517
319.80        101.1128
320.25        101.4072
320.70        101.6523
321.16        101.8574
321.61        102.0301
322.06        102.2306
322.51        102.5692
322.97        103.0427
323.42        103.6558
323.87        104.2746
324.32        104.6939
324.78        104.8498
325.23        104.8371
325.68        104.7643
326.13        104.8475
326.59        105.1218
327.04        105.5668
327.49        106.0798
327.94        106.5265
328.39        106.8616
328.85        107.1041
329.30        107.3385
329.75        107.5458
330.20        107.7466
330.66        107.9052
331.11        108.1315
331.56        108.4934
332.01        109.0121
332.46        109.6604
332.92        110.3267
333.37        110.9627
333.82        111.4675
334.27        111.8577
334.72        112.1535
335.17        112.4013
335.63         112.604
336.08        112.8149
336.53        113.0206
336.98        113.2438
337.43        113.5014
337.88        113.8031
338.34         114.162
338.79        114.6428
339.24        115.2217
339.69        115.8715
340.14        116.5227
340.59        117.0636
341.05        117.4713
341.50        117.7967
341.95        118.0681
342.40        118.3553
342.85        118.6864
343.30        119.0195
343.75        119.4094
344.20        119.9443
344.66        120.6143
345.11        121.3829
345.56        122.0644
346.01         122.356
346.46        122.2218
346.91        121.7815
347.36        121.2861
347.81        121.1242
348.26        121.3868
348.72        121.9501
349.17        122.6407
349.62        123.2002
350.07        123.5243
350.52        123.6771
350.97        123.6884
351.42        123.6041
351.87        123.4584
352.32        123.2443
352.77        122.9675
353.22        122.6521
353.67        122.3108
354.13        121.9497
354.58        121.6089
355.03        121.4049
355.48        121.3323
355.93        121.3495
356.38        121.2783
356.83        120.8403
357.28        120.0003
357.73        118.8669
358.18        117.6591
358.63        116.7162
359.08        116.1272
359.53        115.7949
359.98        115.5802
360.43        115.2586
360.88        114.7541
361.33        114.1258
361.78        113.4379
362.23        112.7873
362.68        112.1981
363.13        111.6362
363.58        111.0417
364.03        110.2829
364.48        109.4316
364.93        108.4778
365.38        107.5194
365.83        106.6648
366.28        105.9387
366.73        105.2956
367.18        104.6973
367.63        104.0824
368.08        103.4267
368.53        102.7591
368.98         102.051
369.43        101.2545
369.88        100.3762
370.33        99.42963
370.78        98.51346
371.23        97.79223
371.68        97.29411
372.13        96.96688
372.58        96.69155
373.03        96.26754
373.48         95.6457
373.93        94.89735
374.38        94.10178
374.83        93.38351
375.28        92.78367
375.72        92.23644
376.17        91.77372
376.62        91.38023
377.07        91.03168
377.52        90.71635
377.97        90.37511
378.42        89.91302
378.87        89.31904
379.32        88.63752
379.77        87.91286
380.22        87.20908
380.67        86.55463
381.11        85.94051
381.56         85.3998
382.01        84.99638
382.46        84.73724
382.91        84.60262
383.36        84.51022
383.81        84.32554
384.26        84.01286
384.71        83.60374
385.15        83.14018
385.60         82.7562
386.05        82.46231
386.50        82.22045
386.95        82.00023
387.40        81.76006
387.85        81.49078
388.29        81.16903
388.74        80.88685
389.19        80.58028
389.64        80.23969
390.09        79.85047
390.54        79.45338
390.98        79.10003
391.43        78.85346
391.88        78.70171
392.33        78.56155
392.78        78.30446
393.23        77.93549
393.67        77.44492
394.12        77.04726
394.57         76.8827
395.02        77.01624
395.47        76.97587
395.91         76.7645
396.36        76.60626
396.81        76.51315
397.26        76.34637
397.71        76.10046
398.15        75.86783
398.60        75.73831
399.05        75.45434
399.50        75.12487
399.95        75.24706
400.39        75.65872
400.84        75.53306
401.29         74.8765
401.74        74.23479
402.18         73.7919
402.63        73.63135
403.08        73.72186
403.53        73.70934
403.97        73.55921
404.42        73.56428
404.87        73.67886
405.32        73.68724
405.76        73.55411
406.21        73.34574
406.66        73.10362
407.11        72.89031
407.55        72.73112
408.00        72.62182
408.45        72.55465
408.90        72.26143
409.34        71.84972
409.79         71.9035
410.24         72.3075
410.68        72.42152
411.13        72.19614
411.58        71.97954
412.03        71.85059
412.47        71.81116
412.92        71.86197
413.37        72.00258
413.81          72.158
414.26        72.27898
414.71        72.32497
415.15        72.33055
415.60        72.27522
416.05        72.19033
416.49        72.09899
416.94        71.98834
417.39        71.88426
417.83        71.82434
418.28         71.8096
418.73        71.81773
419.17        71.85056
419.62        71.91014
420.07        71.99873
420.51        72.11422
420.96        72.20835
421.41        72.22067
421.85        72.12572
422.30        71.80649
422.74        71.40561
423.19        71.65559
423.64        72.38952
424.08        72.58606
424.53        72.14934
424.98        72.02232
425.42        72.26269
425.87        72.13391
426.31        71.75522
426.76        71.96663
427.21         72.6271
427.65        72.70837
428.10        72.26886
428.54        72.19193
428.99        72.52343
429.44        72.91096
429.88        73.17297
430.33        72.94944
430.77         72.3724
431.22        72.27562
431.66        72.62634
432.11        72.85928
432.56        72.99646
433.00        73.08782
433.45        72.93092
433.89        73.11337
434.34        73.77246
434.78        72.08396
435.23        72.90998
435.67        72.88275
436.12        73.55038
436.57        73.65584
437.01        73.46472
437.46        73.28446
437.90        73.57053
438.35        74.63592
438.79        74.35445
439.24        74.54269
439.68        74.55788
440.13        74.22332
440.57        73.74175
441.02        73.97256
441.46        74.74512
441.91        74.96602
442.35        74.60416
442.80        74.65737
443.24        75.05228
443.69        75.16414
444.13        74.97903
444.58        74.89928
445.02         74.9149
445.47         74.9046
445.91        74.85032
446.36        74.79768
446.80        74.73307
447.24        74.64343
447.69        74.58162
448.13        74.65701
448.58         74.8476
449.02        74.95731
449.47        74.98859
449.91        75.05836
450.36        75.18243
450.80         75.2423
451.25        75.27027
451.69        75.35154
452.13        75.47893
452.58        75.56428
453.02        75.58624
453.47        75.55249
453.91        75.45108
454.36        75.38876
454.80        75.31689
455.24        74.98908
455.69        74.56192
456.13        74.36868
456.58        74.47012
457.02        74.67758
457.46        75.00642
457.91        74.82599
458.35        74.50558
458.79        74.26167
459.24        74.22835
459.68        74.07861
460.13        73.85616
460.57        73.66999
461.01        73.91235
461.46        73.58801
461.90        73.69321
462.34        73.97346
462.79        73.92583
463.23        73.86123
463.68         73.6113
464.12        73.32581
464.56         73.1168
465.01        73.30997
465.45        73.67715
465.89        73.71488
466.34        73.45918
466.78        73.13858
467.22        72.89896
467.67        73.04193
468.11        73.35942
468.55        73.34133
468.99         72.9976
469.44        72.94186
469.88        73.19227
470.32        73.37452
470.77        73.40453
471.21        73.34397
471.65        73.17067
472.10        72.89162
472.54         72.5644
472.98        72.31924
473.42        72.19305
473.87         72.1666
474.31        72.16628
474.75        72.20845
475.20        72.22805
475.64        72.14771
476.08        72.00014
476.52        71.93443
476.97        71.93688
477.41        72.21565
477.85        72.08205
478.29        72.31298
478.74        71.89642
479.18        71.74741
479.62        72.13416
480.06        72.20762
480.50        72.13896
480.95        72.04062
481.39        71.85486
481.83         72.1619
482.27        71.82514
482.72        71.64762
483.16        71.74981
483.60        71.56052
484.04        71.56754
484.48        71.61954
484.93        72.07214
485.37        71.75144
485.81        72.24329
486.25        72.95832
486.69        72.58181
487.14        71.79814
487.58        71.54402
488.02        72.53766
488.46        72.16285
488.90        71.90219
489.34         71.8475
489.79        71.34736
490.23        72.15094
490.67        72.02415
491.11        71.52134
491.55        71.29346
491.99        71.38515
492.43        71.39149
492.88        71.28883
493.32        71.32503
493.76        71.45431
494.20        71.56425
494.64        71.65128
495.08        71.65865
495.52        71.61131
495.96        71.76178
496.41        72.03256
496.85        71.88641
497.29         71.4106
497.73        71.41564
498.17        71.75777
498.61        71.85238
499.05        71.63802
499.49        71.60454
499.93        71.74243
500.37        71.64082
500.82         71.3421
501.26        71.10105
501.70        71.74746
502.14        71.01137
502.58        71.61978
503.02        71.64569
503.46        71.53414
503.90        71.45171
504.34        71.35458
504.78        71.34821
505.22        71.40366
505.66        71.38892
506.10        71.31145
506.54        71.36539
506.98        71.56648
507.42        71.51125
507.86        71.73576
508.30        71.75536
508.74        71.72956
509.18        71.65255
509.62        71.55394
510.06         71.4738
510.50        71.42235
510.94        71.39421
511.38        71.38678
511.82        71.39388
512.26        71.40807
512.70        71.43456
513.14        71.46183
513.58        71.44144
514.02        71.36677
514.46        71.30245
514.90        71.28013
515.34        71.10027
515.78         71.1823
516.22        71.18044
516.66        71.21793
517.10        71.28522
517.54        71.37411
517.98        71.47707
518.42        71.55027
518.86        71.53404
519.30        71.42308
519.74        71.24512
520.18        71.05698
520.62        70.94766
521.06        70.94211
521.50         71.0142
521.93         71.1413
522.37        71.26871
522.81        71.37663
523.25        71.47129
523.69        71.53811
524.13        71.55559
524.57        71.52275
525.01         71.4445
525.45        71.34008
525.89        71.24414
526.32        71.16457
526.76        71.11148
527.20        71.08207
527.64         71.0761
528.08        71.09015
528.52         71.1226
528.96        71.16415
529.40        71.19934
529.83        71.21448
530.27        71.22147
530.71        71.21115
531.15        71.18212
531.59        71.13687
532.03         71.0788
532.46        71.00922
532.90        70.95328
533.34         70.9121
533.78         70.8838
534.22        70.86965
534.66        70.86944
535.09         70.8717
535.53        70.89588
535.97        70.92059
536.41         70.9285
536.85        70.91632
537.28        70.89034
537.72        70.86404
538.16        70.85103
538.60        70.85697
539.04        70.88953
539.47        70.91819
539.91        70.93678
540.35        70.92429
540.79         70.9026
541.22        70.86701
541.66        70.81906
542.10        70.76049
542.54        70.69117
542.97        70.62678
543.41        70.63165
543.85        70.69847
544.29        70.81645
544.72        70.92516
545.16        70.96615
545.60        70.90954
546.04        70.76964
546.47        70.60809
546.91        70.52762
547.35        70.54028
547.79        70.64836
548.22        70.76192
548.66        70.70399
549.10        70.50096
549.53        70.44851
549.97        70.56078
550.41        70.61823
550.84        70.61672
551.28        70.68874
551.72        70.80188
552.15        70.84369
552.59        70.81422
553.03        70.70068
553.46        70.53505
553.90        70.47949
554.34        70.54235
554.77        70.59938
555.21        70.61774
555.65        70.76829
556.08        70.86073
556.52        70.63319
556.96        70.18622
557.39        70.08103
557.83        70.34869
558.27        70.58678
558.70        70.70827
559.14        70.80338
559.57        70.82625
560.01        70.74162
560.45        70.58836
560.88        70.48026
561.32         70.4796
561.75         70.4675
562.19        70.46432
562.63        70.51955
563.06        70.55847
563.50        70.54735
563.93        70.17184
564.37        70.15785
564.80        70.36837
565.24        70.56362
565.68        70.67619
566.11        70.75925
566.55        70.82313
566.98        70.79188
567.42        70.70531
567.85        70.66562
568.29        70.74451
568.72        70.69201
569.16        70.53091
569.60        70.84905
570.03        70.87237
570.47        70.65856
570.90        70.90704
571.34         70.8932
571.77        70.86209
572.21        70.84405
572.64        70.91122
573.08        70.54964
573.51        70.14384
573.95        70.67339
574.38        71.11497
574.82        70.70335
575.25        70.90408
575.69        70.60487
576.12          70.613
576.56        70.73013
576.99        71.02754
577.42         71.2993
577.86        70.83525
578.29        70.81469
578.73        70.60774
579.16        70.68896
579.60        70.82047
580.03        70.87521
580.47         70.6566
580.90        70.94695
581.33        71.01917
581.77        70.78075
582.20        70.81261
582.64        71.04781
583.07        70.64411
583.51        70.50235
583.94        70.56438
584.37        70.69579
584.81        70.87508
585.24        70.85618
585.68        70.74648
586.11          70.743
586.54        70.79288
586.98        70.63453
587.41        70.99516
587.85          70.688
588.28        70.73329
588.71        70.51839
589.15        70.84722
589.58         70.4314
590.01        70.58091
590.45        70.76415
590.88        70.12142
591.31         70.2089
591.75        70.59531
592.18        70.57048
592.61         70.3079
593.05        70.70755
593.48        71.12569
593.91        70.89886
594.35        70.69147
594.78        70.83625
595.21        70.34271
595.65        70.53737
596.08         70.2217
596.51         70.6806
596.94         70.3903
597.38        70.49944
597.81        70.71172
598.24        70.25454
598.68        70.60396
599.11        70.23843
599.54        70.82952
599.97        70.59557
600.41        70.65101
600.84         70.6661
601.27        70.88727
601.70        70.37637
602.14        70.35255
602.57        70.57275
603.00        70.60677
603.43        70.62962
603.87        70.81116
604.30        70.51783
604.73        70.62504
605.16        70.64022
605.60        70.57495
606.03        70.71609
606.46        70.93348
606.89        70.72173
607.32        70.79593
607.76         70.7083
608.19        70.74612
608.62        70.73558
609.05        70.73895
609.48        70.73048
609.92        70.66105
610.35        70.67182
610.78        70.94644
611.21        70.19334
611.64        70.95998
612.07        70.88082
612.50         70.7038
612.94        70.64098
613.37        70.75568
613.80        70.60886
614.23        70.62051
614.66        70.65249
615.09        70.75311
615.52        70.90235
615.96        71.12334
616.39        70.62334
616.82        70.67114
617.25        70.86983
617.68        70.75592
618.11        70.67446
618.54        70.49234
618.97         70.5927
619.40        70.82785
619.84        71.20807
620.27        70.92493
620.70        70.70617
621.13         70.3395
621.56        70.69043
621.99         70.2399
622.42        70.35526
622.85        70.44535
623.28        70.43233
623.71        70.71958
624.14        70.34957
624.57        70.50748
625.00        70.59779
625.43        70.34486
625.86        70.28759
626.29        70.28318
626.72        70.31126
627.15        70.35397
627.58        70.58019
628.01        70.93528
628.44        70.76681
628.87        70.10244
629.30        70.51375
629.73        70.15601
630.16        69.83793
630.59        69.93558
631.02        70.07912
631.45         70.4218
631.88        70.63539
632.31        70.71293
632.74        70.39971
633.17        70.44654
633.60        70.35791
634.03        70.36477
634.46         70.4203
634.89        70.49487
635.32        70.52129
635.75         70.4752
636.18        70.42465
636.61        70.37711
637.04        70.25916
637.47        70.12024
637.89        70.15174
638.32         70.3068
638.75        70.38689
639.18        70.37378
639.61        70.38021
640.04        70.40824
640.47        70.42656
640.90        70.43728
641.33        70.41425
641.76        70.34758
642.18        70.39919
642.61        70.29073
643.04        70.24571
643.47        70.18674
643.90        70.12341
644.33        70.05798
644.76         69.9953
645.18        69.94873
645.61        69.92115
646.04        69.91493
646.47        69.92543
646.90        69.94587
647.33        69.95982
647.75         69.9691
648.18        69.99457
648.61        70.02575
649.04        70.04575
649.47        70.05395
649.89        70.02104
650.32        69.99727
650.75        70.10287
651.18        70.26664
651.61        70.41042
652.03        70.46524
652.46        70.11676
652.89        69.56567
653.32        69.86716
653.74        70.07703
654.17        70.77201
654.60        70.51198
655.03         70.2644
655.46        69.98528
655.88        70.72646
656.31         71.9478
656.74        72.14496
657.16        70.97616
657.59        70.48111
658.02        69.86954
658.45         71.0157
658.87        70.90668
659.30        70.75629
659.73         70.3564
660.15        70.54234
660.58          70.325
661.01        70.51697
661.44        70.70326
661.86        70.67809
662.29        70.46066
662.72        70.36425
663.14        70.44725
663.57        70.55888
664.00          70.659
664.42         70.6825
664.85        70.62092
665.27        70.52441
665.70        70.41341
666.13        70.30154
666.55        70.20954
666.98        70.13536
667.41        70.09396
667.83        70.10416
668.26        70.15512
668.69        70.25042
669.11         70.3728
669.54        70.47384
669.96        70.54154
670.39        70.59772
670.82        70.65218
671.24        70.64171
671.67        70.59837
672.09        70.69315
672.52         70.8831
672.94        70.84809
673.37        70.62405
673.80        70.50621
674.22        70.52792
674.65        70.48405
675.07         70.3988
675.50        70.37489
675.92        70.40647
676.35        70.41245
676.77        70.38306
677.20        70.35567
677.62        70.36098
678.05        70.36024
678.47        70.34358
678.90        70.58977
679.32        70.58429
679.75        70.66847
680.17        70.68644
680.60         70.6685
681.02        70.63277
681.45        70.59635
681.87        70.58425
682.30        70.58168
682.72        70.60043
683.15        70.63779
683.57        70.70668
684.00          70.789
684.42        70.87575
684.85        70.96186
685.27        71.03362
685.70        71.07256
686.12        71.06551
686.54        71.07857
686.97        71.10518
687.39        70.93444
687.82        70.95364
688.24        70.74509
688.66        70.77097
689.09        70.71716
689.51        70.70975
689.94        70.73623
690.36        70.79753
690.78        70.88708
691.21         70.9658
691.63        70.97008
692.06        70.89235
692.48        70.74962
692.90         70.5909
693.33        70.48293
693.75        70.45291
694.17        70.49026
694.60        70.54902
695.02        70.61657
695.44        70.67657
695.87        70.63446
696.29        70.53233
696.71        70.73312
697.14        71.12531
697.56        71.02977
697.98        70.50247
698.41        70.66307
698.83        70.72268
699.25         70.9878
699.68        71.13549
700.10        71.25594
700.52        71.30633
700.94        71.28014
701.37        71.19495
701.79        71.09892
702.21        70.99595
702.64        70.89825
703.06        70.80974
703.48        70.75304
703.90        70.74048
704.33        70.76781
704.75        70.83318
705.17        70.90495
705.59        70.96925
706.01        70.99995
706.44        71.01357
706.86        71.15042
707.28        71.20711
707.70         71.3828
708.12        71.56628
708.55        71.52299
708.97        71.30049
709.39        71.26286
709.81        71.40702
710.23         71.4244
710.66        71.30493
711.08        71.26014
711.50        71.27776
711.92         71.2653
712.34        71.22288
712.76        71.17889
713.19        71.14187
713.61        71.17326
714.03        71.26003
714.45         71.3812
714.87        71.51383
715.29        71.62599
715.71        71.70647
716.13        71.76399
716.56        71.78114
716.98        71.80946
717.40        71.83289
717.82        71.84447
718.24        71.86002
718.66        71.90733
719.08        71.98608
719.50        72.08403
719.92        72.17097
720.34        72.19595
720.76        72.14864
721.19        72.04101
721.61        71.90905
722.03        71.78008
722.45        71.67097
722.87        71.57516
723.29        71.51258
723.71        71.51129
724.13        71.57552
724.55        71.70514
724.97        71.85594
725.39        71.95251
725.81        71.97577
726.23        71.93554
726.65        71.89015
727.07        71.93909
727.49         72.0969
727.91        72.32708
728.33        72.54517
728.75        72.61141
729.17        72.49554
729.59        72.25026
730.01        71.95822
730.43        71.75787
730.85        71.69014
731.27        71.70081
731.69        71.76321
732.10        71.88226
732.52        71.94427
732.94          72.084
733.36        72.24937
733.78        72.26386
734.20        72.09341
734.62        72.30146
735.04        71.81747
735.46        72.04524
735.88        72.52545
736.30         72.5683
736.72        72.19416
737.13        72.07104
737.55        72.21019
737.97        72.29139
738.39        72.28278
738.81        72.15676
739.23        71.98548
739.65        72.13647
740.06        72.49667
740.48        72.64493
740.90        72.52274
741.32        72.44365
741.74        72.35278
742.16        72.33364
742.57        72.38371
742.99        72.49017
743.41        72.61988
743.83         72.7047
744.25        72.72504
744.67        72.68651
745.08        72.64289
745.50        72.64194
745.92        72.71182
746.34        72.83568
746.75        72.94024
747.17        72.92328
747.59        72.77395
748.01        72.47491
748.42        72.15314
748.84        72.12997
749.26        72.38083
749.68        72.56712
750.09        72.61915
750.51        72.65285
750.93        72.66857
751.35         72.6749
751.76        72.67856
752.18         72.6315
752.60         72.5489
753.01        72.49193
753.43        72.49165
753.85        72.54343
754.27        72.63712
754.68        72.88399
755.10        73.26092
755.52        73.09643
755.93        73.37495
756.35        73.33013
756.77        73.27373
757.18        73.25545
757.60        73.30583
758.02        73.24156
758.43        73.09422
758.85        73.26834
759.26        73.64406
759.68        73.57185
760.10        73.07668
760.51        72.60161
760.93        72.74287
761.34        72.30882
761.76        73.04539
762.18        73.46565
762.59        73.92023
763.01        73.93362
763.42        73.62667
763.84        73.47655
764.26        73.56229
764.67         73.6233
765.09        73.63751
765.50        73.55749
765.92        73.41822
766.33        73.28741
766.75        73.17731
767.16        73.18443
767.58         73.2801
768.00        73.54514
768.41        73.87503
768.83        73.95283
769.24        73.80412
769.66        73.56789
770.07        73.35249
770.49        73.59451
770.90        74.15984
771.32        74.17332
771.73        73.69251
772.15        73.54125
772.56          73.761
772.97        73.84243
773.39        73.75187
773.80        73.78342
774.22         73.9102
774.63        74.07192
775.05        74.19031
775.46        74.23784
775.88        74.16914
776.29        74.03835
776.70        73.90469
777.12        73.87463
777.53          73.993
777.95        74.20646
778.36        74.46186
778.77        74.62672
779.19        74.65807
779.60        74.66338
780.02        74.65691
780.43        74.51235
780.84        74.28974
781.26        74.39079
781.67        74.80762
782.09        74.83567
782.50        74.40831
782.91        74.99245
783.33         74.6317
783.74        74.74435
784.15        74.73373
784.57        74.65772
784.98        74.57133
785.39        74.74319
785.81        75.10944
786.22        75.21404
786.63         75.0696
787.04        75.07986
787.46        75.26241
787.87        75.37167
788.28        75.37284
788.70        75.32697
789.11        75.22099
789.52        75.01701
789.93        74.81021
790.35        74.83701
790.76        75.09932
791.17        75.30482
791.58        75.40116
792.00        75.50745
792.41        75.61782
792.82        75.62512
793.23         75.5735
793.65        75.51788
794.06        75.52637
794.47        75.76442
794.88        76.11589
795.29        76.05414
795.71        76.02785
796.12        75.66393
796.53        75.24992
796.94        75.37543
797.35         75.9524
797.76        76.04894
798.18        75.67323
798.59        75.61525
799.00        75.89584
799.41         76.0312
799.82        75.98486
800.23        75.95512
800.64        75.94393
801.06        75.87234
801.47        75.79586
801.88        75.72496
802.29        75.67468
802.70        75.66524
803.11        75.68942
803.52        75.72051
803.93        75.75408
804.34        75.78864
804.75        75.86592
805.17        76.03838
805.58        76.33045
805.99        76.69934
806.40        77.03487
806.81        77.12694
807.22        76.94801
807.63        76.61816
808.04        76.25286
808.45        76.01147
808.86        75.95973
809.27        76.06752
809.68         76.2576
810.09        76.37541
810.50        76.37614
810.91        76.31813
811.32        76.23369
811.73        76.18701
812.14        76.20219
812.55        76.19698
812.96        76.19408
813.37        76.35625
813.78        76.62609
814.19          76.733
814.60        76.66053
815.01        76.60706
815.42        76.57816
815.83        76.43803
816.24        76.23544
816.65        76.14617
817.05        76.21024
817.46        76.34371
817.87        76.50587
818.28        76.57803
818.69        76.53056
819.10        76.40028
819.51        76.24552
819.92        76.16586
820.33        76.20053
820.74         76.3243
821.14        76.48093
821.55        76.62404
821.96        76.71395
822.37         76.7538
822.78         76.7925
823.19        76.91169
823.60         77.1221
824.00        77.42185
824.41        77.64085
824.82        77.60159
825.23        77.27768
825.64        76.73743
826.04        76.20892
826.45        76.02735
826.86        76.28293
827.27        76.86828
827.68        77.55911
828.08        78.00604
828.49        78.02854
828.90         77.7719
829.31        77.37778
829.72        77.09229
830.12        77.02522
830.53        77.04616
830.94         77.1315
831.35        77.21056
831.75        77.27545
832.16        77.32272
832.57        77.35236
832.97        77.31178
833.38         77.1898
833.79        76.99689
834.20        76.80633
834.60        76.73138
835.01        76.80133
835.42        76.97768
835.82        77.19331
836.23        77.24402
836.64        77.11395
837.04        76.88676
837.45        76.61179
837.86        76.47051
838.26        76.52183
838.67        76.69296
839.08        76.94717
839.48        77.20397
839.89        77.42198
840.29        77.61987
840.70         77.7778
841.11         77.8698
841.51        77.91064
841.92        77.85573
842.33        77.75288
842.73        77.68538
843.14        77.62725
843.54        77.60199
843.95        77.56893
844.35        77.47694
844.76        77.30922
845.17        77.09146
845.57         76.8925
845.98        76.77985
846.38        76.79761
846.79        76.90102
847.19        77.04023
847.60        77.07546
848.00        77.00044
848.41        76.81989
848.81         76.6417
849.22        76.56834
849.62        76.65981
850.03        76.84261
850.43         77.0605
850.84        77.14096
851.24        77.09353
851.65         76.9098
852.05        76.70988
852.46        76.59256
852.86         76.5957
853.27        76.69424
853.67        76.77124
854.07         76.8468
854.48        76.86398
854.88        76.87881
855.29        76.77923
855.69        76.57258
856.10        76.18209
856.50        75.71384
856.90        75.25648
857.31        74.98528
857.71        74.99135
858.12         75.1729
858.52        75.48654
858.92         75.7228
859.33        75.80167
859.73        75.81342
860.13        75.75836
860.54        75.67239
860.94        75.61227
861.34         75.5084
861.75        75.37514
862.15        75.30882
862.55        75.29331
862.96        75.34405
863.36        75.35877
863.76        75.14262
864.17        74.67334
864.57        74.03715
864.97        73.45131
865.38        73.24119
865.78        73.51898
866.18        74.15901
866.58        74.91227
866.99        75.33625
867.39        75.31991
867.79        74.96474
868.19        74.45928
868.60        74.05257
869.00        73.81429
869.40        73.68995
869.80        73.65623
870.21        73.68589
870.61        73.82554
871.01        74.03336
871.41         74.2524
871.81        74.38853
872.22        74.39319
872.62        74.30133
873.02        74.16309
873.42        74.07734
873.82        74.08471
874.22        74.17883
874.63        74.31519
875.03        74.39614
875.43        74.41219
875.83        74.36943
876.23        74.36407
876.63        74.55153
877.03        74.94488
877.44        75.48285
877.84        75.95866
878.24        76.00544
878.64        75.56429
879.04        74.76996
879.44        73.93398
879.84        73.48913
880.24          73.519
880.64        73.91415
881.04         74.4274
881.44        74.62614
881.84        74.39144
882.24        73.84703
882.65        73.23465
883.05        73.06355
883.45        73.40083
883.85        74.07255
884.25        74.79449
884.65         75.1596
885.05        75.07839
885.45        74.68907
885.85        74.18764
886.25        73.90591
886.65        73.95376
887.05        74.22316
887.45        74.58139
887.85        74.83569
888.25        74.91712
888.65        74.87194
889.04         74.7562
889.44        74.69783
889.84        74.70247
890.24        74.72361
890.64        74.66705
891.04         74.3933
891.44        73.90742
891.84         73.3111
892.24        72.74308
892.64        72.40607
893.04        72.35964
893.44        72.53217
893.83        72.91467
894.23        73.41972
894.63        74.00352
895.03        74.65278
895.43        75.22346
895.83        75.48658
896.23        75.41008
896.63        75.07187
897.02        74.63853
897.42        74.41322
897.82        74.45843
898.22        74.70265
898.62        75.06947
899.01        75.43268
899.41        75.70486
899.81        75.91916
900.21        76.06519
900.61        76.12493
901.00        76.08842
901.40        75.97477
901.80        75.77322
902.20        75.48809
902.59        75.16133
902.99        74.80997
903.39        74.53719
903.79        74.48836
904.18        74.67297
904.58        75.02673
904.98        75.44491
905.38        75.78164
905.77        75.97746
906.17        76.07601
906.57        76.04725
906.96        75.87451
907.36        75.55247
907.76        75.11128
908.15        74.67253
908.55        74.36839
908.95        74.27496
909.34        74.34369
909.74        74.53777
910.14        74.71976
910.53        74.85102
910.93        74.95193
911.33        75.01818
911.72        75.04559
912.12        75.02414
912.52        74.95622
912.91        74.87477
913.31        74.87413
913.70        74.96239
914.10        75.10815
914.49        75.29068
914.89         75.3934
915.29        75.40714
915.68        75.36656
916.08        75.30195
916.47        75.25797
916.87        75.26904
917.26        75.29366
917.66        75.36472
918.05        75.49903
918.45        75.67757
918.84        75.91629
919.24        76.11398
919.64        76.18884
920.03        76.13875
920.42        75.98248
920.82        75.79703
921.21        75.69479
921.61        75.68991
922.00        75.76099
922.40        75.87473
922.79        76.05186
923.19        76.23267
923.58        76.44884
923.98         76.5778
924.37        76.49086
924.77        76.15954
925.16        75.60456
925.55         74.9994
925.95        74.64521
926.34        74.63067
926.74        74.88092
927.13        75.23508
927.52        75.32188
927.92        75.09238
928.31        74.65092
928.70         74.2414
929.10        74.22733
929.49        74.67921
929.89        75.43175
930.28        76.29972
930.67        76.83945
931.07          76.886
931.46         76.5812
931.85        76.05746
932.24         75.5644
932.64        75.19572
933.03        74.89925
933.42        74.65092
933.82        74.40446
934.21        74.16729
934.60        74.00197
934.99        73.95805
935.39        74.07085
935.78        74.36971
936.17        74.79002
936.56        75.28871
936.96        75.78636
937.35         76.2654
937.74        76.68391
938.13        76.94999
938.53        76.95452
938.92        76.69485
939.31        76.18244
939.70        75.58665
940.09        75.20927
940.49        75.12354
940.88        75.32571
941.27         75.5901
941.66        75.55378
942.05        75.16013
942.44        74.52987
942.84         73.9679
943.23        73.91595
943.62        74.49419
944.01        75.53779
944.40        76.70842
944.79        77.40995
945.18        77.44083
945.57        76.96533
945.97        76.21501
946.36         75.6176
946.75         75.2707
947.14        75.06654
947.53        74.93316
947.92        74.75084
948.31        74.50143
948.70        74.28748
949.09        74.15556
949.48        74.14414
949.87        74.25944
950.26        74.44553
950.65        74.71035
951.04        75.09085
951.43         75.5537
951.82        76.05672
952.21        76.45393
952.60        76.50212
952.99        76.16298
953.38        75.54975
953.77        74.82935
954.16        74.24982
954.55        73.89908
954.94        73.71531
955.33        73.70818
955.72        73.88976
956.11        74.21008
956.50        74.63408
956.89        75.01813
957.28        75.09679
957.66        74.83513
958.05        74.32662
958.44        73.65182
958.83        72.94856
959.22        72.31071
959.61        71.68975
960.00        71.33241
960.39        71.61758
960.78        72.55742
961.16        74.06979
961.55         75.5537
961.94        76.06223
962.33        75.36087
962.72        73.75539
963.11        71.89653
963.49        70.75862
963.88        70.58811
964.27        71.13557
964.66          72.022
965.04        72.57407
965.43        72.48872
965.82        72.04135
966.21        71.54121
966.60        71.44872
966.98        71.87482
967.37        72.59431
967.76        73.36787
968.15        73.75141
968.53        73.61639
968.92        73.15182
969.31        72.54169
969.69        72.03075
970.08        71.71928
970.47        71.53793
970.86         71.6484
971.24        72.33239
971.63        73.48392
972.02        74.96072
972.40        76.39377
972.79        77.15063
973.17        77.21584
973.56        76.67606
973.95        75.83823
974.33        75.23679
974.72        75.04926
975.11        75.13013
975.49        75.28822
975.88        75.21893
976.26        74.85067
976.65        74.31457
977.04        73.72383
977.42        73.22384
977.81        72.83518
978.19        72.47441
978.58         72.3189
978.96        72.62065
979.35        73.35056
979.74        74.45374
980.12        75.56197
980.51        75.85589
980.89        75.28197
981.28        73.94782
981.66        72.39418
982.05        71.66512
982.43        72.05055
982.82        73.19799
983.20        74.60463
983.59         75.3092
983.97        75.15868
984.35        74.39597
984.74        73.32629
985.12        72.48444
985.51        72.08894
985.89        72.00642
986.28        72.15575
986.66        72.51223
987.04        72.98732
987.43        73.56233
987.81        74.19707
988.20        74.69008
988.58        75.01218
988.96        75.18584
989.35        75.08058
989.73        74.62557
990.12        73.77251
990.50        72.44711
990.88         71.0411
991.27        70.46733
991.65        71.01275
992.03        72.46835
992.42        73.85734
992.80        74.17649
993.18        73.15359
993.56        70.94057
993.95        68.37588
994.33        67.46965
994.71        68.99759
995.10        71.87946
995.48        74.75671
995.86        76.22603
996.24        76.18742
996.63        75.00266
997.01        73.20573
997.39        71.92059
997.77         71.7005
998.15        72.19212
998.54        72.84429
998.92        72.90054
999.30         72.1778
999.68        70.99821
1000.06        69.74942
1000.45        69.04643
1000.83        69.17666
1001.21        69.82865
1001.59        70.73038
1001.97        71.52026
1002.35        72.09763
1002.73        72.64106
1003.12        73.03694
1003.50        72.91917
1003.88        72.30186
1004.26         71.2239
1004.64         70.2646
1005.02        70.17229
1005.40        71.02244
1005.78        72.72439
1006.16        74.50142
1006.54        74.91884
1006.92         73.6413
1007.30          71.058
1007.69         68.4628
1008.07        67.92773
1008.45        69.92311
1008.83        73.62698
1009.21        77.53222
1009.59        79.52525
1009.97        79.01797
1010.35        76.38993
1010.73        72.33027
1011.11        68.89137
1011.49        67.35941
1011.86        67.47004
1012.24         68.3378
1012.62        68.82117
1013.00        68.62291
1013.38        68.20632
1013.76        68.04554
1014.14        68.82574
1014.52        70.71494
1014.90        73.38531
1015.28        76.23603
1015.66        78.16282
1016.04        78.66125
1016.41        78.03536
1016.79        76.63927
1017.17         75.4121
1017.55        74.64956
1017.93        74.24136
1018.31        73.93004
1018.69        73.24987
1019.06        72.13243
1019.44        70.70232
1019.82         69.5228
1020.20        69.69395
1020.58        71.33623
1020.95        73.74808
1021.33        75.91027
1021.71        76.52715
1022.09        75.41283
1022.46        72.99434
1022.84        69.72056
1023.22        66.25087
1023.60        62.94392
1023.97        59.40432
1024.35        56.47563
1024.73        55.40538
