SpectraSmart Spectrum 2.9.0.0
--------- Device Information -----------
Spectrum Name :  反射率_0
Saving Time :  2024/04/28 00:05:31
Spectro-Module Model Name : SE2030-DUVN
Spectro-Module Serial Number : OS361AC55029948
Wavelength Start : 200
Wavelength End : 1025
Wavelength Unit : Wavelength(nm)
Spectrum Unit : Reflectance(%)
-----------Spectrum Setting ------------
Integration Time : 20ms
Average : 10
Boxcar : 0
Background removal :  enabled
linearity correction :  enabled
SC :  disabled
Intensity correction :  disabled
DWT denoise :  enabled
savitzky-golay :  disabled
FFT :  disabled
Running average :  disabled
Kalman :  disabled
High pass :  disabled
---------------BEGIN--------------------
Wavelength(nm)             Reflectance(%)
200.29               0
200.75        82.56753
201.21        96.85234
201.67        102.5729
202.13        98.79045
202.58        89.00608
203.04        75.99586
203.50        64.79551
203.96        63.39438
204.42        71.00386
204.88        82.26134
205.34        92.95773
205.80        100.1787
206.26        104.1224
206.72        106.3204
207.18        105.2527
207.64        97.68019
208.10         87.3368
208.55        79.75528
209.01        74.79853
209.47        70.28491
209.93        63.74384
210.39          49.884
210.85        14.18288
211.31       -8.223263
211.77         58.5161
212.23        90.00924
212.69        98.89631
213.14        100.9563
213.60        99.31828
214.06        94.11553
214.52        83.16514
214.98        70.64008
215.44        66.71152
215.90        68.64729
216.36        72.33823
216.81        75.79342
217.27        78.83818
217.73        82.25324
218.19        84.96789
218.65        84.67731
219.11        80.75556
219.57        73.47628
220.02        64.15768
220.48        58.18588
220.94        57.75047
221.40        61.09399
221.86        66.41684
222.32        71.81027
222.77        76.43122
223.23        80.38377
223.69        83.04795
224.15        83.70106
224.61        82.47811
225.06        79.52799
225.52        75.67841
225.98        72.59911
226.44        71.08629
226.90        70.52386
227.36        70.35149
227.81        69.92597
228.27        69.14256
228.73        68.08881
229.19        66.55811
229.65        64.30895
230.10        61.48774
230.56        58.61578
231.02        56.14956
231.48        54.76776
231.93        54.42101
232.39        54.88383
232.85        55.88569
233.31        57.09785
233.77        58.33282
234.22        59.73309
234.68        60.81981
235.14        61.02488
235.60        60.31829
236.05        58.66816
236.51        57.02142
236.97        57.46329
237.43        60.62106
237.88        65.96864
238.34        71.37968
238.80        74.87395
239.26        76.12706
239.71        75.27672
240.17        72.52148
240.63        71.74579
241.08        75.67574
241.54        81.06554
242.00        85.12464
242.46        87.14045
242.91        87.82423
243.37        87.28191
243.83        85.51788
244.28        84.62328
244.74         87.7132
245.20        92.64162
245.66        95.03049
246.11         93.8386
246.57        89.32957
247.03        80.47049
247.48           66.93
247.94        57.07108
248.40        60.50724
248.85        72.48931
249.31        85.80331
249.77        94.40385
250.22        98.19697
250.68        99.63231
251.14        100.0387
251.59        100.6699
252.05        102.0347
252.51        103.6457
252.96        105.1078
253.42        105.6953
253.88        104.5594
254.33        102.5125
254.79        100.5191
255.25        97.82656
255.70        94.45766
256.16        91.53634
256.62        89.56366
257.07        89.24483
257.53        90.51324
257.99         91.9422
258.44        92.61903
258.90        92.43349
259.35        91.00838
259.81        89.28593
260.27        87.13467
260.72        84.50092
261.18        82.06387
261.63        79.56686
262.09        77.56338
262.55        76.09111
263.00        74.96577
263.46        74.24141
263.91        73.59503
264.37        73.07151
264.83        72.51263
265.28          71.878
265.74        71.19273
266.19        70.16415
266.65        68.89094
267.11        67.36994
267.56         65.7549
268.02        64.42973
268.47        63.42075
268.93        62.66064
269.38        61.96799
269.84        61.09549
270.30         59.9705
270.75        58.67728
271.21        57.32739
271.66        56.02287
272.12        54.82816
272.57        53.65208
273.03        52.52447
273.48        51.39322
273.94        50.32641
274.39        49.31899
274.85        48.40289
275.31        47.49379
275.76        46.55923
276.22        45.64985
276.67         44.8007
277.13        44.20705
277.58        43.79639
278.04          43.556
278.49        43.24075
278.95         42.6495
279.40         41.6967
279.86        40.55544
280.31        39.37841
280.77        38.53931
281.22         38.0499
281.68        37.85858
282.13        37.75377
282.59         37.5203
283.04        37.08207
283.50        36.54411
283.95         36.0184
284.41        35.73418
284.86        35.69732
285.32        35.83785
285.77         35.9864
286.22        35.96345
286.68        35.75351
287.13        35.39224
287.59         35.0131
288.04        34.72461
288.50        34.59712
288.95        34.54889
289.41        34.56845
289.86        34.57682
290.32        34.58539
290.77        34.62326
291.22        34.70361
291.68        34.82592
292.13        34.99878
292.59        35.25507
293.04        35.65407
293.50        36.32068
293.95        37.25716
294.40        38.43047
294.86        39.75747
295.31        41.09562
295.77        42.40987
296.22        43.71028
296.68        45.03598
297.13        46.42257
297.58        47.87292
298.04        49.35778
298.49        50.84056
298.95        52.32755
299.40         53.8218
299.85        55.35802
300.31        56.97569
300.76        58.66457
301.21        60.42126
301.67         62.2471
302.12        64.08193
302.58        65.93808
303.03        67.77399
303.48        69.61641
303.94        71.51112
304.39        73.43204
304.84        75.41119
305.30        77.46346
305.75        79.52592
306.20         81.6049
306.66         83.7129
307.11        85.78891
307.57        87.87059
308.02        89.88416
308.47        91.82651
308.93        93.70566
309.38        95.45634
309.83        97.10027
310.29        98.67342
310.74        100.1578
311.19        101.5928
311.65        103.0084
312.10        104.3689
312.55        105.6637
313.00        106.8968
313.46        108.0861
313.91        109.2175
314.36        110.3125
314.82        111.3195
315.27        112.1483
315.72        112.7909
316.18          113.29
316.63        113.7426
317.08        114.3458
317.53        115.1393
317.99        116.0605
318.44        116.9892
318.89        117.6982
319.35         118.131
319.80        118.3695
320.25        118.5247
320.70        118.7869
321.16        119.1971
321.61        119.7097
322.06        120.2562
322.51        120.7397
322.97        121.1045
323.42        121.4283
323.87        121.6947
324.32        121.8959
324.78        122.0273
325.23        122.1353
325.68        122.2484
326.13        122.4527
326.59        122.7388
327.04        123.1362
327.49        123.5851
327.94        124.0228
328.39        124.4237
328.85        124.7661
329.30        125.1145
329.75         125.392
330.20        125.6001
330.66        125.7187
331.11         125.886
331.56        126.1943
332.01        126.6823
332.46        127.3235
332.92        127.9985
333.37        128.6725
333.82        129.2361
334.27        129.7029
334.72        130.1103
335.17        130.5307
335.63        130.9572
336.08        131.4346
336.53        131.8822
336.98        132.2248
337.43        132.4555
337.88        132.6075
338.34        132.7657
338.79        133.1266
339.24        133.7038
339.69        134.4488
340.14        135.2287
340.59        135.8235
341.05        136.1839
341.50        136.3907
341.95          136.55
342.40        136.8544
342.85        137.3486
343.30         137.943
343.75        138.5841
344.20        139.1876
344.66        139.7163
345.11        140.2089
345.56        140.5878
346.01        140.7215
346.46          140.62
346.91        140.3318
347.36        140.0728
347.81          140.18
348.26        140.7013
348.72        141.5205
349.17        142.3795
349.62         142.889
350.07        142.9335
350.52        142.6222
350.97        142.1128
351.42        141.6629
351.87        141.3674
352.32        141.1685
352.77         140.991
353.22        140.7228
353.67        140.3319
354.13        139.8621
354.58        139.3838
355.03        139.0637
355.48        138.9081
355.93        138.8474
356.38        138.6761
356.83        138.0835
357.28        137.0292
357.73          135.64
358.18        134.1685
358.63        132.9987
359.08        132.2363
359.53         131.783
359.98        131.4697
360.43        131.0229
360.88        130.3553
361.33        129.5291
361.78         128.663
362.23        127.9368
362.68        127.3749
363.13        126.9153
363.58        126.3941
364.03        125.4484
364.48        124.2382
364.93        122.7327
365.38        121.1765
365.83        119.8501
366.28        118.8368
366.73         118.048
367.18        117.4063
367.63        116.7838
368.08        116.1259
368.53        115.4803
368.98        114.8094
369.43        114.0472
369.88        113.1899
370.33        112.2354
370.78        111.2819
371.23        110.5059
371.68        109.9382
372.13        109.5255
372.58        109.1393
373.03        108.5667
373.48        107.7557
373.93        106.7761
374.38        105.7366
374.83        104.8047
375.28        104.0291
375.72         103.343
376.17        102.7245
376.62        102.0635
377.07        101.3384
377.52         100.588
377.97        99.86205
378.42        99.23253
378.87        98.71479
379.32        98.27982
379.77        97.87616
380.22        97.42674
380.67        96.90742
381.11        96.34031
381.56        95.76006
382.01        95.23904
382.46        94.80623
382.91         94.4499
383.36        94.12682
383.81        93.76696
384.26        93.35275
384.71        92.90069
385.15        92.45158
385.60        92.13234
386.05        91.93181
386.50        91.80399
386.95        91.65745
387.40         91.3594
387.85         90.8952
388.29        90.27454
388.74        89.67545
389.19        89.13569
389.64        88.66374
390.09        88.20647
390.54        87.77704
390.98        87.38011
391.43        87.07676
391.88        86.87602
392.33        86.66458
392.78         86.3517
393.23        85.96067
393.67        85.28835
394.12        84.60694
394.57        84.82338
395.02        85.07362
395.47        85.13239
395.91        84.74471
396.36        84.54401
396.81         84.5242
397.26        84.29803
397.71        83.92332
398.15        83.56335
398.60        83.30463
399.05        83.17553
399.50        83.12521
399.95        82.70085
400.39        82.04116
400.84        82.06548
401.29        82.62916
401.74         82.3517
402.18        81.35818
402.63        81.04993
403.08        81.43017
403.53        81.43984
403.97        81.04419
404.42        80.83655
404.87        80.79636
405.32        80.68465
405.76          80.487
406.21         80.2159
406.66        79.91919
407.11        79.82061
407.55        79.88962
408.00        79.75356
408.45        79.43856
408.90        79.14947
409.34        78.94518
409.79        78.92915
410.24         79.0266
410.68         78.9989
411.13        78.81923
411.58        78.63866
412.03        78.49378
412.47        78.39619
412.92        78.33762
413.37        78.33245
413.81        78.34958
414.26        78.40334
414.71         78.4649
415.15        78.55178
415.60        78.61485
416.05        78.63973
416.49        78.62417
416.94         78.5556
417.39        78.45938
417.83        78.37489
418.28        78.30389
418.73        78.22346
419.17        78.12835
419.62        78.01267
420.07         77.8921
420.51        77.78444
420.96         77.6858
421.41        77.58752
421.85        77.46975
422.30        77.21469
422.74        76.92216
423.19        77.23495
423.64        77.98506
424.08        78.24873
424.53        77.90238
424.98        77.77762
425.42        77.92139
425.87        77.65417
426.31        77.14243
426.76        77.23111
427.21        77.81579
427.65          77.969
428.10         77.6608
428.54        77.59055
428.99        77.79324
429.44        77.89449
429.88        77.84896
430.33        77.70804
430.77        77.47267
431.22        77.49604
431.66        77.73087
432.11        77.74941
432.56        77.63358
433.00        77.83499
433.45        78.08968
433.89        78.15084
434.34          78.111
434.78        77.13887
435.23        76.79288
435.67        77.76382
436.12         78.3516
436.57        78.49204
437.01        77.82426
437.46        77.45246
437.90        77.92459
438.35        78.71513
438.79        78.52017
439.24        78.61617
439.68        78.62992
440.13        78.53856
440.57        78.42664
441.02        78.68961
441.46         79.1556
441.91        79.12447
442.35        78.64841
442.80        78.57777
443.24        79.03512
443.69        79.19731
444.13        79.05759
444.58        79.22319
445.02         79.2489
445.47        79.33511
445.91        79.33499
446.36        79.34791
446.80         79.3622
447.24        79.30077
447.69        79.23707
448.13        79.41218
448.58        79.75654
449.02        79.82993
449.47        79.66743
449.91        79.64153
450.36        79.78129
450.80        79.81976
451.25        79.78279
451.69        79.80766
452.13        79.88375
452.58        79.90829
453.02        79.84304
453.47        79.68427
453.91        79.42906
454.36        79.16247
454.80        78.87057
455.24        78.49015
455.69        78.15419
456.13        77.88406
456.58        77.77508
457.02         78.1442
457.46        78.63085
457.91        78.52458
458.35         77.8516
458.79        77.51669
459.24        77.54446
459.68         77.4538
460.13        77.29806
460.57        77.03035
461.01        77.01044
461.46        77.22831
461.90        77.02119
462.34        77.28138
462.79        76.94247
463.23        76.93581
463.68        76.99754
464.12        76.90295
464.56        76.68197
465.01        76.77547
465.45        77.01894
465.89        76.82461
466.34        76.22608
466.78        76.21518
467.22        75.71175
467.67        75.67214
468.11        75.88307
468.55        75.89871
468.99        75.72408
469.44        75.70303
469.88        75.83193
470.32        75.87393
470.77        75.79348
471.21        75.67493
471.65        75.51625
472.10         75.3175
472.54        75.09612
472.98        74.93277
473.42        74.84849
473.87        74.80674
474.31        74.77199
474.75        74.87833
475.20        75.04088
475.64         75.0463
476.08        74.91759
476.52        74.82621
476.97         74.7551
477.41        75.00441
477.85        74.81734
478.29        74.66917
478.74        75.06535
479.18        74.39548
479.62         74.7269
480.06        74.64995
480.50         74.7547
480.95        74.71108
481.39        74.38441
481.83        75.03465
482.27         74.4777
482.72        74.29375
483.16        74.32102
483.60        74.24933
484.04        74.14124
484.48        74.18636
484.93         74.6718
485.37        74.42091
485.81        74.71595
486.25        75.79263
486.69        75.56343
487.14        74.32378
487.58        73.95098
488.02        74.86926
488.46        74.60059
488.90        74.21204
489.34        74.27779
489.79        73.37103
490.23         74.0343
490.67        73.94254
491.11        73.76557
491.55        73.73535
491.99        73.83927
492.43        73.88166
492.88        73.82047
493.32        73.76798
493.76        73.71967
494.20        73.72163
494.64        73.80119
495.08        73.82496
495.52        73.81021
495.96        74.07402
496.41        74.46742
496.85        74.26815
497.29        73.63519
497.73         73.4476
498.17        73.89884
498.61        74.08509
499.05         73.9529
499.49        73.74325
499.93        73.56657
500.37        73.42911
500.82        73.32708
501.26        73.52699
501.70        74.07273
502.14        73.30541
502.58        73.86339
503.02        73.88185
503.46        73.82774
503.90        73.78828
504.34        73.69038
504.78        73.63043
505.22        73.55927
505.66        73.38729
506.10        73.19873
506.54        73.15778
506.98         73.2338
507.42        73.71084
507.86         73.6806
508.30        73.82848
508.74        73.87652
509.18        73.81163
509.62        73.66573
510.06        73.54066
510.50        73.47195
510.94        73.42502
511.38        73.39924
511.82        73.39134
512.26        73.39591
512.70        73.42212
513.14        73.45919
513.58        73.47671
514.02        73.46852
514.46        73.45138
514.90        73.43789
515.34        73.39679
515.78        73.42902
516.22        73.44701
516.66         73.4736
517.10          73.496
517.54        73.51014
517.98        73.51962
518.42         73.5183
518.86        73.49843
519.30        73.46149
519.74        73.41117
520.18        73.36352
520.62        73.34288
521.06        73.35543
521.50        73.39614
521.93        73.45177
522.37        73.48516
522.81        73.49186
523.25        73.47524
523.69        73.45019
524.13        73.44113
524.57        73.45191
525.01        73.47424
525.45        73.48401
525.89         73.4445
526.32        73.34438
526.76        73.21085
527.20        73.07398
527.64        72.98907
528.08        72.96892
528.52        72.99759
528.96        73.04311
529.40        73.05351
529.83        73.01115
530.27        72.94897
530.71        72.88397
531.15        72.85313
531.59         72.8653
532.03        72.90303
532.46        72.95006
532.90        73.00484
533.34        73.05373
533.78        73.10071
534.22         73.1307
534.66        73.12118
535.09        73.06172
535.53        72.97762
535.97        72.88674
536.41        72.83583
536.85        72.83459
537.28        72.87514
537.72        72.92433
538.16        72.91463
538.60         72.8373
539.04        72.73686
539.47        72.63184
539.91        72.58171
540.35        72.59106
540.79        72.67645
541.22         72.7806
541.66        72.86568
542.10        72.78847
542.54        72.69338
542.97        72.58651
543.41        72.56792
543.85        72.63877
544.29        72.77333
544.72        72.90501
545.16        72.95542
545.60        72.88877
546.04        72.76083
546.47         72.6203
546.91        72.47668
547.35        72.37989
547.79        72.49139
548.22         72.7068
548.66        72.71409
549.10        72.51794
549.53        72.44878
549.97          72.534
550.41        72.57551
550.84        72.57104
551.28        72.65145
551.72        72.77431
552.15        72.77378
552.59        72.64814
553.03        72.56342
553.46        72.32851
553.90        72.28299
554.34        72.36298
554.77        72.52086
555.21        72.67171
555.65        72.77809
556.08        72.70574
556.52        72.47017
556.96        72.15684
557.39        72.15965
557.83        72.44867
558.27        72.54719
558.70        72.43433
559.14        72.40297
559.57        72.43309
560.01        72.45305
560.45        72.42001
560.88        72.23724
561.32        72.05318
561.75        72.03367
562.19        72.21084
562.63        72.59174
563.06        72.98347
563.50        72.86613
563.93        72.24965
564.37        72.07931
564.80         72.3194
565.24         72.4759
565.68        72.48696
566.11        72.44159
566.55        72.53425
566.98        72.48129
567.42        72.38884
567.85        72.40633
568.29        72.55803
568.72        72.49486
569.16         72.2657
569.60        72.34438
570.03         72.7757
570.47        72.52089
570.90        72.42622
571.34        73.22391
571.77        72.94991
572.21        72.54839
572.64        72.88609
573.08        72.47667
573.51        72.58582
573.95         72.6232
574.38        72.79113
574.82        72.79035
575.25        72.75356
575.69        72.56043
576.12        72.75343
576.56        72.53522
576.99        72.67215
577.42        72.93052
577.86        72.73035
578.29        72.74954
578.73        73.17886
579.16        73.19392
579.60        72.89303
580.03        72.64304
580.47        72.39461
580.90        73.11301
581.33        72.93507
581.77        73.05363
582.20        73.06223
582.64        73.10826
583.07        72.72689
583.51        72.62179
583.94        72.88641
584.37        72.95216
584.81        72.83928
585.24        72.80952
585.68        72.90454
586.11        72.97394
586.54        72.80266
586.98        72.66779
587.41        73.06523
587.85        72.90845
588.28         72.8059
588.71        72.28228
589.15        72.74562
589.58        72.62376
590.01         72.6022
590.45        72.90391
590.88        72.19887
591.31        72.19672
591.75        72.38655
592.18         72.5742
592.61        72.66477
593.05        72.47541
593.48        73.21198
593.91        72.61017
594.35        72.57279
594.78        72.82065
595.21        72.52367
595.65        72.51883
596.08        72.40774
596.51        72.59083
596.94        72.48249
597.38        72.50665
597.81         72.5951
598.24        72.39165
598.68        72.17092
599.11        72.46397
599.54        73.02982
599.97        72.58315
600.41        72.71518
600.84        72.61236
601.27        72.78033
601.70        72.40159
602.14        72.26118
602.57         72.4154
603.00        72.32145
603.43        72.39863
603.87        72.47828
604.30        72.57446
604.73        72.18529
605.16        72.29333
605.60        72.55338
606.03        72.72948
606.46        72.75357
606.89         72.5936
607.32        72.46494
607.76        73.10938
608.19        72.50578
608.62         72.5281
609.05        72.63059
609.48        72.46042
609.92        71.96503
610.35        72.67475
610.78        72.66911
611.21        72.31936
611.64        72.86187
612.07        72.72279
612.50        72.47883
612.94        72.35955
613.37        72.47212
613.80        72.23594
614.23        72.50526
614.66        72.26312
615.09        72.30209
615.52        72.45359
615.96        72.80579
616.39        72.63364
616.82        72.29947
617.25        72.35357
617.68         72.5892
618.11        72.55714
618.54        72.26495
618.97        72.31157
619.40        72.56963
619.84        72.85715
620.27        72.60712
620.70        72.29483
621.13        71.77322
621.56        72.26945
621.99        72.04435
622.42        71.90392
622.85        72.04197
623.28        72.14729
623.71        72.61509
624.14         71.9192
624.57        72.36131
625.00         72.3978
625.43        72.08839
625.86        72.16622
626.29        72.49534
626.72        71.99257
627.15        72.14307
627.58        71.99123
628.01        72.10656
628.44         71.6634
628.87        71.74335
629.30        72.18948
629.73        72.01243
630.16        71.73098
630.59        72.03368
631.02        72.11124
631.45        72.22926
631.88        72.28142
632.31         72.2727
632.74        72.19687
633.17        72.15354
633.60        72.10557
634.03        72.08276
634.46        72.11244
634.89        72.17068
635.32        72.12074
635.75        71.98849
636.18        72.00955
636.61        72.15367
637.04        72.12621
637.47        71.95666
637.89        71.95753
638.32        72.09651
638.75        72.14548
639.18        72.09416
639.61        72.06593
640.04        72.06355
640.47        72.05604
640.90        72.04795
641.33        72.01556
641.76        71.95227
642.18        72.02776
642.61        71.95676
643.04        71.96319
643.47        71.96184
643.90        71.95598
644.33        71.94109
644.76        71.91536
645.18        71.89147
645.61        71.87527
646.04         71.8717
646.47        71.87577
646.90        71.87072
647.33        71.84825
647.75        71.81956
648.18        71.74461
648.61        71.64687
649.04        71.73341
649.47        71.94636
649.89        71.84326
650.32        71.52472
650.75         71.6569
651.18        72.16636
651.61        72.32983
652.03        72.07246
652.46        71.88368
652.89        71.87419
653.32        71.53964
653.74        71.34486
654.17        71.84343
654.60        71.65339
655.03        71.99634
655.46        71.67213
655.88        72.71043
656.31        73.73093
656.74        75.30485
657.16        73.27412
657.59        72.09661
658.02        71.98303
658.45        72.40833
658.87        72.38551
659.30        72.33313
659.73        72.00997
660.15        72.28874
660.58        72.06141
661.01          72.132
661.44        72.16373
661.86        72.32034
662.29        72.50747
662.72        72.44947
663.14        72.19682
663.57        72.04256
664.00        72.02559
664.42        71.93718
664.85         71.7889
665.27        71.74012
665.70        71.79378
666.13        71.80691
666.55        71.75304
666.98        71.99483
667.41         71.9119
667.83        72.01572
668.26        72.10483
668.69        72.19385
669.11        72.24489
669.54        72.22491
669.96        72.15398
670.39         71.9781
670.82        71.77106
671.24        71.80731
671.67         72.0688
672.09        72.05167
672.52         72.0769
672.94         72.1495
673.37        72.32794
673.80        72.32081
674.22        72.16042
674.65        72.05446
675.07        72.04163
675.50          72.002
675.92        71.94687
676.35        71.92451
676.77        71.94411
677.20        71.99825
677.62        72.08003
678.05        72.15358
678.47        72.20499
678.90        72.24715
679.32        72.28767
679.75        72.34023
680.17        72.40229
680.60        72.51675
681.02        72.62618
681.45        72.54501
681.87        72.32468
682.30        72.13534
682.72        72.05174
683.15        72.15272
683.57        72.38638
684.00        72.42553
684.42        72.28941
684.85        72.31374
685.27        72.49046
685.70        72.60037
686.12        72.62682
686.54        72.69036
686.97        72.77451
687.39        72.82441
687.82        72.82614
688.24        72.70191
688.66        72.82133
689.09        72.56133
689.51        72.61939
689.94        72.54781
690.36        72.52979
690.78        72.54037
691.21        72.57161
691.63        72.59113
692.06        72.59163
692.48        72.59348
692.90        72.58915
693.33        72.55328
693.75        72.48502
694.17        72.38901
694.60        72.29839
695.02        72.27637
695.44        72.31803
695.87        72.48534
696.29        72.70237
696.71        72.66763
697.14        72.42342
697.56        72.44087
697.98        72.68489
698.41        72.79362
698.83        72.73969
699.25        72.75103
699.68        72.82933
700.10        72.92691
700.52        73.02848
700.94        73.15089
701.37        73.23476
701.79        73.22283
702.21        73.08905
702.64        72.87147
703.06        72.63433
703.48        72.50273
703.90        72.51106
704.33        72.61637
704.75         72.7735
705.17        72.88248
705.59        72.91184
706.01        72.86527
706.44        72.78234
706.86        72.85062
707.28        72.87935
707.70        73.03098
708.12        73.20814
708.55        73.25833
708.97        73.18604
709.39        73.25491
709.81        73.32973
710.23        73.37533
710.66        73.34644
711.08        73.35548
711.50        73.37877
711.92        73.36287
712.34        73.31077
712.76        73.23689
713.19        73.16942
713.61        73.20385
714.03        73.33039
714.45        73.52009
714.87        73.71448
715.29        73.82455
715.71        73.82896
716.13        73.75436
716.56        73.62373
716.98         73.5601
717.40        73.57023
717.82        73.63117
718.24        73.72411
718.66        73.81942
719.08        73.89944
719.50         73.9651
719.92        74.01554
720.34        74.04782
720.76        74.05799
721.19        74.03659
721.61         73.9797
722.03         73.8503
722.45         73.6559
722.87        73.42207
723.29        73.20856
723.71        73.10716
724.13        73.14264
724.55        73.28887
724.97        73.50408
725.39        73.71481
725.81        73.88696
726.23        74.02937
726.65        74.13783
727.07        74.21175
727.49        74.25439
727.91        74.26051
728.33        74.23958
728.75        74.21404
729.17        74.19448
729.59        74.18174
730.01        74.17937
730.43         74.1903
730.85        74.20975
731.27        74.23031
731.69        74.25308
732.10        74.27945
732.52        74.29403
732.94        74.35343
733.36        74.43993
733.78         74.4085
734.20        74.23506
734.62        74.46465
735.04        73.97881
735.46        74.27917
735.88        74.84837
736.30        74.78518
736.72        74.17209
737.13         73.9967
737.55        74.29115
737.97        74.51984
738.39        74.60101
738.81        74.58069
739.23        74.48876
739.65         74.5499
740.06        74.70584
740.48        74.74274
740.90        74.61683
741.32        74.54016
741.74        74.46065
742.16        74.48986
742.57        74.61086
742.99        74.86921
743.41        75.15051
743.83        75.11454
744.25        74.79625
744.67        74.55909
745.08        74.51262
745.50        74.50879
745.92        74.58822
746.34        74.88297
746.75        75.25272
747.17          75.396
747.59         75.2662
748.01        74.90091
748.42        74.47276
748.84        74.38005
749.26        74.62453
749.68        74.83295
750.09        74.91342
750.51        74.97043
750.93        74.98557
751.35        74.94112
751.76        74.86773
752.18        74.78467
752.60         74.7055
753.01        74.68524
753.43        74.73836
753.85         74.7803
754.27        74.77662
754.68        75.26002
755.10        75.24586
755.52        75.39372
755.93        75.42129
756.35        75.38635
756.77        75.30344
757.18        75.32455
757.60        75.50982
758.02        75.52113
758.43        75.37808
758.85        75.97329
759.26        76.44718
759.68        76.22165
760.10        75.87994
760.51        74.88932
760.93        75.40793
761.34         75.2816
761.76        75.60812
762.18        75.67261
762.59        75.72257
763.01         75.5888
763.42        76.00848
763.84        76.05498
764.26        75.95686
764.67        75.99658
765.09        76.16648
765.50        76.06317
765.92        75.77501
766.33        75.70518
766.75         75.8305
767.16        75.91134
767.58        75.87565
768.00        76.04233
768.41        76.33792
768.83        76.20979
769.24         75.8478
769.66         75.6818
770.07        75.75485
770.49        75.93936
770.90        76.15654
771.32        76.16482
771.73        76.01037
772.15        75.98909
772.56        76.11848
772.97        76.25023
773.39        76.30624
773.80        76.18728
774.22         75.9432
774.63        75.99905
775.05        76.29057
775.46        76.41981
775.88        76.32582
776.29            76.3
776.70        76.34991
777.12         76.3727
777.53        76.39252
777.95        76.41624
778.36        76.46759
778.77        76.55096
779.19        76.65971
779.60         76.8225
780.02        76.99446
780.43        77.04294
780.84        76.96324
781.26        76.98669
781.67         77.1702
782.09        77.13976
782.50        76.81725
782.91        77.40196
783.33        76.88299
783.74        76.91712
784.15         76.8913
784.57        76.85973
784.98        76.83552
785.39        76.83365
785.81        76.89314
786.22        77.08499
786.63        77.35004
787.04        77.53009
787.46        77.61739
787.87        77.67165
788.28        77.69746
788.70        77.70309
789.11        77.68458
789.52        77.55756
789.93        77.39535
790.35        77.52509
790.76         77.8868
791.17        77.91989
791.58        77.64619
792.00        77.57339
792.41        77.74181
792.82         77.8045
793.23        77.78378
793.65         77.9196
794.06        78.22421
794.47        78.53486
794.88        78.71841
795.29        78.84449
795.71        78.67101
796.12        78.26817
796.53        77.73823
796.94        77.81047
797.35        78.40611
797.76        78.54041
798.18        78.21883
798.59        78.22652
799.00         78.5732
799.41        78.77123
799.82        78.74931
800.23        78.65501
800.64        78.49001
801.06        78.19494
801.47        77.89819
801.88        77.73468
802.29        77.74624
802.70        77.90646
803.11        78.15168
803.52        78.35693
803.93        78.48346
804.34        78.56321
804.75        78.61348
805.17        78.68521
805.58        78.82547
805.99        78.88609
806.40        78.87434
806.81        79.04498
807.22        79.27198
807.63        79.04227
808.04        78.46356
808.45        78.19238
808.86         78.3065
809.27        78.45341
809.68        78.55582
810.09        78.63596
810.50        78.66447
810.91        78.64016
811.32        78.60841
811.73        78.65823
812.14        78.81308
812.55        78.99815
812.96        79.17961
813.37        79.41931
813.78        79.63709
814.19        79.57716
814.60        79.32445
815.01        79.24229
815.42        79.36578
815.83        79.51292
816.24        79.61739
816.65        79.64001
817.05        79.55978
817.46        79.36964
817.87        79.15852
818.28        78.99629
818.69        78.91035
819.10         78.8886
819.51        78.93677
819.92        79.05815
820.33        79.23893
820.74        79.46348
821.14        79.69396
821.55        79.91256
821.96        80.08566
822.37        80.21085
822.78        80.26852
823.19        80.23394
823.60        80.11009
824.00         79.9334
824.41        79.70349
824.82        79.51505
825.23        79.39581
825.64        79.34048
826.04        79.36006
826.45        79.41669
826.86        79.50585
827.27         79.6302
827.68        79.76302
828.08        79.89281
828.49        79.93742
828.90        79.93156
829.31        79.89631
829.72        79.87646
830.12         79.9108
830.53        79.94346
830.94        79.97305
831.35        79.95802
831.75        79.91455
832.16        79.80486
832.57         79.6957
832.97        79.65887
833.38        79.70154
833.79        79.81071
834.20        79.92657
834.60         79.9558
835.01        79.89204
835.42        79.74728
835.82        79.61038
836.23        79.54816
836.64        79.61563
837.04        79.81693
837.45        80.01627
837.86        80.09515
838.26         80.0377
838.67        79.86322
839.08        79.70866
839.48        79.77657
839.89        80.10394
840.29        80.62024
840.70        81.16729
841.11        81.50375
841.51         81.5831
841.92        81.42556
842.33        81.17363
842.73        81.06429
843.14        81.10796
843.54        81.26559
843.95        81.41148
844.35        81.36822
844.76        81.08762
845.17        80.65237
845.57         80.1922
845.98        79.86478
846.38        79.75561
846.79        79.79465
847.19        79.93172
847.60        80.02573
848.00         80.0508
848.41        79.99491
848.81        79.93568
849.22        79.91762
849.62        79.98996
850.03        80.11263
850.43        80.21356
850.84         80.0952
851.24        79.78557
851.65        79.27556
852.05        78.84264
852.46        78.85266
852.86        79.36716
853.27        80.23734
853.67        81.06887
854.07        81.54566
854.48        81.56252
854.88        81.26595
855.29         80.7187
855.69        80.28833
856.10        80.01078
856.50        79.88397
856.90        79.82267
857.31        79.72285
857.71        79.60323
858.12        79.47005
858.52        79.38741
858.92        79.30596
859.33        79.20444
859.73        79.11542
860.13        79.03539
860.54        79.00098
860.94        79.05186
861.34        79.12738
861.75        79.16209
862.15        79.11732
862.55        78.95535
862.96        78.72024
863.36        78.41942
863.76        78.05016
864.17        77.63639
864.57        77.20557
864.97        76.87224
865.38        76.79165
865.78         77.0333
866.18        77.53166
866.58        78.09613
866.99        78.39013
867.39        78.34611
867.79        78.01707
868.19        77.59118
868.60        77.32398
869.00        77.27191
869.40        77.38847
869.80        77.57444
870.21        77.65283
870.61        77.64996
871.01        77.58237
871.41        77.51522
871.81        77.53201
872.22        77.62002
872.62        77.75665
873.02        77.93864
873.42        78.15218
873.82        78.36617
874.22        78.59419
874.63        78.75996
875.03        78.71382
875.43        78.46338
875.83        78.04103
876.23        77.62299
876.63        77.51073
877.03        77.76337
877.44        78.27744
877.84        78.83778
878.24        79.03934
878.64         78.7915
879.04        78.25136
879.44        77.63102
879.84        77.22029
880.24         77.0993
880.64        77.18605
881.04        77.41675
881.44        77.68625
881.84        77.93289
882.24        78.16035
882.65        78.34885
883.05        78.56704
883.45        78.76461
883.85        78.92716
884.25        78.96054
884.65        78.73685
885.05        78.26501
885.45        77.60173
885.85        76.96295
886.25        76.71926
886.65        76.95377
887.05        77.54494
887.45        78.23796
887.85        78.63511
888.25        78.63056
888.65        78.33759
889.04        77.89462
889.44        77.58022
889.84        77.46973
890.24        77.47533
890.64        77.54229
891.04        77.59341
891.44        77.60096
891.84        77.61333
892.24        77.62788
892.64        77.62156
893.04        77.59969
893.44        77.56208
893.83        77.56493
894.23        77.64194
894.63        77.81432
895.03        78.04011
895.43        78.27293
895.83        78.43337
896.23         78.5004
896.63        78.51916
897.02        78.46284
897.42        78.33576
897.82        78.14548
898.22        77.90093
898.62        77.72961
899.01        77.85523
899.41        78.28689
899.81        78.96295
900.21        79.67615
900.61        80.08376
901.00        80.07982
901.40        79.76476
901.80        79.30937
902.20         79.0042
902.59        78.95179
902.99        79.07343
903.39        79.25951
903.79        79.31696
904.18        79.19688
904.58        78.97749
904.98         78.7979
905.38        78.86568
905.77        79.18898
906.17        79.68518
906.57        80.15072
906.96        80.27204
907.36        79.94584
907.76        79.31441
908.15        78.57164
908.55        77.96611
908.95        77.64177
909.34        77.50543
909.74        77.59538
910.14        77.90098
910.53        78.38139
910.93        79.01671
911.33        79.63318
911.72        79.92293
912.12        79.80872
912.52        79.39915
912.91        78.88395
913.31        78.58812
913.70        78.58245
914.10        78.77349
914.49        79.10953
914.89         79.4097
915.29        79.61929
915.68        79.77298
916.08        79.87539
916.47        79.93196
916.87        79.95784
917.26        79.90795
917.66        79.78869
918.05        79.58456
918.45        79.30136
918.84        79.00354
919.24        78.69601
919.64        78.46179
920.03        78.35937
920.42        78.38242
920.82          78.548
921.21         78.8677
921.61        79.30273
922.00        79.82204
922.40         80.3901
922.79        81.02782
923.19        81.64432
923.58        82.25068
923.98        82.62484
924.37        82.51006
924.77        81.87608
925.16        80.77856
925.55        79.60349
925.95        79.01785
926.34        79.19948
926.74        79.97784
927.13        80.90467
927.52        81.13862
927.92        80.53687
928.31        79.36201
928.70        78.14182
929.10        77.67367
929.49        78.14252
929.89        79.25343
930.28         80.6307
930.67        81.48862
931.07         81.5466
931.46        81.05663
931.85        80.29293
932.24        79.72096
932.64        79.48972
933.03         79.4613
933.42        79.50833
933.82        79.43466
934.21        79.20359
934.60        78.92358
934.99        78.72289
935.39        78.75954
935.78        79.09966
936.17        79.64005
936.56        80.25529
936.96        80.72882
937.35        81.02548
937.74        81.17506
938.13        81.18528
938.53        81.08315
938.92        80.89338
939.31        80.57134
939.70         80.2473
940.09        80.15157
940.49        80.30577
940.88        80.71539
941.27        81.10043
941.66        81.01921
942.05        80.41988
942.44        79.45578
942.84        78.52979
943.23        78.25425
943.62        78.80184
944.01        79.97087
944.40        81.37446
944.79        82.31313
945.18        82.52949
945.57        82.20082
945.97        81.54172
946.36         80.9579
946.75        80.54651
947.14        80.19087
947.53         79.8355
947.92        79.40936
948.31        78.91647
948.70        78.45795
949.09        78.09025
949.48        77.85222
949.87        77.75681
950.26         77.7768
950.65        77.90371
951.04        78.13413
951.43         78.4432
951.82        78.80737
952.21        79.15903
952.60        79.39053
952.99        79.46529
953.38        79.40372
953.77         79.2577
954.16        79.11608
954.55        79.01077
954.94        78.92352
955.33        78.84857
955.72        78.77615
956.11        78.69448
956.50        78.60513
956.89        78.50974
957.28        78.39217
957.66        78.29138
958.05        78.22948
958.44        78.17175
958.83        78.05814
959.22         77.8747
959.61        77.56876
960.00        77.34595
960.39        77.53969
960.78        78.16374
961.16        79.16499
961.55        79.97169
961.94        79.71945
962.33        78.28828
962.72        76.06845
963.11        73.83929
963.49        72.72431
963.88        72.98299
964.27        74.29408
964.66        76.19501
965.04        77.82844
965.43        78.72098
965.82        79.09835
966.21        79.13049
966.60        79.11671
966.98        79.17577
967.37        79.13831
967.76        78.92379
968.15        78.43042
968.53        77.70442
968.92        76.88441
969.31        76.20641
969.69         75.9327
970.08        76.11758
970.47        76.71246
970.86        77.58421
971.24        78.49746
971.63          79.245
972.02        79.82173
972.40        80.29971
972.79        80.68856
973.17         81.0759
973.56        81.38551
973.95        81.51192
974.33        81.24985
974.72        80.56634
975.11        79.53792
975.49        78.46378
975.88        77.85545
976.26        77.86829
976.65        78.38655
977.04          79.053
977.42        79.21408
977.81        78.62701
978.19        77.43889
978.58        76.17719
978.96        75.73518
979.35        76.31123
979.74         77.6646
980.12        79.19471
980.51        79.71314
980.89        79.06263
981.28        77.49858
981.66        75.72058
982.05        75.00751
982.43        75.73214
982.82        77.42958
983.20        79.47851
983.59        80.78113
983.97        81.12212
984.35        80.74529
984.74        79.96788
985.12        79.35281
985.51        79.10362
985.89        79.07239
986.28        79.09914
986.66         79.0276
987.04        78.80122
987.43        78.49187
987.81        78.26742
988.20        78.28519
988.58        78.61964
988.96        79.16718
989.35        79.66331
989.73        79.81584
990.12         79.5071
990.50        78.80548
990.88        77.93375
991.27        77.45496
991.65        77.58453
992.03        78.11649
992.42        78.66965
992.80        79.00417
993.18        78.94423
993.56        78.58736
993.95         77.9528
994.33         77.0641
994.71        76.21477
995.10        75.48243
995.48        75.02154
995.86        74.83042
996.24        74.84875
996.63        75.00074
997.01        75.42925
997.39        76.19511
997.77        77.20277
998.15        78.37382
998.54        79.25253
998.92        79.28014
999.30        78.41502
999.68        76.78603
1000.06        75.05791
1000.45        74.46196
1000.83        75.38503
1001.21        77.34253
1001.59        79.52873
1001.97        80.75386
1002.35        80.72187
1002.73         79.7987
1003.12        78.24928
1003.50        76.63597
1003.88          75.449
1004.26        74.55492
1004.64          74.189
1005.02        74.64824
1005.40        75.86795
1005.78        77.80444
1006.16        79.90604
1006.54        81.08743
1006.92        81.01861
1007.30        79.96609
1007.69        78.53445
1008.07        77.69824
1008.45        77.83144
1008.83        78.59623
1009.21        79.63351
1009.59        80.44163
1009.97        80.86308
1010.35        81.09133
1010.73        81.15443
1011.11        81.05668
1011.49        80.86789
1011.86        80.63615
1012.24        80.35792
1012.62        80.33117
1013.00        80.59935
1013.38        81.11687
1013.76        81.77785
1014.14        82.38324
1014.52        82.84131
1014.90        83.16401
1015.28        83.35452
1015.66        83.41615
1016.04        83.37589
1016.41        83.36723
1016.79        83.13496
1017.17        82.69684
1017.55        82.05073
1017.93        81.15707
1018.31        80.39069
1018.69        80.29884
1019.06        81.05078
1019.44        82.68652
1019.82        84.37543
1020.20        84.42439
1020.58        82.46936
1020.95        79.02644
1021.33        75.90163
1021.71        75.37045
1022.09        77.62162
1022.46        81.94904
1022.84        86.62563
1023.22        88.35118
1023.60        85.95557
1023.97        79.77701
1024.35        71.67688
1024.73        66.24274
