SpectraSmart Spectrum 2.9.0.0
--------- Device Information -----------
Spectrum Name :  反射率_0
Saving Time :  2024/04/27 23:44:28
Spectro-Module Model Name : SE2030-DUVN
Spectro-Module Serial Number : OS361AC55029948
Wavelength Start : 200
Wavelength End : 1025
Wavelength Unit : Wavelength(nm)
Spectrum Unit : Reflectance(%)
-----------Spectrum Setting ------------
Integration Time : 20ms
Average : 10
Boxcar : 0
Background removal :  enabled
linearity correction :  enabled
SC :  disabled
Intensity correction :  disabled
DWT denoise :  enabled
savitzky-golay :  disabled
FFT :  disabled
Running average :  disabled
Kalman :  disabled
High pass :  disabled
---------------BEGIN--------------------
Wavelength(nm)             Reflectance(%)
200.29               0
200.75       -43.57146
201.21        -10.2903
201.67        20.44406
202.13        33.49094
202.58        34.52854
203.04        30.97555
203.50        28.34711
203.96        32.80631
204.42        43.44229
204.88        55.80142
205.34        66.59486
205.80        74.12432
206.26        79.02573
206.72        82.50413
207.18        84.51192
207.64        83.57619
208.10        79.94903
208.55        76.20966
209.01        72.15604
209.47        66.27788
209.93        55.45853
210.39        29.80564
210.85       -47.75806
211.31       -153.8054
211.77       -51.27229
212.23        24.20564
212.69         52.1331
213.14        60.97783
213.60        60.82686
214.06        54.66935
214.52        42.56969
214.98        36.48297
215.44        45.28962
215.90        57.01861
216.36        65.04198
216.81           68.05
217.27        67.46392
217.73        65.12778
218.19        61.16199
218.65        55.39885
219.11        48.11129
219.57         38.9052
220.02        29.64959
220.48        26.65925
220.94         31.1473
221.40        40.16764
221.86        49.55239
222.32        55.21443
222.77         57.0817
223.23        56.74903
223.69        55.08055
224.15        52.74062
224.61        50.02192
225.06        46.44799
225.52        43.28556
225.98        42.67187
226.44        44.46183
226.90        47.14822
227.36        49.26033
227.81        49.59881
228.27        48.22196
228.73        45.55659
229.19        41.83953
229.65        37.85178
230.10        34.30785
230.56        31.60649
231.02        29.96897
231.48        29.66897
231.93        30.54141
232.39        32.39466
232.85        35.07953
233.31        38.37778
233.77        41.98321
234.22        45.83945
234.68        49.18106
235.14        51.21109
235.60         51.9137
236.05        51.37731
236.51        50.65591
236.97        51.88639
237.43        55.68815
237.88        61.49255
238.34        67.27484
238.80        71.31263
239.26        73.48479
239.71        74.16377
240.17        73.92433
240.63        75.87846
241.08        80.98994
241.54        85.94906
242.00        89.03773
242.46        90.31995
242.91        90.50892
243.37        89.45155
243.83        86.88604
244.28        84.70321
244.74        86.97379
245.20        92.34002
245.66        96.13519
246.11        97.33681
246.57        96.81522
247.03        94.64046
247.48        90.94958
247.94         88.5472
248.40        90.50957
248.85        95.25269
249.31        100.4959
249.77         104.185
250.22         106.273
250.68         107.588
251.14        108.9091
251.59        111.3489
252.05        115.5784
252.51        121.9305
252.96        129.7675
253.42        134.4529
253.88        132.4211
254.33        126.1082
254.79        120.1347
255.25        115.7784
255.70        112.4644
256.16        110.4638
256.62        109.1776
257.07        108.2551
257.53        108.1141
257.99        107.9893
258.44        107.5468
258.90        107.2721
259.35        106.4988
259.81        105.8342
260.27        104.6903
260.72        102.5332
261.18        100.1076
261.63        97.28272
262.09        94.92574
262.55        93.27314
263.00        92.13406
263.46        91.53226
263.91        90.92692
264.37        90.19349
264.83        89.15441
265.28        87.83671
265.74        86.53938
266.19         85.2255
266.65         84.0244
267.11        82.82706
267.56        81.48135
268.02        79.91981
268.47        78.10568
268.93        76.14914
269.38        74.26591
269.84        72.83801
270.30        71.90515
270.75        71.32452
271.21         70.8151
271.66        69.86219
272.12        68.39014
272.57        66.51198
273.03        64.52344
273.48        62.76905
273.94         61.4397
274.39        60.36231
274.85         59.4789
275.31         58.5632
275.76        57.52529
276.22        56.49313
276.67        55.46836
277.13        54.61637
277.58        53.86394
278.04        53.22671
278.49        52.52224
278.95        51.67496
279.40        50.60997
279.86        49.47791
280.31        48.35548
280.77        47.53148
281.22        46.97664
281.68        46.66525
282.13        46.42426
282.59        46.11969
283.04        45.67432
283.50        45.19178
283.95        44.69465
284.41        44.29583
284.86         44.0006
285.32        43.80967
285.77        43.69864
286.22         43.7115
286.68        43.85126
287.13        44.04663
287.59        44.27634
288.04        44.39924
288.50         44.4314
288.95        44.36775
289.41        44.27827
289.86        44.19397
290.32        44.17752
290.77         44.2109
291.22        44.33338
291.68        44.58378
292.13        44.96378
292.59        45.51508
293.04        46.22233
293.50        47.09292
293.95        48.10452
294.40        49.25253
294.86        50.55151
295.31        52.01493
295.77        53.63626
296.22        55.37005
296.68         57.1393
297.13        58.78878
297.58        60.28209
298.04        61.66488
298.49        63.00135
298.95        64.46692
299.40        66.09348
299.85        67.84971
300.31        69.71502
300.76        71.58206
301.21        73.40696
301.67        75.22685
302.12         76.9558
302.58        78.58784
303.03        80.08488
303.48        81.49142
303.94        82.92249
304.39        84.44831
304.84        86.11737
305.30        87.90629
305.75        89.68945
306.20        91.38672
306.66        92.99339
307.11        94.48935
307.57        95.92564
308.02        97.24016
308.47        98.46077
308.93        99.60106
309.38        100.6671
309.83        101.7894
310.29        103.0093
310.74        104.2738
311.19        105.5113
311.65         106.572
312.10        107.3843
312.55        107.9927
313.00        108.5126
313.46        109.1349
313.91        109.8821
314.36        110.7169
314.82        111.5013
315.27        112.0095
315.72        112.2009
316.18        112.1713
316.63        112.0794
317.08        112.2118
317.53        112.6368
317.99        113.2633
318.44        113.9459
318.89        114.4204
319.35        114.6165
319.80        114.6278
320.25        114.5765
320.70        114.6654
321.16        114.9385
321.61        115.3442
322.06         115.791
322.51          116.15
322.97        116.3583
323.42        116.4925
323.87        116.5773
324.32        116.6748
324.78        116.7887
325.23        116.9398
325.68        117.0844
326.13        117.1857
326.59        117.2156
327.04        117.2559
327.49        117.3266
327.94         117.494
328.39        117.7735
328.85        118.0985
329.30        118.5171
329.75         118.933
330.20        119.3113
330.66          119.63
331.11        119.9275
331.56        120.1409
332.01        120.2802
332.46        120.3552
332.92         120.382
333.37        120.5657
333.82        120.8861
334.27        121.3099
334.72        121.7858
335.17        122.2184
335.63        122.5525
336.08        122.8905
336.53        123.1994
336.98        123.4762
337.43        123.7325
337.88        123.9486
338.34        124.2005
338.79         124.679
339.24        125.3804
339.69        126.2579
340.14        127.1113
340.59        127.6117
341.05        127.6997
341.50        127.4936
341.95        127.2183
342.40        127.2531
342.85        127.6887
343.30          128.39
343.75        129.1937
344.20        129.8349
344.66        130.2224
345.11        130.4347
345.56        130.4926
346.01        130.4216
346.46        130.2666
346.91        130.0316
347.36        129.8092
347.81        129.7481
348.26        129.8748
348.72        130.1509
349.17        130.4915
349.62        130.7742
350.07        130.9392
350.52        131.0001
350.97        130.9476
351.42        130.7752
351.87        130.4955
352.32        130.1198
352.77        129.6687
353.22         129.181
353.67         128.673
354.13         128.148
354.58        127.6192
355.03        127.1681
355.48        126.7894
355.93        126.4538
356.38         126.048
356.83         125.391
357.28        124.4612
357.73        123.3397
358.18          122.15
358.63        121.0823
359.08        120.1966
359.53        119.4388
359.98        118.7785
360.43        118.1641
360.88        117.5577
361.33        116.9652
361.78        116.3392
362.23        115.5975
362.68        114.7226
363.13        113.7404
363.58           112.7
364.03        111.6335
364.48        110.6633
364.93        109.7149
365.38        108.7923
365.83        107.8524
366.28        106.8876
366.73        105.9114
367.18        104.9679
367.63        104.1246
368.08        103.3919
368.53        102.7499
368.98        102.1231
369.43        101.3893
369.88        100.5265
370.33        99.57379
370.78        98.62521
371.23        97.83716
371.68        97.24027
372.13        96.76991
372.58        96.34177
373.03        95.82236
373.48        95.16641
373.93        94.41993
374.38        93.60018
374.83        92.72874
375.28        91.83539
375.72        90.91202
376.17        90.04577
376.62        89.30494
377.07        88.70351
377.52        88.20725
377.97        87.78954
378.42         87.4024
378.87        87.01798
379.32        86.65086
379.77        86.23883
380.22        85.68702
380.67        84.98763
381.11        84.16599
381.56        83.34647
382.01        82.75188
382.46        82.43984
382.91        82.35718
383.36        82.34693
383.81        82.15672
384.26        81.72495
384.71        81.11872
385.15        80.47373
385.60        80.06229
386.05        79.91568
386.50        79.94673
386.95        79.98905
387.40        79.79481
387.85        79.32605
388.29        78.64066
388.74        77.98638
389.19        77.52036
389.64        77.26738
390.09        77.13606
390.54        77.03209
390.98        76.79016
391.43        76.41605
391.88         75.9845
392.33        75.51112
392.78        75.02354
393.23        74.56244
393.67        74.15017
394.12        73.61823
394.57        73.74068
395.02        73.32311
395.47        73.39619
395.91        73.36211
396.36        73.32856
396.81        73.21135
397.26        73.07423
397.71        72.90515
398.15        72.64306
398.60        72.37342
399.05        71.98473
399.50        71.59987
399.95        71.49616
400.39        71.62017
400.84        71.69571
401.29        71.60836
401.74        71.12502
402.18        70.39605
402.63        70.06189
403.08        70.13218
403.53        69.99014
403.97        69.63466
404.42        69.50417
404.87        69.55209
405.32        69.55038
405.76        69.46468
406.21        69.23344
406.66        68.94158
407.11        68.97887
407.55        69.23906
408.00        69.11441
408.45        68.60592
408.90        67.95353
409.34        67.38059
409.79        67.38371
410.24         67.8346
410.68        68.00008
411.13        67.81464
411.58         67.7356
412.03        67.79267
412.47        67.81335
412.92        67.77269
413.37        67.73481
413.81        67.67725
414.26        67.61889
414.71        67.54926
415.15        67.48602
415.60        67.42269
416.05        67.40898
416.49        67.45854
416.94        67.54284
417.39        67.64891
417.83        67.75385
418.28        67.83753
418.73        67.88806
419.17        67.89894
419.62        67.86716
420.07        67.80479
420.51        67.72023
420.96        67.62039
421.41        67.50336
421.85        67.35336
422.30        67.12049
422.74         66.8978
423.19        67.07111
423.64        67.51705
424.08        67.83572
424.53        67.93954
424.98        67.46237
425.42        67.90672
425.87        67.57937
426.31        67.09116
426.76        67.23409
427.21        67.87775
427.65        67.93255
428.10        67.42384
428.54        67.29211
428.99        67.58923
429.44        67.88184
429.88        68.02444
430.33        67.92347
430.77        67.62301
431.22          67.475
431.66        67.54814
432.11         67.9239
432.56        68.55904
433.00        68.86418
433.45        68.52739
433.89         68.4855
434.34         68.9465
434.78        67.39105
435.23        67.15477
435.67        68.26939
436.12        68.82999
436.57        69.15736
437.01        68.60735
437.46        68.37716
437.90        68.92904
438.35         69.3671
438.79        69.21637
439.24        69.22709
439.68         69.2679
440.13         69.3261
440.57        69.42424
441.02        69.63916
441.46        69.86038
441.91         69.9082
442.35        69.76013
442.80        69.63943
443.24        69.81957
443.69        69.91869
444.13        70.14187
444.58        70.18256
445.02        70.06025
445.47        69.91762
445.91        69.82613
446.36        69.73341
446.80        69.61244
447.24        70.01938
447.69        69.95282
448.13        70.14066
448.58        70.61373
449.02        70.64247
449.47        70.40572
449.91        70.31358
450.36        70.42262
450.80        70.44966
451.25        70.41107
451.69        70.44157
452.13        70.52555
452.58        70.56635
453.02        70.54187
453.47        70.44542
453.91        70.25354
454.36        70.10691
454.80        69.98444
455.24        69.49741
455.69        68.76633
456.13        68.62251
456.58        68.75176
457.02        68.28652
457.46         69.1371
457.91         68.9173
458.35        68.56851
458.79        68.33869
459.24        68.34872
459.68        68.25138
460.13        68.05511
460.57        67.77903
461.01        67.76521
461.46         67.5456
461.90        67.28272
462.34        67.54253
462.79        67.87969
463.23        67.80344
463.68        67.29601
464.12        66.94994
464.56        66.88041
465.01        67.19399
465.45        67.57169
465.89        67.42058
466.34        66.90796
466.78         66.4948
467.22        66.20076
467.67        67.06657
468.11        66.58945
468.55        66.53328
468.99        66.22369
469.44        66.07761
469.88         66.0965
470.32          66.038
470.77        65.90257
471.21        65.78438
471.65        65.68581
472.10        65.59155
472.54        65.48203
472.98        65.38572
473.42        65.30991
473.87        65.20644
474.31        65.07961
474.75        65.16536
475.20        65.39626
475.64        65.39641
476.08        65.16243
476.52         65.0832
476.97        65.17961
477.41        64.88068
477.85        64.97643
478.29        64.64566
478.74        65.11887
479.18        64.57961
479.62        64.93869
480.06        64.85349
480.50         64.8192
480.95        64.68821
481.39        64.42141
481.83        64.49321
482.27        64.47782
482.72        63.95131
483.16        64.42996
483.60        64.07409
484.04        64.08476
484.48        64.03058
484.93        64.36916
485.37        63.89838
485.81        64.72449
486.25        64.98064
486.69         65.3131
487.14        64.66038
487.58          64.564
488.02         64.2018
488.46        64.11588
488.90        64.32258
489.34        63.83967
489.79        63.44664
490.23        63.46648
490.67        63.29329
491.11        63.13525
491.55        63.14801
491.99        63.30519
492.43        63.38943
492.88        63.37098
493.32        63.38171
493.76        63.41228
494.20        63.46206
494.64        63.55044
495.08        63.56134
495.52        63.51271
495.96        63.72227
496.41        64.05676
496.85        63.79432
497.29        63.09428
497.73        62.90147
498.17        63.12355
498.61        63.37276
499.05        63.46579
499.49        63.25196
499.93        62.85472
500.37        62.76121
500.82        62.94445
501.26        62.99631
501.70        63.23003
502.14          62.605
502.58        63.37481
503.02         63.4534
503.46        63.21506
503.90         62.9704
504.34        62.73666
504.78        62.64119
505.22        62.68126
505.66        62.72228
506.10        62.71721
506.54        62.76803
506.98        62.86395
507.42        62.64454
507.86        62.64706
508.30        62.58239
508.74         62.6151
509.18        62.68851
509.62        62.75879
510.06        62.75772
510.50        62.66676
510.94        62.51452
511.38        62.36041
511.82        62.29632
512.26        62.34096
512.70        62.46698
513.14        62.61584
513.58        62.66883
514.02        62.59782
514.46         62.4833
514.90        62.38858
515.34        62.19403
515.78        62.28196
516.22        62.33252
516.66        62.42221
517.10        62.49528
517.54        62.53486
517.98        62.55151
518.42        62.54226
518.86        62.50989
519.30        62.45991
519.74        62.39454
520.18        62.32562
520.62        62.27314
521.06        62.24484
521.50        62.23801
521.93        62.25819
522.37        62.29807
522.81        62.35518
523.25        62.42221
523.69        62.48059
524.13        62.50244
524.57        62.48171
525.01        62.42782
525.45        62.35111
525.89        62.26942
526.32        62.18787
526.76        62.11797
527.20        62.06734
527.64        62.05403
528.08        62.07846
528.52        62.13248
528.96        62.19967
529.40        62.25283
529.83        62.27686
530.27        62.28855
530.71        62.28035
531.15        62.25158
531.59        62.20581
532.03        62.14221
532.46         62.0724
532.90        62.03742
533.34        62.03672
533.78           62.06
534.22        62.08333
534.66        62.06794
535.09        61.99973
535.53        61.91283
535.97        61.81449
536.41        61.73035
536.85        61.67116
537.28        61.63089
537.72        61.61744
538.16        61.63402
538.60        61.67898
539.04        61.76252
539.47        61.84128
539.91        61.88488
540.35        61.86932
540.79        61.81438
541.22        61.74183
541.66        61.69421
542.10        61.68336
542.54        61.70507
542.97        61.72813
543.41        61.73769
543.85        61.71065
544.29        61.65355
544.72         61.5908
545.16        61.55705
545.60        61.53743
546.04        61.62164
546.47        61.74294
546.91        61.54631
547.35        61.13794
547.79        61.13992
548.22        61.46099
548.66        61.46933
549.10        61.17147
549.53        61.06683
549.97        61.18816
550.41        61.27018
550.84        61.29494
551.28        61.42921
551.72        61.63621
552.15        61.63296
552.59        61.46819
553.03        61.57884
553.46        61.25186
553.90          61.166
554.34        61.08452
554.77        61.28875
555.21        61.25154
555.65        61.28225
556.08        61.16796
556.52        61.12745
556.96        61.14572
557.39        61.17264
557.83         61.2006
558.27        61.28379
558.70        61.18499
559.14        61.18489
559.57        61.20356
560.01        61.22956
560.45        61.22197
560.88        61.16653
561.32        61.11935
561.75        60.97965
562.19        60.83334
562.63        60.96915
563.06        61.27663
563.50        61.21703
563.93        60.83371
564.37        60.70708
564.80        60.83775
565.24        60.94796
565.68        61.01006
566.11        61.07442
566.55        61.14329
566.98        61.25439
567.42         61.3936
567.85        61.26923
568.29        61.13384
568.72        61.08525
569.16        61.19603
569.60        61.26656
570.03        61.28732
570.47        61.17179
570.90        61.27328
571.34        61.31419
571.77        61.42479
572.21         61.2795
572.64        61.55664
573.08        61.23027
573.51         60.8872
573.95        61.33613
574.38        61.72804
574.82         61.6194
575.25        61.50241
575.69         61.3906
576.12        61.17244
576.56         61.5704
576.99         61.2923
577.42        61.43506
577.86        61.71194
578.29        61.90679
578.73         61.6599
579.16        61.62595
579.60        61.63085
580.03        61.53758
580.47        61.27126
580.90         61.5232
581.33        61.64795
581.77        61.60879
582.20        61.97619
582.64         61.8676
583.07        61.61901
583.51        61.38381
583.94        61.43848
584.37        61.41333
584.81        61.35519
585.24        61.35348
585.68        61.44123
586.11        61.41435
586.54        61.61872
586.98        61.29652
587.41         61.5814
587.85        61.46754
588.28        61.21349
588.71        61.30384
589.15        61.48748
589.58        60.98687
590.01        61.40623
590.45        61.32764
590.88        60.71384
591.31        60.62463
591.75        60.86025
592.18        60.75533
592.61        60.54037
593.05        60.66007
593.48        61.79963
593.91        61.28043
594.35        60.97728
594.78        61.04945
595.21        60.94099
595.65        60.84143
596.08        60.43586
596.51        60.93148
596.94        60.61815
597.38         60.6899
597.81        61.15785
598.24        60.49553
598.68        61.09973
599.11        60.84872
599.54        61.03339
599.97        61.14236
600.41        61.03856
600.84        61.03439
601.27          61.035
601.70        60.67118
602.14        60.39457
602.57         60.6019
603.00        60.73961
603.43        60.82257
603.87        60.96646
604.30         60.8787
604.73        60.65483
605.16        60.93309
605.60        60.82927
606.03        60.85925
606.46        60.78911
606.89        60.62053
607.32        60.88808
607.76        61.01124
608.19        60.82151
608.62        60.73454
609.05         60.7216
609.48        60.64098
609.92        60.43877
610.35        60.69476
610.78        60.54903
611.21        60.21805
611.64        60.58916
612.07        60.52158
612.50        60.36692
612.94        60.33228
613.37        60.47999
613.80        60.40195
614.23        60.54903
614.66        60.53083
615.09        60.46387
615.52        60.40685
615.96        60.41932
616.39        60.02357
616.82        60.32519
617.25        60.12575
617.68        60.36945
618.11        60.26113
618.54        60.10711
618.97        60.24898
619.40        60.55021
619.84        60.92257
620.27        60.66236
620.70        60.41493
621.13        59.99532
621.56        60.32389
621.99        59.94607
622.42        59.78307
622.85         60.0118
623.28        59.97725
623.71         60.0529
624.14         59.9896
624.57        59.93883
625.00        60.28102
625.43        59.89584
625.86        59.89707
626.29        59.95054
626.72        59.85741
627.15        59.79416
627.58        59.77404
628.01        59.90954
628.44        59.68311
628.87        59.66013
629.30        60.05178
629.73        59.42158
630.16          59.505
630.59        59.49349
631.02        59.71907
631.45         59.9571
631.88        60.07491
632.31        60.06632
632.74        59.69615
633.17        59.63729
633.60        59.49617
634.03        59.48096
634.46        59.55468
634.89        59.66874
635.32        59.71928
635.75        59.67521
636.18        59.60725
636.61        59.54612
637.04        59.46984
637.47        59.42496
637.89        59.55259
638.32        59.78424
638.75        59.90712
639.18        59.89167
639.61        59.85015
640.04        59.79602
640.47        59.72055
640.90        59.63928
641.33          59.531
641.76        59.40442
642.18        59.42287
642.61        59.35579
643.04        59.38291
643.47        59.42157
643.90        59.44997
644.33        59.45583
644.76        59.44492
645.18        59.42385
645.61        59.39362
646.04        59.36143
646.47        59.32153
646.90        59.28088
647.33        59.27277
647.75         59.3125
648.18        59.34079
648.61        59.34468
649.04        59.47926
649.47        59.66657
649.89        59.47707
650.32        59.04876
650.75        59.08079
651.18        59.53572
651.61        59.78764
652.03        59.73089
652.46        59.61524
652.89        59.53265
653.32         59.3103
653.74        59.31974
654.17        59.60139
654.60         59.0575
655.03        59.28138
655.46        59.20367
655.88        59.63001
656.31          61.153
656.74        62.94675
657.16        61.84707
657.59        60.96189
658.02         59.6865
658.45        60.08438
658.87        59.76344
659.30        59.79048
659.73        59.13056
660.15         59.2486
660.58        58.96772
661.01        59.17844
661.44        59.43521
661.86        59.57428
662.29        59.52288
662.72        59.23982
663.14        58.88381
663.57        58.90638
664.00        59.26296
664.42        59.37506
664.85        59.22041
665.27        59.15677
665.70        59.19773
666.13        59.19624
666.55        59.15481
666.98        59.10483
667.41        59.06501
667.83        59.06517
668.26        59.10654
668.69        59.18784
669.11        59.27592
669.54        59.33557
669.96        59.36421
670.39        59.29205
670.82        59.18678
671.24        59.30725
671.67        59.58801
672.09          59.652
672.52        59.51007
672.94        59.38929
673.37        59.33646
673.80        59.31686
674.22        59.33375
674.65        59.30744
675.07        59.25213
675.50        59.22635
675.92        59.23183
676.35        59.21534
676.77        59.17783
677.20         59.1379
677.62        59.10897
678.05        59.09327
678.47        59.09504
678.90        59.12232
679.32        59.16692
679.75        59.22798
680.17        59.30006
680.60        59.38611
681.02         59.4699
681.45        59.52133
681.87        59.54655
682.30         59.5029
682.72        59.43376
683.15         59.5031
683.57        59.68322
684.00        59.69213
684.42        59.55522
684.85        59.54109
685.27        59.65689
685.70        59.74049
686.12        59.74464
686.54        59.75619
686.97        59.76813
687.39         59.4883
687.82        59.47002
688.24        59.32521
688.66        59.46724
689.09        59.63033
689.51        59.82918
689.94        59.92162
690.36        59.88001
690.78        59.74337
691.21        59.56155
691.63        59.41357
692.06        59.33058
692.48        59.28671
692.90        59.26997
693.33        59.25095
693.75        59.23088
694.17        59.23582
694.60        59.24966
695.02        59.29845
695.44        59.38044
695.87        59.37705
696.29        59.34296
696.71        59.61603
697.14        60.06969
697.56        60.11301
697.98        59.78131
698.41        59.67062
698.83        59.78535
699.25        59.81626
699.68        59.73647
700.10         59.7075
700.52        59.72491
700.94        59.75149
701.37         59.7753
701.79        59.80736
702.21        59.82618
702.64        59.84256
703.06        59.84614
703.48        59.83634
703.90        59.81944
704.33        59.79453
704.75        59.76488
705.17        59.71754
705.59         59.6554
706.01        59.56228
706.44        59.47728
706.86        59.56385
707.28        59.66013
707.70        59.89061
708.12        60.13501
708.55         60.2257
708.97         60.1547
709.39        60.07238
709.81        60.02333
710.23        59.98339
710.66        59.97207
711.08        60.04693
711.50        60.14824
711.92        60.16813
712.34        60.09245
712.76        59.95944
713.19        59.81959
713.61        59.79573
714.03        59.89452
714.45        60.07209
714.87        60.27336
715.29        60.41705
715.71        60.47757
716.13        60.48106
716.56        60.42454
716.98        60.36926
717.40        60.31588
717.82        60.25773
718.24        60.21816
718.66        60.23735
719.08        60.31676
719.50        60.43921
719.92        60.57375
720.34        60.66588
720.76        60.69736
721.19         60.6781
721.61        60.61686
722.03        60.50361
722.45        60.35026
722.87        60.16253
723.29        59.99648
723.71        59.94063
724.13        60.01447
724.55        60.20248
724.97         60.4405
725.39        60.59431
725.81        60.62686
726.23        60.60844
726.65        60.61299
727.07        60.54181
727.49        60.76935
727.91        60.96813
728.33        61.17407
728.75        61.26677
729.17        61.21894
729.59        61.06714
730.01        60.85739
730.43        60.68574
730.85        60.58271
731.27        60.49899
731.69         60.4292
732.10        60.47663
732.52        60.44242
732.94        60.53038
733.36        60.65781
733.78        60.67958
734.20        60.56361
734.62        60.75462
735.04        60.36241
735.46        60.64098
735.88         61.1717
736.30        61.22688
736.72        60.83256
737.13         60.6835
737.55        60.81969
737.97        60.93369
738.39        60.97295
738.81        60.92053
739.23        60.79607
739.65        60.75628
740.06         60.7738
740.48        60.77952
740.90        60.75616
741.32        60.59371
741.74        60.66332
742.16        60.64742
742.57         60.6647
742.99        60.70421
743.41        60.76041
743.83        60.80037
744.25         60.8108
744.67        60.78649
745.08        60.77636
745.50        60.82764
745.92        60.96072
746.34        61.16488
746.75        61.34145
747.17        61.34308
747.59        61.14879
748.01        60.75984
748.42        60.34911
748.84        60.27045
749.26        60.51926
749.68        60.85927
750.09        61.14481
750.51        61.15221
750.93        60.94187
751.35        60.96008
751.76        61.18491
752.18        61.17997
752.60        60.94695
753.01        60.76688
753.43        60.67403
753.85        60.62507
754.27        60.63326
754.68        60.71629
755.10        60.84233
755.52        60.95016
755.93         61.0288
756.35        61.09584
756.77        61.14746
757.18        61.23063
757.60        61.36043
758.02        61.36845
758.43        61.31077
758.85        61.55781
759.26         61.9161
759.68        61.81359
760.10         61.4531
760.51         60.4977
760.93        60.98386
761.34         61.3852
761.76        61.71849
762.18        61.89746
762.59        61.79275
763.01        61.62349
763.42        61.51351
763.84        61.40632
764.26        61.38433
764.67        61.56089
765.09        61.84758
765.50        61.89943
765.92        61.72163
766.33        61.48859
766.75        61.26218
767.16        61.15151
767.58        61.15102
768.00        61.41206
768.41        61.79299
768.83        61.67298
769.24        61.16596
769.66        61.03275
770.07        61.22758
770.49        61.41424
770.90        61.51163
771.32        61.50269
771.73        61.42883
772.15        61.44252
772.56        61.55851
772.97        61.67562
773.39        61.72915
773.80        61.66023
774.22        61.49616
774.63        61.51014
775.05        61.67498
775.46        61.77728
775.88        61.77865
776.29        61.85434
776.70         61.9864
777.12        62.07314
777.53        62.12134
777.95        62.14268
778.36        62.15628
778.77         62.1769
779.19        62.21007
779.60        62.25608
780.02        62.30129
780.43        62.34834
780.84        62.37098
781.26        62.37525
781.67        62.42221
782.09        62.42563
782.50        62.29409
782.91        62.76651
783.33        62.21238
783.74        62.18067
784.15        62.19642
784.57         62.1113
784.98        61.98407
785.39        62.14359
785.81          62.536
786.22        62.74857
786.63        62.74641
787.04        62.79705
787.46          62.908
787.87        62.90304
788.28        62.79013
788.70        62.70167
789.11        62.64246
789.52        62.48367
789.93        62.31134
790.35        62.47776
790.76        62.92097
791.17        63.08286
791.58        62.91951
792.00        62.88408
792.41        63.01061
792.82        62.83152
793.23        62.49426
793.65        62.75963
794.06        63.49656
794.47        63.75903
794.88        63.53579
795.29        63.35087
795.71        63.60253
796.12        63.43551
796.53        63.03553
796.94         63.0883
797.35         63.5181
797.76        63.49127
798.18        63.06241
798.59        62.96142
799.00        63.21904
799.41         63.4283
799.82        63.50333
800.23        63.50645
800.64        63.41502
801.06        63.19156
801.47        62.94936
801.88        62.80636
802.29        62.80503
802.70        62.93443
803.11        63.11127
803.52        63.18359
803.93        63.10757
804.34        62.91622
804.75        62.73602
805.17        62.72457
805.58        62.93412
805.99        63.40828
806.40        63.94672
806.81        63.91975
807.22        63.40172
807.63        63.14712
808.04        63.23284
808.45        63.20401
808.86        63.07718
809.27        63.18551
809.68        63.46334
810.09        63.60023
810.50        63.55223
810.91        63.41947
811.32        63.27069
811.73        63.22813
812.14        63.32679
812.55        63.46958
812.96         63.6247
813.37        63.84309
813.78        64.05244
814.19        64.05788
814.60        63.88093
815.01        63.74002
815.42        63.65887
815.83        63.50581
816.24        63.33737
816.65        63.32753
817.05         63.5056
817.46         63.7912
817.87        64.09527
818.28        64.23277
818.69        64.16341
819.10        63.93802
819.51        63.65602
819.92         63.5015
820.33        63.53539
820.74        63.69767
821.14         63.9056
821.55        64.06802
821.96        64.13263
822.37        64.13528
822.78        64.09805
823.19        64.05379
823.60        64.02332
824.00        64.01592
824.41        63.99023
824.82        63.96428
825.23        63.93946
825.64        63.91532
826.04        63.94025
826.45        64.05767
826.86        64.27207
827.27        64.56298
827.68        64.83351
828.08        64.95358
828.49        64.83109
828.90        64.54528
829.31        64.21439
829.72         64.0421
830.12        64.10722
830.53        64.31482
830.94         64.5924
831.35        64.78241
831.75        64.85007
832.16        64.80341
832.57        64.70172
832.97        64.61629
833.38         64.5713
833.79        64.54324
834.20        64.52722
834.60        64.51734
835.01        64.52043
835.42        64.54026
835.82        64.58647
836.23        64.60247
836.64        64.59799
837.04        64.59401
837.45        64.56455
837.86        64.55814
838.26        64.59651
838.67        64.67008
839.08        64.75458
839.48        64.79543
839.89        64.78238
840.29        64.71172
840.70        64.67037
841.11        64.79883
841.51         65.1298
841.92        65.59386
842.33        66.02105
842.73        66.12503
843.14        65.80544
843.54        65.17503
843.95        64.49248
844.35        64.19279
844.76        64.37006
845.17        64.89944
845.57        65.52287
845.98        65.77395
846.38        65.54965
846.79        64.97507
847.19        64.28461
847.60         63.8241
848.00        63.72117
848.41        63.82951
848.81         64.0546
849.22        64.17633
849.62        64.16273
850.03        64.08673
850.43        63.99437
850.84        63.86657
851.24        63.76648
851.65        63.62867
852.05        63.60446
852.46        63.88427
852.86        64.44885
853.27        65.19416
853.67        65.83662
854.07        66.16048
854.48        66.09938
854.88        65.77072
855.29        65.19902
855.69        64.63618
856.10        64.12804
856.50        63.70523
856.90         63.4127
857.31        63.32978
857.71         63.4982
858.12        63.86004
858.52         64.3176
858.92        64.57278
859.33          64.536
859.73        64.29063
860.13        63.94026
860.54        63.71525
860.94        63.72129
861.34        63.85982
861.75        64.02052
862.15         64.0967
862.55        64.02538
862.96        63.87681
863.36        63.68297
863.76        63.47839
864.17        63.28633
864.57        63.11015
864.97        62.99239
865.38        62.98864
865.78        63.14177
866.18        63.40664
866.58        63.69717
866.99        63.86692
867.39        63.88829
867.79        63.76999
868.19        63.56176
868.60        63.31125
869.00         63.0295
869.40        62.72847
869.80        62.44056
870.21        62.23889
870.61        62.21803
871.01         62.3197
871.41         62.4807
871.81        62.59887
872.22        62.62491
872.62        62.59352
873.02        62.55661
873.42        62.60648
873.82        62.75636
874.22        62.96696
874.63        63.16373
875.03         63.2271
875.43        63.15036
875.83         62.9838
876.23        62.80984
876.63        62.76665
877.03        62.88435
877.44        63.09101
877.84        63.34751
878.24        63.56313
878.64        63.68913
879.04         63.7575
879.44        63.71865
879.84          63.495
880.24        63.10055
880.64        62.56629
881.04        62.03829
881.44        61.77518
881.84        61.83974
882.24        62.15053
882.65        62.53834
883.05        62.79958
883.45        62.82274
883.85          62.699
884.25        62.47838
884.65        62.23263
885.05        62.00807
885.45         61.7787
885.85        61.63543
886.25        61.74315
886.65        62.11527
887.05        62.68768
887.45        63.29051
887.85         63.6631
888.25        63.73119
888.65        63.54736
889.04        63.19881
889.44        62.89531
889.84        62.68542
890.24        62.52296
890.64        62.35907
891.04        62.11552
891.44        61.79013
891.84        61.44969
892.24        61.15658
892.64        60.98682
893.04        60.96558
893.44        61.06569
893.83        61.28898
894.23        61.57344
894.63        61.90985
895.03        62.28473
895.43        62.65279
895.83        62.94429
896.23        63.13602
896.63        63.23573
897.02        63.26052
897.42        63.27971
897.82        63.30025
898.22        63.30633
898.62          63.305
899.01        63.31187
899.41        63.31462
899.81        63.33773
900.21        63.34488
900.61        63.27003
901.00        63.10098
901.40        62.87716
901.80        62.68093
902.20        62.65669
902.59        62.83234
902.99        63.13884
903.39        63.46638
903.79        63.62208
904.18        63.55886
904.58        63.35167
904.98        63.08344
905.38        62.87946
905.77        62.76489
906.17        62.69687
906.57        62.66727
906.96        62.68635
907.36         62.7229
907.76        62.80233
908.15        62.85762
908.55        62.70071
908.95        62.34805
909.34        61.85333
909.74        61.41434
910.14         61.2813
910.53         61.5125
910.93        62.00167
911.33         62.6283
911.72        63.17796
912.12        63.53029
912.52         63.7493
912.91         63.8193
913.31        63.74168
913.70        63.54688
914.10        63.22112
914.49        62.88613
914.89        62.73229
915.29        62.82019
915.68        63.08526
916.08        63.40915
916.47        63.58215
916.87        63.55781
917.26        63.38804
917.66        63.11576
918.05        62.77451
918.45        62.39637
918.84        62.00365
919.24         61.6562
919.64        61.53371
920.03        61.68997
920.42        62.08197
920.82        62.58824
921.21        63.00429
921.61        63.25012
922.00        63.34184
922.40        63.38461
922.79        63.63182
923.19        64.07925
923.58        64.67368
923.98        65.10464
924.37        64.97237
924.77        64.21499
925.16        62.96318
925.55        61.64019
925.95         60.9712
926.34        61.14966
926.74         61.9577
927.13        63.00781
927.52        63.57013
927.92        63.47808
928.31        62.94706
928.70        62.28646
929.10        61.96771
929.49        62.11248
929.89        62.52171
930.28         63.0642
930.67        63.42635
931.07        63.48343
931.46         63.3721
931.85         63.1348
932.24          62.853
932.64        62.57442
933.03        62.27076
933.42        62.00156
933.82        61.87044
934.21        61.90193
934.60        62.09851
934.99        62.37913
935.39        62.57316
935.78        62.65723
936.17        62.64861
936.56        62.64848
936.96         62.8208
937.35        63.22981
937.74        63.76708
938.13        64.26115
938.53        64.48455
938.92        64.39763
939.31        64.04733
939.70        63.59074
940.09        63.30299
940.49        63.24327
940.88        63.38337
941.27        63.54169
941.66        63.43494
942.05        63.01993
942.44        62.40977
942.84        61.82916
943.23        61.57353
943.62        61.74014
944.01         62.2026
944.40        62.77869
944.79        63.14592
945.18        63.18119
945.57        62.98392
945.97        62.57833
946.36          62.083
946.75        61.51909
947.14        60.85134
947.53        60.21208
947.92        59.84277
948.31        59.80895
948.70        60.08661
949.09        60.47027
949.48          60.609
949.87        60.43797
950.26        60.05985
950.65        59.71079
951.04        59.77812
951.43        60.33979
951.82        61.24641
952.21        62.24502
952.60        62.90625
952.99        63.06723
953.38         62.8294
953.77        62.34439
954.16        61.85081
954.55        61.43367
954.94        61.04264
955.33        60.61488
955.72        60.05235
956.11        59.35048
956.50        58.57848
956.89        57.89552
957.28        57.53902
957.66        57.60437
958.05        58.03342
958.44        58.62141
958.83        59.03799
959.22        59.18457
959.61        59.09425
960.00        58.99697
960.39        59.27836
960.78        59.99585
961.16         61.0492
961.55          62.005
961.94        62.21375
962.33        61.54384
962.72        60.26371
963.11        58.89252
963.49        58.18044
963.88        58.30836
964.27        59.07353
964.66        60.15908
965.04        60.99261
965.43        61.27976
965.82        61.21986
966.21        61.00696
966.60        60.95364
966.98        61.14226
967.37        61.40428
967.76          61.628
968.15        61.62114
968.53        61.35003
968.92        60.96415
969.31        60.53656
969.69        60.11971
970.08         59.7815
970.47        59.54742
970.86        59.64179
971.24        60.44592
971.63        61.86646
972.02        63.65278
972.40        65.47199
972.79        66.75755
973.17        67.47729
973.56        67.70104
973.95        67.48947
974.33        66.93376
974.72        66.12421
975.11        65.03786
975.49        63.85982
975.88        62.94433
976.26        62.40474
976.65        62.23993
977.04         62.2504
977.42        62.01263
977.81         61.3772
978.19        60.41467
978.58        59.53248
978.96        59.35083
979.35        59.99314
979.74        61.27457
980.12         62.6878
980.51        63.22187
980.89        62.74418
981.28         61.4278
981.66        59.88724
982.05        59.31379
982.43         60.0122
982.82        61.57846
983.20        63.35303
983.59        64.16296
983.97         63.8167
984.35        62.60568
984.74        61.05364
985.12        60.05685
985.51        59.92024
985.89        60.40294
986.28         61.1286
986.66        61.66059
987.04        61.83154
987.43        61.75666
987.81        61.66469
988.20        61.84592
988.58        62.39056
988.96        63.16137
989.35        63.75354
989.73        63.66018
990.12        62.73532
990.50        61.02934
990.88        59.07935
991.27        58.14692
991.65        58.64742
992.03        60.20206
992.42        61.82214
992.80          62.584
993.18        62.17329
993.56        60.81709
993.95        58.98158
994.33        57.69767
994.71        57.65744
995.10        58.33446
995.48        59.27356
995.86        59.82394
996.24        59.89603
996.63        59.70372
997.01        59.47039
997.39        59.56919
997.77        60.11965
998.15        60.88424
998.54        61.58788
998.92        61.97232
999.30        61.96046
999.68        61.67624
1000.06        61.19766
1000.45        60.61814
1000.83        60.09907
1001.21        59.60122
1001.59        59.26835
1001.97        59.27005
1002.35        59.66869
1002.73        60.56551
1003.12        61.71105
1003.50        62.32375
1003.88        62.22178
1004.26        61.48691
1004.64        60.83396
1005.02         61.2477
1005.40        62.82225
1005.78        65.33424
1006.16        67.76793
1006.54        68.28062
1006.92        66.43522
1007.30        62.80822
1007.69        58.94391
1008.07        57.32895
1008.45        58.64455
1008.83        62.01813
1009.21        65.94839
1009.59        68.29471
1009.97        68.47035
1010.35        66.96809
1010.73        64.38901
1011.11        62.37892
1011.49        61.88452
1011.86        62.49182
1012.24        63.54045
1012.62         64.3861
1013.00        64.82777
1013.38        65.21016
1013.76         65.5925
1014.14        65.96043
1014.52        66.34444
1014.90        66.63457
1015.28         66.9246
1015.66        67.47211
1016.04        68.25043
1016.41        69.18511
1016.79        69.81252
1017.17        69.83556
1017.55        69.21571
1017.93        68.17239
1018.31         66.8809
1018.69        65.54986
1019.06        64.34905
1019.44        63.28408
1019.82        62.63568
1020.20        62.98242
1020.58        64.29906
1020.95        66.07121
1021.33        67.85861
1021.71        69.12972
1022.09        69.75802
1022.46        69.95795
1022.84        69.38652
1023.22        67.25906
1023.60        63.43238
1023.97         57.6388
1024.35        51.57201
1024.73        48.80768
