SpectraSmart Spectrum 2.9.0.0
--------- Device Information -----------
Spectrum Name :  反射率_0
Saving Time :  2024/04/27 23:43:47
Spectro-Module Model Name : SE2030-DUVN
Spectro-Module Serial Number : OS361AC55029948
Wavelength Start : 200
Wavelength End : 1025
Wavelength Unit : Wavelength(nm)
Spectrum Unit : Reflectance(%)
-----------Spectrum Setting ------------
Integration Time : 20ms
Average : 10
Boxcar : 0
Background removal :  enabled
linearity correction :  enabled
SC :  disabled
Intensity correction :  disabled
DWT denoise :  enabled
savitzky-golay :  disabled
FFT :  disabled
Running average :  disabled
Kalman :  disabled
High pass :  disabled
---------------BEGIN--------------------
Wavelength(nm)             Reflectance(%)
200.29               0
200.75        74.63972
201.21        75.34473
201.67        72.85551
202.13        71.06603
202.58        70.02958
203.04        69.33056
203.50        69.07648
203.96        69.61621
204.42        70.82351
204.88        72.44939
205.34        74.26203
205.80         76.3658
206.26        78.85938
206.72        81.77795
207.18        84.71946
207.64        84.38682
208.10        79.95104
208.55        75.66994
209.01        71.10067
209.47         64.1248
209.93        51.10774
210.39        19.43473
210.85       -74.37939
211.31       -187.0454
211.77        -51.1866
212.23        38.23713
212.69        69.20687
213.14        77.17165
213.60        73.49738
214.06        59.61247
214.52        33.02283
214.98        12.04665
215.44         18.2898
215.90        35.31331
216.36        49.24417
216.81        55.42912
217.27        55.79042
217.73        53.54847
218.19        49.84422
218.65        45.92651
219.11        42.55669
219.57        39.16344
220.02         35.9873
220.48        35.39011
220.94        37.45432
221.40        41.13419
221.86        45.65351
222.32        50.28723
222.77        54.55084
223.23        58.17635
223.69        60.32964
224.15        59.98371
224.61         57.3107
225.06        52.62322
225.52        47.51838
225.98        44.95579
226.44        45.47398
226.90        47.38132
227.36        49.21352
227.81        49.80825
228.27        49.08873
228.73        47.39161
229.19        44.73182
229.65        41.35434
230.10        37.68792
230.56         34.2525
231.02        31.30759
231.48        29.18711
231.93         27.9348
232.39        27.54611
232.85        28.21281
233.31        30.18233
233.77        33.17674
234.22        36.89619
234.68        40.38585
235.14        42.60907
235.60        43.44137
236.05        43.07078
236.51        42.27308
236.97        42.61989
237.43        44.68604
237.88        48.12785
238.34         51.6956
238.80        54.56054
239.26        56.78893
239.71        58.88528
240.17         61.6576
240.63        65.94048
241.08        70.38996
241.54        72.92514
242.00        73.82973
242.46        74.18686
242.91        74.55936
243.37          74.707
243.83        75.50291
244.28         80.0687
244.74        88.48997
245.20        95.33846
245.66        97.44344
246.11         96.2643
246.57        92.61408
247.03        84.78706
247.48        72.09612
247.94        61.63145
248.40         62.3831
248.85        71.34046
249.31        82.14783
249.77        88.90916
250.22        91.44172
250.68        91.96084
251.14        91.73029
251.59         91.8459
252.05        92.63242
252.51        93.52688
252.96        93.70332
253.42         92.1431
253.88        88.83897
254.33        85.54522
254.79        83.42554
255.25        81.75522
255.70        80.17445
256.16        79.24295
256.62        79.15399
257.07        80.21216
257.53         82.2457
257.99        84.11159
258.44        84.92871
258.90        84.54329
259.35        82.72725
259.81        80.42541
260.27        77.77997
260.72         75.0477
261.18        72.81133
261.63        70.71341
262.09        68.98769
262.55        67.36885
263.00        65.73042
263.46        64.28246
263.91        62.99788
264.37        62.26414
264.83        61.95073
265.28        61.83363
265.74        61.71253
266.19        61.07166
266.65        59.94514
267.11        58.42693
267.56        56.71877
268.02        55.26077
268.47          54.122
268.93        53.21422
269.38        52.39239
269.84        51.46673
270.30        50.37418
270.75        49.18585
271.21        47.98667
271.66         46.8318
272.12        45.76953
272.57        44.74005
273.03        43.73409
273.48        42.65874
273.94        41.57141
274.39        40.46554
274.85        39.47595
275.31        38.69006
275.76        38.08198
276.22         37.6377
276.67        37.20312
277.13        36.67285
277.58        35.97771
278.04        35.22988
278.49        34.45188
278.95        33.80261
279.40        33.25627
279.86        32.81941
280.31        32.43788
280.77        32.16508
281.22        31.93925
281.68        31.79838
282.13        31.63801
282.59        31.37214
283.04        30.97251
283.50        30.49407
283.95        30.02735
284.41         29.7603
284.86        29.70934
285.32        29.84378
285.77        30.03299
286.22        30.12974
286.68        30.12203
287.13         30.0216
287.59        29.95226
288.04        30.02091
288.50         30.2703
288.95        30.60676
289.41        30.95659
289.86        31.15809
290.32        31.21423
290.77        31.19222
291.22        31.17624
291.68        31.27586
292.13        31.53332
292.59        31.95318
293.04         32.5651
293.50        33.43962
293.95        34.56028
294.40        35.90971
294.86        37.41084
295.31         38.9287
295.77        40.43184
296.22        41.92705
296.68         43.4454
297.13        45.01341
297.58        46.63431
298.04        48.28196
298.49        49.94502
298.95        51.66801
299.40        53.45827
299.85        55.33462
300.31        57.29698
300.76        59.26881
301.21        61.22777
301.67        63.19324
302.12        65.13095
302.58        67.09814
303.03         69.0619
303.48        71.02789
303.94        73.03185
304.39        75.03269
304.84        77.05461
305.30         79.1187
305.75        81.14677
306.20        83.12325
306.66        85.06037
307.11        86.90197
307.57        88.71425
308.02        90.46997
308.47        92.17542
308.93        93.82563
309.38        95.32817
309.83        96.65762
310.29        97.84374
310.74         98.8961
311.19        99.87937
311.65        100.8635
312.10        101.8368
312.55        102.7824
313.00        103.7165
313.46         104.674
313.91        105.6288
314.36        106.5813
314.82        107.4468
315.27        108.0803
315.72        108.4645
316.18        108.6746
316.63        108.8039
317.08        109.0444
317.53        109.4535
317.99         109.969
318.44        110.5684
318.89        111.1811
319.35        111.7646
319.80        112.3464
320.25        112.8649
320.70        113.2311
321.16         113.421
321.61        113.4656
322.06        113.4588
322.51        113.5756
322.97        113.8415
323.42        114.2564
323.87        114.6937
324.32        114.9595
324.78        114.9925
325.23        114.8984
325.68        114.7837
326.13        114.8543
326.59        115.1357
327.04        115.6093
327.49        116.1518
327.94        116.6007
328.39        116.9065
328.85        117.0913
329.30        117.2714
329.75        117.4703
330.20         117.718
330.66        117.9535
331.11        118.2777
331.56        118.7349
332.01         119.333
332.46        120.0543
332.92        120.7469
333.37        121.3106
333.82        121.6386
334.27        121.7714
334.72        121.8185
335.17        121.9722
335.63        122.2708
336.08        122.7374
336.53         123.272
336.98        123.7491
337.43        124.1363
337.88        124.4766
338.34        124.8324
338.79        125.3618
339.24        126.0633
339.69        126.8718
340.14         127.672
340.59        128.2886
341.05        128.6771
341.50        128.9067
341.95        129.0479
342.40        129.2304
342.85        129.5037
343.30        129.8269
343.75        130.2047
344.20        130.6418
344.66        131.1262
345.11        131.6564
345.56         132.157
346.01        132.4978
346.46        132.6574
346.91        132.6718
347.36        132.6486
347.81        132.7596
348.26        133.0404
348.72         133.438
349.17        133.8471
349.62        134.1244
350.07        134.2206
350.52        134.1746
350.97        134.0448
351.42        133.9225
351.87        133.8392
352.32        133.7762
352.77        133.6814
353.22         133.479
353.67        133.1532
354.13        132.7311
354.58        132.2727
355.03        131.9383
355.48        131.7404
355.93        131.6212
356.38        131.4197
356.83         130.884
357.28        129.9836
357.73        128.8331
358.18        127.6131
358.63        126.5983
359.08        125.8667
359.53        125.3334
359.98        124.9239
360.43         124.517
360.88        124.0534
361.33        123.5607
361.78         123.005
362.23        122.3241
362.68        121.5071
363.13          120.57
363.58        119.5744
364.03        118.5437
364.48        117.6538
364.93        116.7932
365.38        115.9454
365.83        115.0057
366.28        113.9615
366.73        112.8438
367.18        111.7669
367.63        110.9105
368.08        110.3074
368.53        109.9069
368.98        109.5425
369.43        108.9457
369.88        108.0575
370.33        106.9525
370.78        105.8218
371.23        104.9824
371.68        104.5028
372.13         104.273
372.58        104.0989
373.03        103.6667
373.48        102.8974
373.93        101.9078
374.38        100.8376
374.83        99.89895
375.28         99.1594
375.72        98.52749
376.17        98.00243
376.62        97.51524
377.07        97.03468
377.52        96.57354
377.97        96.08859
378.42        95.56079
378.87        94.99548
379.32        94.30663
379.77        93.50571
380.22        93.12114
380.67         92.3494
381.11        91.83183
381.56        91.32677
382.01        90.86495
382.46        90.44871
382.91        90.09881
383.36        89.78732
383.81        89.44196
384.26         89.0497
384.71         88.6172
385.15        88.18992
385.60        87.90565
386.05        87.75521
386.50         87.6917
386.95        87.60857
387.40        87.34985
387.85        86.89391
388.29        86.25207
388.74        85.62305
389.19        85.08415
389.64        84.64858
390.09        84.25811
390.54         83.8809
390.98        83.45277
391.43        83.03445
391.88         82.6618
392.33        82.29159
392.78        81.99075
393.23        81.79697
393.67        81.31892
394.12        80.73765
394.57        81.30053
395.02        81.56328
395.47        81.33173
395.91        80.35207
396.36        79.85027
396.81        79.90186
397.26        79.85189
397.71        79.64376
398.15         79.4455
398.60        79.32841
399.05        79.08543
399.50        78.78215
399.95         78.7524
400.39        78.88912
400.84        78.57739
401.29        77.90865
401.74         77.4453
402.18        77.31804
402.63        77.44461
403.08        77.69589
403.53        77.71413
403.97        77.44458
404.42        77.12901
404.87        76.83237
405.32        76.60339
405.76        76.45314
406.21        76.30197
406.66        76.17034
407.11        76.16813
407.55        76.22533
408.00        76.22231
408.45        76.09692
408.90        75.41597
409.34         74.4737
409.79        74.45634
410.24        75.20069
410.68        75.44228
411.13        75.09647
411.58        74.90421
412.03        74.92687
412.47        74.92206
412.92        74.86964
413.37        74.85035
413.81         74.8102
414.26        74.72826
414.71        74.58183
415.15        74.39422
415.60        74.18251
416.05        74.05154
416.49        74.03231
416.94        74.08325
417.39         74.1618
417.83        74.19644
418.28        74.15926
418.73        74.05837
419.17        73.93014
419.62        73.83916
420.07        73.81416
420.51        73.83454
420.96        73.86542
421.41        73.85946
421.85        73.78289
422.30         73.5349
422.74        73.21749
423.19        73.45621
423.64        74.09734
424.08        74.25097
424.53        73.81905
424.98        73.66016
425.42        73.84009
425.87        73.60654
426.31        73.09047
426.76        73.38149
427.21        74.30929
427.65        74.25523
428.10         73.2274
428.54          73.623
428.99        73.40475
429.44        73.72028
429.88         73.8301
430.33        73.55613
430.77        73.01721
431.22        73.12928
431.66        73.79018
432.11        73.96286
432.56        73.69691
433.00        73.79566
433.45        74.07328
433.89        74.14108
434.34        74.26742
434.78        73.01904
435.23        73.12215
435.67        73.37156
436.12        74.37329
436.57        74.46679
437.01         73.8027
437.46        73.59742
437.90        74.43563
438.35        74.38292
438.79         74.7432
439.24         74.6534
439.68        74.51947
440.13        74.29082
440.57        74.10155
441.02        74.29381
441.46        74.72386
441.91        74.88793
442.35        74.70313
442.80        74.75274
443.24        74.96482
443.69        74.93849
444.13        74.71753
444.58        74.66293
445.02        74.76994
445.47          74.939
445.91        75.09756
446.36        75.17847
446.80         75.1397
447.24        75.11852
447.69        74.90606
448.13        75.01283
448.58        75.29995
449.02        75.34927
449.47        75.19228
449.91        75.18259
450.36        75.34577
450.80        75.42868
451.25        75.44371
451.69        75.49664
452.13        75.57661
452.58         75.5968
453.02        75.52333
453.47        75.37633
453.91        75.15807
454.36        74.88327
454.80        74.56347
455.24         74.2969
455.69        74.14596
456.13        73.86497
456.58         73.5609
457.02        73.74269
457.46        74.13673
457.91        73.95987
458.35        73.50058
458.79        73.18301
459.24        73.12264
459.68        72.97736
460.13        72.80208
460.57        72.52068
461.01        72.47655
461.46        72.44083
461.90        72.33367
462.34        72.35409
462.79        72.75702
463.23         72.6427
463.68        72.19064
464.12        71.85098
464.56        71.75848
465.01        71.94305
465.45        72.13363
465.89        72.17504
466.34        72.06672
466.78        71.39474
467.22        70.34793
467.67        71.03699
468.11        71.12974
468.55        71.26166
468.99        70.77323
469.44        70.66614
469.88         70.9363
470.32        71.03369
470.77        70.92704
471.21        70.80035
471.65        70.65775
472.10        70.46925
472.54        70.24454
472.98        70.07512
473.42        69.99008
473.87        69.88511
474.31        69.75577
474.75        69.95249
475.20        70.30626
475.64        70.17487
476.08        69.69167
476.52         69.4751
476.97        69.49973
477.41         69.9179
477.85        70.14423
478.29        69.59018
478.74        69.64916
479.18        69.33366
479.62        69.43092
480.06         69.3737
480.50        69.26004
480.95        69.24718
481.39        69.26626
481.83        69.50137
482.27        68.96818
482.72        69.57235
483.16        69.21777
483.60        69.18214
484.04        69.33456
484.48        69.29394
484.93        69.28801
485.37        69.52614
485.81        69.44089
486.25        69.70379
486.69        70.10992
487.14        69.26617
487.58        69.20249
488.02        69.31287
488.46        69.01508
488.90        69.30605
489.34        68.99706
489.79        68.10882
490.23        68.72984
490.67        68.64756
491.11        68.54636
491.55        68.45435
491.99        68.39615
492.43        68.33865
492.88        68.25576
493.32        68.16952
493.76        68.08331
494.20        68.07383
494.64        68.15012
495.08        68.24261
495.52         68.3518
495.96        68.56251
496.41        68.71394
496.85        68.86022
497.29        67.97348
497.73        67.94756
498.17        68.36922
498.61         68.5107
499.05        68.28761
499.49        68.06466
499.93        67.96914
500.37        68.01237
500.82        68.10802
501.26        68.23952
501.70        68.47524
502.14        67.59296
502.58        68.07037
503.02        68.03013
503.46        67.91607
503.90        67.91724
504.34        67.94331
504.78        67.98215
505.22        67.98188
505.66        67.84963
506.10        67.63101
506.54        67.57249
506.98        67.70988
507.42        67.64181
507.86        67.86295
508.30        67.89761
508.74        67.88814
509.18        67.83416
509.62        67.76677
510.06        67.72607
510.50        67.71937
510.94        67.73624
511.38        67.76082
511.82        67.76929
512.26        67.75314
512.70        67.72459
513.14        67.69241
513.58        67.64304
514.02          67.577
514.46        67.54387
514.90        67.55874
515.34        67.40694
515.78        67.47842
516.22        67.45696
516.66        67.45912
517.10         67.4746
517.54        67.50123
517.98        67.53238
518.42        67.54803
518.86        67.52812
519.30        67.46924
519.74        67.37995
520.18        67.28357
520.62        67.21516
521.06        67.18697
521.50        67.19526
521.93         67.2275
522.37        67.24752
522.81        67.25143
523.25        67.24172
523.69        67.23789
524.13        67.27216
524.57        67.34367
525.01        67.43453
525.45        67.50483
525.89        67.49393
526.32        67.38973
526.76        67.23352
527.20          67.062
527.64        66.95123
528.08        66.92466
528.52        66.92807
528.96        66.95835
529.40        67.08163
529.83        67.24188
530.27        67.28773
530.71        67.21722
531.15        67.17783
531.59        67.17555
532.03        67.11852
532.46        67.01369
532.90         66.9416
533.34        66.90751
533.78        66.89571
534.22        66.89407
534.66         66.8817
535.09        66.84364
535.53        66.80534
535.97        66.76514
536.41        66.73351
536.85        66.71434
537.28        66.70936
537.72        66.70749
538.16        66.68382
538.60        66.64001
539.04        66.59142
539.47        66.53367
539.91         66.5528
540.35        66.64581
540.79        66.70535
541.22         66.6583
541.66         66.9325
542.10        66.66135
542.54        66.54964
542.97          66.394
543.41        66.33102
543.85        66.36279
544.29        66.46662
544.72        66.58041
545.16        66.61989
545.60        66.55434
546.04        66.41177
546.47        66.24172
546.91         66.1439
547.35        66.13535
547.79        66.16106
548.22        66.17474
548.66        66.19962
549.10        66.20223
549.53        66.15615
549.97        66.09389
550.41        66.09297
550.84        66.16103
551.28        66.25821
551.72        66.35161
552.15        66.39359
552.59        66.38635
553.03        66.33731
553.46        66.26456
553.90        66.19282
554.34        66.11259
554.77        66.10783
555.21         66.2076
555.65         65.9157
556.08        66.18482
556.52        65.98578
556.96        65.70992
557.39        65.67834
557.83        65.83889
558.27        66.17493
558.70        65.87985
559.14        65.80284
559.57         65.7428
560.01        65.79957
560.45        65.91293
560.88        65.86513
561.32        65.74419
561.75        65.69994
562.19        65.77059
562.63        65.94174
563.06        66.12016
563.50        66.01192
563.93        65.67508
564.37        65.58609
564.80         65.7321
565.24        65.83115
565.68        65.84946
566.11        65.90726
566.55         66.0187
566.98         66.0722
567.42         66.0755
567.85        66.12513
568.29        66.24594
568.72        66.10799
569.16        65.78362
569.60        65.97174
570.03        66.10104
570.47         65.9374
570.90        66.12081
571.34        66.32704
571.77         66.5341
572.21        66.16506
572.64        66.52853
573.08        66.24361
573.51         65.9777
573.95        66.15559
574.38        66.52859
574.82        66.71483
575.25        66.31023
575.69        66.19598
576.12        66.41513
576.56        66.12314
576.99        66.23254
577.42        66.29128
577.86        66.10459
578.29        66.58839
578.73        66.35285
579.16        66.39061
579.60        66.29171
580.03        66.20078
580.47         66.0267
580.90         66.2281
581.33        66.94348
581.77        66.18511
582.20        66.35922
582.64        66.56084
583.07        66.27584
583.51         66.1143
583.94        65.98476
584.37        65.98265
584.81        66.12711
585.24        66.25106
585.68        66.40279
586.11        66.25495
586.54        66.34469
586.98        66.16625
587.41        66.34612
587.85        65.92501
588.28        66.14417
588.71        66.04552
589.15        66.29478
589.58        65.69188
590.01        66.28836
590.45        65.91608
590.88        65.45733
591.31        65.30888
591.75        65.42358
592.18        65.84563
592.61         65.5061
593.05        65.52372
593.48        66.42857
593.91        66.21709
594.35        65.87907
594.78        66.09847
595.21        65.94243
595.65         65.8602
596.08        65.53458
596.51        65.82658
596.94        65.78408
597.38         65.8642
597.81        65.81774
598.24        65.49181
598.68        65.75035
599.11        65.34187
599.54        65.68924
599.97         66.0155
600.41        65.91421
600.84        65.97062
601.27        65.95896
601.70        65.64549
602.14        65.24998
602.57        65.35863
603.00        65.33192
603.43         65.4027
603.87        65.69946
604.30        65.46307
604.73        65.36499
605.16        65.62233
605.60        65.50204
606.03         65.6551
606.46        65.78805
606.89        65.63392
607.32        65.41511
607.76        65.97231
608.19         65.5231
608.62        65.59076
609.05        65.63947
609.48        65.56636
609.92         65.3522
610.35        65.47393
610.78         65.5043
611.21        65.25816
611.64        65.53731
612.07        65.38412
612.50        65.12852
612.94        65.05838
613.37        65.24402
613.80         65.2265
614.23        65.40325
614.66        65.48722
615.09        65.52866
615.52        65.48111
615.96        65.40816
616.39        64.91676
616.82         64.9185
617.25        64.98545
617.68         64.9324
618.11         64.9786
618.54        65.03608
618.97        65.21451
619.40        65.38827
619.84        65.73334
620.27        65.50028
620.70        65.29272
621.13        64.92167
621.56        65.00056
621.99        64.77416
622.42        64.74091
622.85        64.46188
623.28        64.95401
623.71        64.65108
624.14        64.55835
624.57        64.79285
625.00        65.18911
625.43        64.78378
625.86        64.69027
626.29        64.59637
626.72        64.80947
627.15        64.56633
627.58        64.66156
628.01        64.92284
628.44        64.66294
628.87         64.8074
629.30        65.00492
629.73        64.60624
630.16        64.30653
630.59        64.39627
631.02        64.47511
631.45        64.62458
631.88        64.75862
632.31        64.87986
632.74        64.70369
633.17        64.87766
633.60        64.86919
634.03        64.86779
634.46        64.85992
634.89        64.83851
635.32        64.77041
635.75        64.64899
636.18        64.52932
636.61         64.4257
637.04        64.28288
637.47        64.14695
637.89        64.19345
638.32        64.36485
638.75        64.45243
639.18        64.43116
639.61        64.40845
640.04        64.39833
640.47        64.39318
640.90        64.40142
641.33        64.39517
641.76        64.35275
642.18        64.40235
642.61        64.28517
643.04        64.21002
643.47        64.12808
643.90        64.08247
644.33        64.08028
644.76        64.11486
645.18        64.16084
645.61        64.16258
646.04        64.10896
646.47        64.00941
646.90        63.90417
647.33        63.85571
647.75        63.88424
648.18        63.98932
648.61        64.11005
649.04        64.15108
649.47        64.11021
649.89         63.9758
650.32        63.82899
650.75        63.95387
651.18        64.26951
651.61         64.3183
652.03        64.06112
652.46        63.89584
652.89        63.96418
653.32        63.94552
653.74        63.47377
654.17        64.43617
654.60        64.55374
655.03        63.73539
655.46        63.94367
655.88        64.50895
656.31        65.94805
656.74         67.4685
657.16        66.54975
657.59        66.19876
658.02        64.82758
658.45        64.97485
658.87        65.38099
659.30        64.37454
659.73        64.34207
660.15        64.03203
660.58        64.05207
661.01        64.29826
661.44        64.56081
661.86        64.43462
662.29        63.96468
662.72        63.76491
663.14         63.9012
663.57        64.05337
664.00        64.16109
664.42        64.22419
664.85        64.22668
665.27        64.18748
665.70         64.1282
666.13        64.07984
666.55        64.05605
666.98        64.03339
667.41        64.02705
667.83        64.06118
668.26        64.13004
668.69        64.24657
669.11        64.35649
669.54        64.38497
669.96        64.32879
670.39        64.12553
670.82        63.89231
671.24        63.97948
671.67        64.32944
672.09        64.51052
672.52        64.48512
672.94        64.42371
673.37        64.35854
673.80        64.27515
674.22        64.20411
674.65        64.10551
675.07        64.01382
675.50        63.98059
675.92        64.00175
676.35        64.01058
676.77        64.00327
677.20        64.00259
677.62        64.02322
678.05        64.06584
678.47        64.12792
678.90         64.2104
679.32        64.29518
679.75        64.35585
680.17         64.3828
680.60        64.41705
681.02        64.45618
681.45        64.35111
681.87         64.3567
682.30        64.21458
682.72        64.05885
683.15        64.13729
683.57        64.39999
684.00        64.41355
684.42        64.21183
684.85         64.2054
685.27        64.39539
685.70        64.55296
686.12        64.62702
686.54        64.67089
686.97        64.65605
687.39        64.57027
687.82        64.46981
688.24        64.32556
688.66        64.46732
689.09        64.59553
689.51        64.74806
689.94        64.79449
690.36        64.71927
690.78        64.55756
691.21        64.36596
691.63        64.23107
692.06        64.18447
692.48        64.19874
692.90         64.2476
693.33        64.27799
693.75        64.27866
694.17        64.27421
694.60        64.26223
695.02         64.2709
695.44        64.29618
695.87         64.3018
696.29         64.3065
696.71         64.3952
697.14        64.52778
697.56        64.59121
697.98        64.56116
698.41        64.55515
698.83        64.55437
699.25        64.50208
699.68        64.42041
700.10        64.43366
700.52        64.54437
700.94        64.72379
701.37        64.88627
701.79        64.92534
702.21        64.80177
702.64        64.56959
703.06        64.31665
703.48        64.19916
703.90        64.25656
704.33        64.43176
704.75        64.65554
705.17        64.79343
705.59        64.80617
706.01         64.7119
706.44        64.56339
706.86        64.57243
707.28        64.58627
707.70        64.68631
708.12        64.78548
708.55        64.87268
708.97        64.90149
709.39        64.79209
709.81        64.59877
710.23        64.51502
710.66        64.57077
711.08        64.69144
711.50         64.8056
711.92        64.85505
712.34        64.82171
712.76        64.72266
713.19        64.61034
713.61        64.61602
714.03        64.74431
714.45        64.95432
714.87        65.17362
715.29        65.29269
715.71        65.28466
716.13        65.18426
716.56        65.02696
716.98        64.94447
717.40         64.9506
717.82        65.01926
718.24        65.11996
718.66        65.20388
719.08        65.25264
719.50        65.27817
719.92        65.29745
720.34        65.33504
720.76        65.39314
721.19         65.4505
721.61        65.49003
722.03        65.45847
722.45        65.34981
722.87        65.18587
723.29        65.01487
723.71        64.91161
724.13        64.90081
724.55        64.96837
724.97        65.08123
725.39        65.18133
725.81        65.24828
726.23        65.29191
726.65        65.33535
727.07        65.41872
727.49        65.54427
727.91        65.68777
728.33        65.80743
728.75        65.83881
729.17        65.76935
729.59        65.62849
730.01        65.45414
730.43        65.30712
730.85        65.21079
731.27        65.14811
731.69        65.13171
732.10        65.17914
732.52        65.27145
732.94        65.45161
733.36        65.67249
733.78         65.7469
734.20        65.63094
734.62        65.81802
735.04        65.33218
735.46        65.51617
735.88        65.92255
736.30        65.77924
736.72         65.1749
737.13        64.93954
737.55        65.13147
737.97        65.42157
738.39        65.68871
738.81        65.74262
739.23        65.59325
739.65        65.59601
740.06        65.71636
740.48        65.69224
740.90        65.49744
741.32        65.37124
741.74        65.26263
742.16        65.25723
742.57        65.34651
742.99        65.51637
743.41        65.72192
743.83        65.87363
744.25        65.94364
744.67        65.94091
745.08        65.90732
745.50        65.87788
745.92        65.88489
746.34        65.92229
746.75        65.94905
747.17        65.91187
747.59        65.80261
748.01        65.58943
748.42        65.37341
748.84        65.38564
749.26        65.58395
749.68        65.78388
750.09        65.88969
750.51        65.70721
750.93        65.36195
751.35        65.41851
751.76        65.81256
752.18        65.90664
752.60        65.67616
753.01        65.51442
753.43         65.4602
753.85        65.42919
754.27        65.43848
754.68        65.51506
755.10        65.63812
755.52         65.7679
755.93        65.89231
756.35        66.01508
756.77        66.11877
757.18        66.22626
757.60         66.3425
758.02        66.34366
758.43        66.25389
758.85        66.43794
759.26        66.37502
759.68        66.36378
760.10        66.40767
760.51        65.48202
760.93        65.78285
761.34        65.97488
761.76        66.33955
762.18        66.56217
762.59        66.54637
763.01        66.30716
763.42        66.17991
763.84        66.10331
764.26        66.21242
764.67        66.59456
765.09        67.06509
765.50        67.01121
765.92        66.50584
766.33        66.10851
766.75         65.9347
767.16        65.87193
767.58        65.92216
768.00         66.4241
768.41        67.14997
768.83        67.21117
769.24         66.6894
769.66        66.40202
770.07        66.43029
770.49         66.5812
770.90        66.77863
771.32        66.77212
771.73        66.59121
772.15        66.54611
772.56         66.6461
772.97        66.70312
773.39        66.66985
773.80        66.53355
774.22         66.3486
774.63        66.46287
775.05        66.78534
775.46        66.91406
775.88        66.78186
776.29        66.65533
776.70        66.59454
777.12        66.59523
777.53        66.69939
777.95        66.89383
778.36        67.11852
778.77        67.25587
779.19        67.26826
779.60        67.18694
780.02        67.08286
780.43        67.04639
780.84        67.07185
781.26        67.28033
781.67        67.62167
782.09         67.4679
782.50        66.85533
782.91        67.37294
783.33        67.24834
783.74         67.4274
784.15        67.35237
784.57        67.32621
784.98        67.36124
785.39        67.47004
785.81        67.60654
786.22        67.52562
786.63        67.29809
787.04        67.27849
787.46        67.50078
787.87        67.77023
788.28        67.98049
788.70        68.06927
789.11        67.99799
789.52        67.69558
789.93        67.32318
790.35        67.37061
790.76        67.80428
791.17        67.98151
791.58        67.85283
792.00        67.87214
792.41        68.05447
792.82        68.01212
793.23        67.84359
793.65        68.00866
794.06        68.46861
794.47        68.80714
794.88        68.92865
795.29        68.78594
795.71        68.78872
796.12        68.37749
796.53        67.81785
796.94        67.71109
797.35        68.04071
797.76        68.13441
798.18        67.96392
798.59        67.98878
799.00        68.20144
799.41        68.30555
799.82        68.27885
800.23        68.25378
800.64        68.23362
801.06        68.15082
801.47        68.06613
801.88        68.00983
802.29        67.99879
802.70        68.04882
803.11        68.12005
803.52        68.13078
803.93        68.05954
804.34        67.92062
804.75        67.81033
805.17        67.82713
805.58        68.00793
805.99        68.44031
806.40        68.95282
806.81        68.88884
807.22         68.3658
807.63        68.28043
808.04         68.6392
808.45         68.7125
808.86        68.47483
809.27        68.38824
809.68        68.47649
810.09        68.53771
810.50        68.56438
810.91         68.6207
811.32        68.67832
811.73        68.69878
812.14         68.6752
812.55        68.56004
812.96        68.40186
813.37        68.40011
813.78        68.53062
814.19        68.54078
814.60        68.42187
815.01        68.35913
815.42        68.35693
815.83        68.29646
816.24        68.21721
816.65        68.25964
817.05        68.44447
817.46          68.688
817.87        68.94228
818.28        69.09115
818.69        69.10986
819.10        69.03522
819.51        68.92345
819.92         68.8756
820.33        68.92657
820.74        69.03905
821.14        69.17778
821.55        69.32669
821.96        69.45076
822.37         69.5604
822.78         69.6337
823.19         69.6283
823.60        69.53846
824.00        69.39587
824.41        69.19522
824.82        69.01653
825.23        68.88618
825.64        68.80078
826.04        68.78257
826.45        68.82514
826.86        68.92773
827.27        69.08383
827.68        69.25918
828.08        69.42549
828.49        69.49847
828.90        69.51558
829.31        69.48719
829.72        69.44089
830.12        69.41161
830.53        69.35333
830.94        69.28876
831.35        69.22237
831.75        69.17836
832.16        69.11863
832.57        69.07495
832.97        69.06247
833.38         69.0752
833.79        69.11396
834.20        69.15455
834.60        69.15469
835.01        69.12222
835.42        69.06615
835.82        69.03374
836.23        69.03634
836.64        69.10368
837.04        69.23375
837.45        69.37074
837.86         69.5177
838.26        69.67335
838.67        69.83191
839.08        69.96049
839.48         69.9899
839.89        69.91628
840.29         69.7547
840.70        69.60946
841.11         69.6509
841.51        69.92742
841.92        70.35819
842.33        70.81079
842.73        71.05526
843.14        70.98373
843.54        70.68755
843.95        70.32011
844.35        70.15044
844.76         70.2405
845.17        70.51883
845.57        70.84517
845.98        70.95125
846.38        70.79317
846.79        70.43132
847.19        70.03175
847.60        69.81526
848.00        69.86274
848.41        70.06586
848.81        70.32299
849.22        70.39796
849.62        70.26762
850.03        69.99274
850.43        69.68452
850.84         69.4315
851.24        69.32203
851.65        69.26904
852.05        69.34373
852.46        69.56433
852.86        69.89099
853.27        70.30728
853.67        70.63461
854.07        70.79988
854.48        70.75198
854.88        70.55264
855.29        70.18649
855.69        69.84135
856.10        69.50945
856.50        69.24622
856.90        69.03805
857.31        68.87989
857.71        68.81258
858.12        68.79195
858.52        68.85023
858.92        68.90511
859.33        68.91762
859.73        68.92949
860.13        68.90073
860.54        68.79597
860.94        68.64935
861.34        68.44069
861.75        68.20621
862.15        68.06852
862.55        68.02467
862.96        68.06906
863.36        68.12931
863.76        68.07117
864.17        67.86044
864.57        67.54738
864.97        67.24917
865.38        67.13172
865.78        67.27623
866.18        67.61829
866.58          67.993
866.99        68.12238
867.39        67.95972
867.79        67.55542
868.19        67.11209
868.60         66.9007
869.00        66.96457
869.40        67.24964
869.80        67.58242
870.21        67.64944
870.61         67.4454
871.01        67.04872
871.41        66.63132
871.81        66.42374
872.22        66.45817
872.62         66.6757
873.02        67.03937
873.42        67.46003
873.82        67.86379
874.22        68.26973
874.63        68.60643
875.03         68.7544
875.43        68.71788
875.83        68.51056
876.23         68.2646
876.63         68.2185
877.03        68.41728
877.44        68.77498
877.84        69.13683
878.24        69.21215
878.64        68.93233
879.04        68.41533
879.44        67.80319
879.84        67.27434
880.24        66.89426
880.64        66.63993
881.04        66.48906
881.44        66.40957
881.84        66.38266
882.24        66.38748
882.65        66.47142
883.05        66.79889
883.45        67.31309
883.85         67.9541
884.25        68.45293
884.65        68.42502
885.05        67.83057
885.45        66.78943
885.85        65.68253
886.25        65.17627
886.65         65.4427
887.05        66.27956
887.45        67.28616
887.85        67.83778
888.25        67.77158
888.65         67.2708
889.04        66.58733
889.44        66.18803
889.84        66.18884
890.24        66.42975
890.64        66.73219
891.04        66.83286
891.44        66.66216
891.84        66.33636
892.24        65.96548
892.64        65.69856
893.04        65.59035
893.44        65.59522
893.83        65.69813
894.23        65.81367
894.63        65.94099
895.03        66.09698
895.43        66.29042
895.83        66.52763
896.23        66.79432
896.63        67.05978
897.02        67.28374
897.42        67.45502
897.82        67.55685
898.22        67.60195
898.62         67.5966
899.01        67.56271
899.41        67.49527
899.81        67.40367
900.21        67.31604
900.61        67.27329
901.00        67.27965
901.40        67.35789
901.80        67.46086
902.20        67.52036
902.59        67.53374
902.99        67.50008
903.39        67.49126
903.79        67.61371
904.18        67.87028
904.58        68.21175
904.98        68.53518
905.38        68.70212
905.77        68.67012
906.17        68.47974
906.57        68.19722
906.96        67.96021
907.36        67.79733
907.76        67.70827
908.15        67.63582
908.55        67.40916
908.95         67.0425
909.34        66.58443
909.74        66.22819
910.14        66.20316
910.53        66.54855
910.93         67.1586
911.33        67.83897
911.72        68.25987
912.12        68.30872
912.52         68.1096
912.91        67.78778
913.31        67.55057
913.70        67.45407
914.10        67.41232
914.49         67.4516
914.89        67.56772
915.29        67.75303
915.68        68.01684
916.08        68.24886
916.47        68.25623
916.87        68.03265
917.26        67.62137
917.66        67.19664
918.05        67.00554
918.45        67.09637
918.84         67.4123
919.24        67.80505
919.64        68.10529
920.03        68.26608
920.42        68.33704
920.82        68.35137
921.21        68.35263
921.61        68.34885
922.00        68.31303
922.40        68.29884
922.79        68.47606
923.19        68.82333
923.58        69.33492
923.98        69.77273
924.37        69.83237
924.77        69.45006
925.16        68.69211
925.55        67.85372
925.95        67.44949
926.34        67.60921
926.74         68.1783
927.13        68.85336
927.52        69.04165
927.92        68.64811
928.31        67.87428
928.70        67.06131
929.10        66.71908
929.49         66.9697
929.89        67.60287
930.28        68.44909
930.67        69.10368
931.07        69.38544
931.46        69.42221
931.85        69.23291
932.24        68.88226
932.64        68.43266
933.03        67.88249
933.42        67.32523
933.82        66.91962
934.21        66.72376
934.60         66.7329
934.99        66.92397
935.39        67.20975
935.78        67.56734
936.17        67.97984
936.56        68.40137
936.96        68.74522
937.35        69.01673
937.74        69.18536
938.13         69.2328
938.53         69.1574
938.92         68.9822
939.31        68.70248
939.70        68.41495
940.09        68.28445
940.49        68.32505
940.88        68.53603
941.27        68.77517
941.66        68.81461
942.05        68.62083
942.44        68.28669
942.84          67.957
943.23        67.81187
943.62        67.92639
944.01        68.20193
944.40        68.58728
944.79         68.9903
945.18        69.32878
945.57        69.61197
945.97        69.68389
946.36         69.3897
946.75        68.69636
947.14        67.66318
947.53        66.54239
947.92        65.78918
948.31        65.55752
948.70        65.76177
949.09        66.17623
949.48        66.41785
949.87        66.38303
950.26        66.17397
950.65        65.96342
951.04        66.03074
951.43        66.42694
951.82        67.02698
952.21        67.62028
952.60         67.8687
952.99        67.67447
953.38        67.15495
953.77        66.49641
954.16        65.97273
954.55         65.6687
954.94        65.51554
955.33        65.42767
955.72        65.26754
956.11        64.98342
956.50        64.61042
956.89        64.22905
957.28        63.95734
957.66         63.8658
958.05          63.943
958.44        64.04201
958.83        63.93134
959.22        63.57258
959.61        62.99068
960.00        62.51699
960.39        62.67603
960.78         63.5379
961.16        64.98354
961.55        66.37801
961.94        66.71732
962.33        65.78188
962.72        63.93087
963.11        61.94559
963.49        60.97223
963.88        61.27865
964.27        62.56503
964.66        64.26572
965.04        65.36146
965.43         65.4249
965.82        64.78387
966.21         63.9419
966.60        63.67501
966.98         64.1688
967.37        65.13628
967.76        66.14008
968.15        66.37794
968.53         65.6572
968.92        64.34169
969.31        62.92759
969.69        62.10824
970.08        62.07849
970.47        62.61064
970.86        63.63256
971.24        65.00575
971.63        66.45878
972.02        67.96936
972.40        69.25124
972.79        69.77565
973.17        69.58961
973.56         68.7424
973.95         67.6138
974.33          66.884
974.72        66.77767
975.11         67.1261
975.49        67.64444
975.88        67.85507
976.26        67.61563
976.65        67.09352
977.04        66.42399
977.42        65.81268
977.81         65.3044
978.19        64.76352
978.58        64.38462
978.96        64.43542
979.35         64.9172
979.74        65.82498
980.12        66.73918
980.51        66.74377
980.89        65.76743
981.28        63.92511
981.66        61.96412
982.05        61.31484
982.43        62.33605
982.82        64.59622
983.20        67.15141
983.59        68.37949
983.97        68.00726
984.35        66.41991
984.74        64.48816
985.12        63.73391
985.51        64.55518
985.89        66.42217
986.28        68.49557
986.66         69.6931
987.04        69.72189
987.43        68.90981
987.81         67.7522
988.20        66.99891
988.58        66.95483
988.96        67.39268
989.35         67.8282
989.73        67.61921
990.12        66.54389
990.50        64.68305
990.88        62.66721
991.27        61.89558
991.65        62.79606
992.03        64.92469
992.42        66.95846
992.80        67.55984
993.18        66.37327
993.56         63.6194
993.95        60.28744
994.33        58.77276
994.71        60.12311
995.10        63.13217
995.48        66.23234
995.86        67.73473
996.24        67.48444
996.63         65.9114
997.01        63.71278
997.39        62.40154
997.77        62.67702
998.15        64.08125
998.54        65.66066
998.92        66.14152
999.30        65.26123
999.68        63.43311
1000.06        61.53755
1000.45        61.09883
1000.83        62.55998
1001.21        65.25306
1001.59        68.13109
1001.97        69.73066
1002.35        69.70615
1002.73        68.50741
1003.12        66.59403
1003.50        64.88299
1003.88        63.96886
1004.26        63.50537
1004.64        63.55602
1005.02        64.21054
1005.40        65.36246
1005.78        67.10625
1006.16        68.77606
1006.54        69.08777
1006.92        67.76823
1007.30        65.16125
1007.69         62.4129
1008.07        61.38647
1008.45        62.60647
1008.83        65.42213
1009.21        68.72286
1009.59         70.9507
1009.97        71.67193
1010.35        71.21994
1010.73        69.99368
1011.11          69.033
1011.49        68.89697
1011.86         69.3535
1012.24        69.80258
1012.62        69.67569
1013.00        68.91796
1013.38        67.90285
1013.76        67.07887
1014.14        67.11082
1014.52        68.19196
1014.90         70.0459
1015.28        72.39687
1015.66        74.64515
1016.04        76.34574
1016.41        77.60562
1016.79        77.98734
1017.17        77.31817
1017.55        75.70228
1017.93        73.29227
1018.31        70.69884
1018.69        68.84753
1019.06        68.06758
1019.44        68.30653
1019.82        69.25205
1020.20        70.12906
1020.58        70.54703
1020.95        70.51994
1021.33         70.4703
1021.71        70.97263
1022.09        72.05511
1022.46        73.50037
1022.84         74.6068
1023.22        73.96483
1023.60        71.16255
1023.97        66.22981
1024.35        60.59742
1024.73        57.35765
