SpectraSmart Spectrum 2.9.0.0
--------- Device Information -----------
Spectrum Name :  反射率_0
Saving Time :  2024/04/27 23:37:15
Spectro-Module Model Name : SE2030-DUVN
Spectro-Module Serial Number : OS361AC55029948
Wavelength Start : 200
Wavelength End : 1025
Wavelength Unit : Wavelength(nm)
Spectrum Unit : Reflectance(%)
-----------Spectrum Setting ------------
Integration Time : 20ms
Average : 10
Boxcar : 0
Background removal :  enabled
linearity correction :  enabled
SC :  disabled
Intensity correction :  disabled
DWT denoise :  enabled
savitzky-golay :  disabled
FFT :  disabled
Running average :  disabled
Kalman :  disabled
High pass :  disabled
---------------BEGIN--------------------
Wavelength(nm)             Reflectance(%)
200.29               0
200.75        53.11113
201.21        58.58983
201.67        63.22146
202.13        62.22615
202.58        56.99988
203.04        50.28244
203.50        45.76797
203.96        48.35293
204.42        56.88939
204.88         67.5274
205.34        76.86308
205.80        82.68185
206.26        85.16027
206.72        84.72375
207.18        80.70788
207.64        74.61007
208.10        70.58739
208.55        69.89833
209.01        68.68814
209.47        63.96642
209.93        52.85273
210.39        24.61862
210.85       -59.11586
211.31       -155.8906
211.77        -31.5815
212.23        47.49254
212.69        74.16238
213.14        80.31934
213.60        75.68282
214.06        61.19287
214.52        33.92391
214.98        11.65536
215.44        16.60233
215.90        32.66031
216.36          46.629
216.81        54.21307
217.27        56.99311
217.73        58.06669
218.19        57.28361
218.65        53.54877
219.11        46.91854
219.57        37.09552
220.02        26.28669
220.48        22.13362
220.94        26.50623
221.40        35.92926
221.86        46.37838
222.32        53.90004
222.77        58.06431
223.23         60.2275
223.69        60.42091
224.15        58.38967
224.61        54.44679
225.06        48.39941
225.52        42.37581
225.98        40.38174
226.44        42.62806
226.90        46.69822
227.36        50.07388
227.81        50.71609
228.27         48.7103
228.73        44.72417
229.19        39.47743
229.65        34.75525
230.10        31.54066
230.56        29.78888
231.02        28.93742
231.48        28.22281
231.93        27.39068
232.39          26.748
232.85        26.78422
233.31        28.11659
233.77        30.62514
234.22        33.99306
234.68        37.05578
235.14        38.49382
235.60         38.1283
236.05        36.08696
236.51        33.76638
236.97        34.11089
237.43        38.06182
237.88        44.79165
238.34        51.54214
238.80        55.53541
239.26        56.20823
239.71        53.43465
240.17        47.53144
240.63         44.5791
241.08         49.5968
241.54        57.84983
242.00        64.41069
242.46        67.65002
242.91        68.42233
243.37        67.06582
243.83        62.45308
244.28         54.8082
244.74        50.98571
245.20        53.34443
245.66        56.37278
246.11        56.02185
246.57        52.04628
247.03         44.8649
247.48        35.03696
247.94        31.43284
248.40        40.97081
248.85        56.45465
249.31        71.07863
249.77         80.4581
250.22         84.8887
250.68        86.44491
251.14        86.11885
251.59         84.5382
252.05        81.79517
252.51        76.76314
252.96        69.32046
253.42        63.75456
253.88        63.09932
254.33        66.17118
254.79        69.25345
255.25        69.04156
255.70        66.18205
256.16        62.69952
256.62        60.38258
257.07        61.14154
257.53        64.28348
257.99        67.66916
258.44        69.69346
258.90         69.4796
259.35        67.07929
259.81        63.85365
260.27        60.31435
260.72        57.09706
261.18        54.74123
261.63         52.7782
262.09        51.30682
262.55        50.07286
263.00        48.91352
263.46        47.96259
263.91        47.13613
264.37         46.6305
264.83        46.33028
265.28        46.11142
265.74        45.81291
266.19        45.04859
266.65        43.86838
267.11        42.36582
267.56        40.77832
268.02         39.5828
268.47        38.84439
268.93        38.43156
269.38        38.15498
269.84        37.73265
270.30        37.07493
270.75        36.28751
271.21        35.40866
271.66        34.44831
272.12        33.46416
272.57         32.4085
273.03        31.42437
273.48        30.66994
273.94        30.20064
274.39        29.91828
274.85        29.69425
275.31        29.26767
275.76        28.58182
276.22        27.75635
276.67        26.87893
277.13        26.15489
277.58        25.59103
278.04        25.16973
278.49        24.78897
278.95        24.40031
279.40        23.94293
279.86        23.49001
280.31        23.06293
280.77        22.78846
281.22        22.64185
281.68        22.61504
282.13        22.59274
282.59        22.45172
283.04        22.16969
283.50        21.80319
283.95        21.46594
284.41         21.3579
284.86        21.49416
285.32        21.81347
285.77         22.1628
286.22        22.35113
286.68        22.35821
287.13        22.22065
287.59        22.07246
288.04        22.04896
288.50         22.2036
288.95        22.45025
289.41        22.72537
289.86        22.89477
290.32        22.95475
290.77        22.96496
291.22        22.98571
291.68        23.09368
292.13        23.31902
292.59        23.66085
293.04        24.14559
293.50        24.83488
293.95        25.71948
294.40        26.79164
294.86        27.98358
295.31        29.17717
295.77        30.35305
296.22        31.52516
296.68        32.75483
297.13        34.11348
297.58        35.61344
298.04        37.21635
298.49        38.86749
298.95        40.52884
299.40        42.19322
299.85        43.88734
300.31        45.66114
300.76        47.52755
301.21        49.47589
301.67        51.48739
302.12        53.46357
302.58        55.34661
303.03        57.10003
303.48        58.77156
303.94        60.46682
304.39        62.26412
304.84        64.20498
305.30        66.26231
305.75        68.32023
306.20         70.2886
306.66        72.15472
307.11        73.89513
307.57         75.5746
308.02        77.17803
308.47        78.72108
308.93        80.19355
309.38        81.53608
309.83        82.75922
310.29        83.89288
310.74        84.93362
311.19        85.91669
311.65        86.86591
312.10        87.75883
312.55        88.59642
313.00        89.39732
313.46        90.19783
313.91        90.98744
314.36        91.77018
314.82        92.49197
315.27        93.06015
315.72         93.4579
316.18        93.72356
316.63        93.92006
317.08        94.18761
317.53        94.55875
317.99        94.98876
318.44        95.41718
318.89        95.71696
319.35        95.86093
319.80        95.91117
320.25        95.92427
320.70        95.99482
321.16        96.14552
321.61        96.36018
322.06        96.62905
322.51        96.94829
322.97        97.28329
323.42        97.66002
323.87        98.01007
324.32         98.2399
324.78        98.31635
325.23        98.30115
325.68        98.23547
326.13        98.22211
326.59        98.27412
327.04        98.41119
327.49        98.61104
327.94        98.86433
328.39        99.15854
328.85        99.47329
329.30        99.82337
329.75        100.0836
330.20        100.2329
330.66        100.2659
331.11         100.314
331.56        100.4874
332.01        100.8261
332.46         101.291
332.92        101.7789
333.37        102.2485
333.82        102.6096
334.27        102.8844
334.72        103.0982
335.17        103.2968
335.63        103.4803
336.08        103.6955
336.53        103.9078
336.98        104.1032
337.43        104.2906
337.88        104.4878
338.34        104.7391
338.79        105.1574
339.24         105.735
339.69        106.4307
340.14        107.1463
340.59        107.7239
341.05        108.1217
341.50        108.3921
341.95        108.5869
342.40        108.8137
342.85        109.1064
343.30        109.4162
343.75         109.753
344.20        110.1317
344.66        110.5458
345.11        111.0058
345.56        111.4134
346.01        111.5995
346.46        111.5555
346.91        111.3435
347.36         111.152
347.81        111.2769
348.26        111.7605
348.72        112.4856
349.17        113.2516
349.62        113.7574
350.07        113.9073
350.52        113.7945
350.97        113.4938
351.42        113.1299
351.87        112.7711
352.32        112.3911
352.77        112.0362
353.22        111.7825
353.67        111.6316
354.13        111.5759
354.58        111.5252
355.03        111.3819
355.48        111.1103
355.93        110.7404
356.38        110.2677
356.83        109.6934
357.28        109.0374
357.73        108.3053
358.18        107.5775
358.63        106.9758
359.08        106.5249
359.53        106.2029
359.98        105.9086
360.43        105.4778
360.88        104.8663
361.33        104.1004
361.78        103.2932
362.23        102.6338
362.68        102.1546
363.13        101.7963
363.58        101.3949
364.03        100.6865
364.48        99.64451
364.93        98.37858
365.38         97.0857
365.83        96.06828
366.28        95.39697
366.73        94.96121
367.18        94.64328
367.63        94.25104
368.08        93.71536
368.53         93.1073
368.98        92.41419
369.43        91.61192
369.88        90.72398
370.33        89.74963
370.78        88.81326
371.23        88.12921
371.68        87.73119
372.13        87.55177
372.58        87.43166
373.03        87.10038
373.48        86.48521
373.93        85.67272
374.38        84.76151
374.83        83.90964
375.28        83.17545
375.72        82.49448
376.17         81.8995
376.62        81.37816
377.07        80.91469
377.52        80.50848
377.97        80.11803
378.42        79.67101
378.87        79.15192
379.32        78.58304
379.77        77.98249
380.22        77.37866
380.67        76.78456
381.11        76.19736
381.56        75.64115
382.01        75.16685
382.46        74.79195
382.91        74.51313
383.36        74.28701
383.81        74.03752
384.26        73.74268
384.71        73.41548
385.15        73.08065
385.60        72.83617
386.05         72.6738
386.50        72.55819
386.95        72.43269
387.40         72.2188
387.85        71.90396
388.29        71.47957
388.74        71.07016
389.19         70.6797
389.64        70.31266
390.09        69.94658
390.54        69.58075
390.98        69.20284
391.43        68.86216
391.88        68.56427
392.33        68.27579
392.78         68.0056
393.23        67.77364
393.67        67.42307
394.12        67.04358
394.57        67.24353
395.02        66.98055
395.47        66.88991
395.91        66.68613
396.36        66.54565
396.81        66.48012
397.26        66.41628
397.71        66.33839
398.15        66.22314
398.60        66.13104
399.05        65.95055
399.50        65.74242
399.95        65.69463
400.39        65.75043
400.84        65.65597
401.29        65.38505
401.74        64.89178
402.18        64.33202
402.63        64.18684
403.08        64.40153
403.53        64.36117
403.97        64.04028
404.42        63.84668
404.87        63.78379
405.32        63.74385
405.76        63.72175
406.21        63.58488
406.66        63.40269
407.11        63.62933
407.55        64.11265
408.00        64.05239
408.45         63.4783
408.90        62.89932
409.34        62.52985
409.79        62.64208
410.24        63.10038
410.68        63.28976
411.13        63.14791
411.58        63.07956
412.03        63.12784
412.47        63.16375
412.92        63.17138
413.37        63.20296
413.81        63.22987
414.26        63.25887
414.71        63.27591
415.15        63.29946
415.60        63.32283
416.05        63.38659
416.49        63.50377
416.94        63.65484
417.39        63.82249
417.83        63.98101
418.28        64.11433
418.73        64.20687
419.17        64.28989
419.62        64.41943
420.07        64.61262
420.51        64.85807
420.96        65.07681
421.41         65.1634
421.85        65.09156
422.30        64.76569
422.74        64.37716
423.19        64.70382
423.64        65.60434
424.08        66.06575
424.53        65.92353
424.98         65.9968
425.42        66.31628
425.87        66.15544
426.31        65.68874
426.76        65.91065
427.21        66.68095
427.65        66.79307
428.10        66.32192
428.54        66.31487
428.99        66.81657
429.44        67.39359
429.88        67.83665
430.33        67.75557
430.77        67.27047
431.22        67.25293
431.66        67.71651
432.11        68.06487
432.56        68.32499
433.00        68.78959
433.45        69.14015
433.89         69.3849
434.34        69.63026
434.78        68.25146
435.23        67.92683
435.67        68.89971
436.12        70.07349
436.57        70.40293
437.01        69.65821
437.46        69.36289
437.90        69.97392
438.35        71.26305
438.79        70.90664
439.24        71.07962
439.68         71.1311
440.13        70.96832
440.57        70.75059
441.02        71.13811
441.46        71.93355
441.91        72.09953
442.35        71.67127
442.80        71.70554
443.24        72.50286
443.69        72.62827
444.13         72.1466
444.58        72.72507
445.02         72.6376
445.47         72.9908
445.91         73.1981
446.36        73.37393
446.80         73.4838
447.24        73.46943
447.69        73.44358
448.13        73.68276
448.58        74.12502
449.02        74.30317
449.47        74.23462
449.91         74.2801
450.36        74.46654
450.80        74.54278
451.25        74.53788
451.69        74.59781
452.13        74.71509
452.58         74.7776
453.02        74.78162
453.47        74.76098
453.91        74.70641
454.36        74.73531
454.80        74.75395
455.24        74.41729
455.69        73.87294
456.13        73.54223
456.58        73.44624
457.02        73.62435
457.46        74.42585
457.91        74.32948
458.35         73.8548
458.79        73.63406
459.24         73.7869
459.68        73.74717
460.13        73.49866
460.57        73.20355
461.01        73.26085
461.46        72.84986
461.90        72.30981
462.34        73.02921
462.79        72.57304
463.23         72.6682
463.68        72.58165
464.12        72.61726
464.56        72.74807
465.01        72.86416
465.45         72.8325
465.89        72.78603
466.34        72.77216
466.78        72.38726
467.22        71.67585
467.67        72.30408
468.11        71.89059
468.55         71.9925
468.99        71.88027
469.44        71.84865
469.88        71.87776
470.32        71.82944
470.77        71.73177
471.21        71.66206
471.65         71.6312
472.10        71.62659
472.54        71.60271
472.98        71.58554
473.42        71.59801
473.87        71.46696
474.31        71.19852
474.75        71.39551
475.20        71.95135
475.64        71.33711
476.08        71.06433
476.52        70.76094
476.97        70.84275
477.41        70.96828
477.85        71.26916
478.29        70.81299
478.74        71.60567
479.18        71.16164
479.62        71.15801
480.06        71.01914
480.50        71.05962
480.95        71.20035
481.39        71.37257
481.83        71.04054
482.27         71.3435
482.72        70.97831
483.16        70.92523
483.60        70.76527
484.04        70.64651
484.48        70.76723
484.93        71.23615
485.37        70.73138
485.81        71.05751
486.25        71.43925
486.69        71.24158
487.14        70.90039
487.58        71.13575
488.02        71.32703
488.46        71.27991
488.90         71.2589
489.34        71.13094
489.79        70.11923
490.23        71.26118
490.67        71.04647
491.11        70.48627
491.55        70.30598
491.99        70.52924
492.43        70.59023
492.88        70.43539
493.32        70.38725
493.76        70.45126
494.20          70.568
494.64        70.74206
495.08        70.93086
495.52        71.09902
495.96        71.28674
496.41        71.42779
496.85        71.30424
497.29        70.97635
497.73        70.85306
498.17        70.85534
498.61        70.95129
499.05        71.03303
499.49        71.00728
499.93        70.90115
500.37        70.78008
500.82        70.62628
501.26        70.58961
501.70        70.80772
502.14         70.0827
502.58        70.71702
503.02        70.79728
503.46        70.71645
503.90        70.48944
504.34        70.55367
504.78        70.58125
505.22        70.67649
505.66        70.70744
506.10        70.66942
506.54         70.6693
506.98        70.70603
507.42        70.52051
507.86        70.71358
508.30        70.33855
508.74        70.50542
509.18        70.43559
509.62        70.41917
510.06         70.4423
510.50        70.50156
510.94        70.58847
511.38        70.66154
511.82        70.67921
512.26        70.63018
512.70        70.53268
513.14        70.42672
513.58        70.35149
514.02        70.32127
514.46        70.37335
514.90        70.49988
515.34        70.43603
515.78        70.57441
516.22        70.59386
516.66        70.62424
517.10        70.66891
517.54        70.72943
517.98        70.79207
518.42        70.83085
518.86        70.81811
519.30         70.7521
519.74        70.65099
520.18        70.54626
520.62        70.48425
521.06        70.47971
521.50        70.52062
521.93        70.59828
522.37        70.68232
522.81          70.763
523.25         70.8387
523.69        70.90069
524.13        70.93594
524.57        70.94309
525.01        70.92828
525.45        70.89139
525.89        70.83455
526.32        70.75956
526.76        70.68219
527.20        70.62679
527.64        70.63888
528.08        70.72036
528.52        70.85051
528.96        70.98391
529.40        71.04889
529.83        71.02148
530.27        70.93776
530.71        70.81675
531.15         70.7005
531.59         70.6069
532.03        70.52529
532.46        70.45752
532.90        70.42918
533.34         70.4335
533.78        70.46653
534.22        70.50513
534.66        70.51037
535.09        70.46595
535.53        70.40423
535.97        70.32914
536.41        70.26612
536.85          70.224
537.28        70.19522
537.72        70.18517
538.16        70.19278
538.60        70.21591
539.04         70.2683
539.47        70.30688
539.91        70.30612
540.35        70.24451
540.79        70.14367
541.22        70.01814
541.66        69.93537
542.10        69.91259
542.54        69.87646
542.97        69.79478
543.41        69.97112
543.85        69.88447
544.29        69.94799
544.72        69.99246
545.16        70.03396
545.60        70.04998
546.04        70.03725
546.47        70.02283
546.91        70.03094
547.35         70.0607
547.79        70.15873
548.22        70.24424
548.66        70.13459
549.10        69.86587
549.53        69.74247
549.97        69.79688
550.41        69.82545
550.84        69.81774
551.28        69.95175
551.72        70.18407
552.15        70.23055
552.59        70.05759
553.03        70.22816
553.46        69.87696
553.90        69.85307
554.34         69.8946
554.77        70.01199
555.21        70.13942
555.65        70.14674
556.08         70.0752
556.52        69.92875
556.96        69.73465
557.39        69.80118
557.83        70.07176
558.27         70.1494
558.70         70.0221
559.14        69.98135
559.57        70.01501
560.01        70.01028
560.45        69.94672
560.88         69.8354
561.32        69.77476
561.75        69.76981
562.19        69.85019
562.63        70.10387
563.06        70.37436
563.50        70.26176
563.93        69.83286
564.37        69.69201
564.80        69.83881
565.24        69.95163
565.68        69.99916
566.11        70.07429
566.55        70.18298
566.98        70.31336
567.42        70.42692
567.85        70.34903
568.29        70.20762
568.72        70.08772
569.16        70.01052
569.60        70.33137
570.03        70.33714
570.47        69.99863
570.90         69.9669
571.34        70.53078
571.77        70.38473
572.21        70.30229
572.64        70.34545
573.08        70.44403
573.51        70.19461
573.95        70.11567
574.38        70.08373
574.82        69.97919
575.25        70.06226
575.69        70.06046
576.12        70.05235
576.56        70.29907
576.99        70.11414
577.42        70.35727
577.86        70.20444
578.29        70.11388
578.73        70.11919
579.16        70.17069
579.60        70.22431
580.03        70.19167
580.47        69.97836
580.90        70.18481
581.33        70.35514
581.77        70.32075
582.20        70.06976
582.64        70.09687
583.07         69.9935
583.51        69.96077
583.94        70.16936
584.37        70.30373
584.81        70.44264
585.24        70.33846
585.68        70.01714
586.11         70.3208
586.54        70.35994
586.98         69.3685
587.41        69.96017
587.85        69.99638
588.28        70.17924
588.71         69.7868
589.15        70.48837
589.58        69.79382
590.01        70.16044
590.45         70.1014
590.88        69.62939
591.31        69.57072
591.75        69.72112
592.18        69.64583
592.61         69.5341
593.05        69.82111
593.48        70.54107
593.91        69.99803
594.35        70.18566
594.78        70.10857
595.21        69.82146
595.65        69.90913
596.08        69.98615
596.51        70.20567
596.94        70.00957
597.38        70.07658
597.81        70.38744
598.24        69.76048
598.68         69.8432
599.11        69.94872
599.54        70.21291
599.97        70.08575
600.41         70.3044
600.84        70.29464
601.27        70.28168
601.70        70.05066
602.14        69.64996
602.57        69.91483
603.00        70.05807
603.43        70.15096
603.87         70.1377
604.30        70.19605
604.73        70.13007
605.16        70.41577
605.60        70.18427
606.03         70.2823
606.46        70.47453
606.89        70.36842
607.32        70.23386
607.76        70.86966
608.19        70.35971
608.62        70.36582
609.05        70.36689
609.48         70.3085
609.92        70.13293
610.35        70.44128
610.78        70.51427
611.21        70.03809
611.64        70.31174
612.07        70.20659
612.50        70.17884
612.94        70.11554
613.37        70.05251
613.80        70.15514
614.23         70.1079
614.66        70.20088
615.09        70.34988
615.52        70.47503
615.96        70.64195
616.39        70.16623
616.82        70.28361
617.25        70.48872
617.68        70.14021
618.11        70.09135
618.54          70.123
618.97        70.31885
619.40        70.49319
619.84        70.83694
620.27        70.56194
620.70        70.18479
621.13        69.55891
621.56        69.95501
621.99        69.90292
622.42         69.8129
622.85        69.90163
623.28        69.97267
623.71        70.02009
624.14        69.72643
624.57        69.75078
625.00        70.20861
625.43        69.67214
625.86        69.73795
626.29        69.91479
626.72        69.83462
627.15         69.8223
627.58        69.78687
628.01        69.88567
628.44        69.79306
628.87        69.35446
629.30        70.07468
629.73        69.92445
630.16        69.85251
630.59        69.91808
631.02        69.65603
631.45        69.83085
631.88        69.81637
632.31        69.82289
632.74        69.69385
633.17        69.82643
633.60        69.84995
634.03        69.86704
634.46        69.88593
634.89        69.89894
635.32         69.8747
635.75        69.80756
636.18        69.74551
636.61        69.69712
637.04        69.59668
637.47        69.48783
637.89        69.56195
638.32         69.7652
638.75        69.86652
639.18        69.83667
639.61         69.8689
640.04        69.82958
640.47        69.78592
640.90        69.70821
641.33        69.58393
641.76        69.42834
642.18        69.44386
642.61        69.36606
643.04        69.39713
643.47        69.44432
643.90        69.48922
644.33        69.51701
644.76        69.53436
645.18        69.53399
645.61        69.49173
646.04        69.41116
646.47        69.29058
646.90         69.1564
647.33        69.09341
647.75        69.13131
648.18        69.17441
648.61        69.16884
649.04        69.40549
649.47        69.42935
649.89        69.23674
650.32        68.84628
650.75        68.92038
651.18        69.39591
651.61        69.55824
652.03        69.31955
652.46        69.17704
652.89        69.23624
653.32        68.92117
653.74         68.6718
654.17          69.399
654.60        69.10195
655.03         69.5209
655.46        69.34308
655.88        69.70761
656.31        70.57223
656.74        71.06854
657.16        69.98927
657.59        69.75904
658.02        69.38163
658.45        69.99968
658.87        69.91797
659.30        69.97977
659.73        69.80486
660.15        69.38469
660.58        69.52596
661.01        69.65112
661.44        69.90554
661.86        69.93588
662.29         69.7414
662.72        69.57278
663.14        69.49517
663.57        69.50363
664.00        69.58154
664.42        69.58972
664.85        69.52787
665.27        69.50893
665.70        69.52579
666.13        69.50906
666.55        69.45856
666.98        69.38633
667.41        69.32434
667.83        69.32063
668.26        69.37932
668.69        69.50122
669.11        69.63596
669.54        69.71812
669.96          69.741
670.39        69.63694
670.82        69.49984
671.24        69.64228
671.67        69.99599
672.09        70.13783
672.52        70.05609
672.94        69.95105
673.37        69.87217
673.80        69.81912
674.22        69.79726
674.65        69.70697
675.07        69.57491
675.50        69.46819
675.92        69.43711
676.35        69.49407
676.77        69.64206
677.20        69.88084
677.62         70.1446
678.05        70.23383
678.47        70.10541
678.90        69.94736
679.32         69.8813
679.75        69.44234
680.17        69.74129
680.60        69.87432
681.02        70.06789
681.45        70.14078
681.87         70.0779
682.30        69.86239
682.72        69.59537
683.15        69.57943
683.57        69.80426
684.00        69.88987
684.42        69.83535
684.85        69.92366
685.27        70.13502
685.70        70.29921
686.12        70.37744
686.54        70.42224
686.97        70.40733
687.39        70.32053
687.82        70.20422
688.24        69.99941
688.66        70.06638
689.09        70.09612
689.51        70.16563
689.94        70.19546
690.36        70.17929
690.78        70.11399
691.21         70.0321
691.63        70.02039
692.06        70.07501
692.48        70.09311
692.90        70.06171
693.33        70.02531
693.75        69.98912
694.17        69.92665
694.60        69.85772
695.02        69.88391
695.44         70.0093
695.87         70.1535
696.29         70.3008
696.71        70.54546
697.14        70.79907
697.56         70.8143
697.98        70.62187
698.41        70.55424
698.83        70.61208
699.25        70.63992
699.68        70.61688
700.10         70.6421
700.52        70.70192
700.94        70.77711
701.37         70.8233
701.79         70.8023
702.21        70.69028
702.64        70.52602
703.06        70.34782
703.48        70.23499
703.90        70.21391
704.33        70.25311
704.75        70.33997
705.17        70.43066
705.59        70.50201
706.01        70.53463
706.44        70.52775
706.86        70.59663
707.28        70.54427
707.70         70.5664
708.12         70.5907
708.55        70.48579
708.97        70.29143
709.39        70.25071
709.81        70.37225
710.23        70.46375
710.66        70.51258
711.08        70.65386
711.50        70.83807
711.92        70.94953
712.34        70.97433
712.76         70.9401
713.19        70.87271
713.61        70.86906
714.03        70.92934
714.45        71.02617
714.87        71.13177
715.29        71.20433
715.71        71.23075
716.13        71.22799
716.56        71.18602
716.98        71.16376
717.40        71.15124
717.82        71.14421
718.24        71.15241
718.66        71.19382
719.08         71.2654
719.50        71.35283
719.92        71.44302
720.34        71.51286
720.76        71.55277
721.19         71.5649
721.61        71.54333
722.03        71.44855
722.45        71.28471
722.87        71.06434
723.29        70.86252
723.71        70.79864
724.13        70.89853
724.55        71.13419
724.97        71.40958
725.39        71.56279
725.81        71.55265
726.23        71.42064
726.65        71.26186
727.07        71.23249
727.49        71.36613
727.91        71.60732
728.33        71.86236
728.75        71.97733
729.17        71.91218
729.59        71.72483
730.01        71.48874
730.43        71.32092
730.85        71.25771
731.27        71.25418
731.69        71.29508
732.10        71.36806
732.52        71.45399
732.94         71.5728
733.36        71.67677
733.78        71.70493
734.20        71.65788
734.62        71.52406
735.04        71.18402
735.46        71.34618
735.88        71.80442
736.30        71.63487
736.72        70.96896
737.13         70.8722
737.55        71.33318
737.97        71.71087
738.39        71.87888
738.81        71.84019
739.23         71.6652
739.65        71.77039
740.06        72.07159
740.48        72.12971
740.90        71.90446
741.32        71.75352
741.74        71.64582
742.16         71.6599
742.57        71.79008
742.99        72.02931
743.41         72.2906
743.83        72.41485
744.25        72.36681
744.67        72.17882
745.08        71.95705
745.50         71.8414
745.92        71.89062
746.34        72.06338
746.75        72.26006
747.17         72.3314
747.59        72.23878
748.01        71.99003
748.42        71.72094
748.84        71.69191
749.26        71.86586
749.68        72.18027
750.09        72.18202
750.51        72.10928
750.93        71.92667
751.35         71.9688
751.76        72.20921
752.18        72.28021
752.60        72.17585
753.01        72.13232
753.43        72.15984
753.85        72.18687
754.27        72.21395
754.68        72.28065
755.10        72.37007
755.52         72.3662
755.93        72.40278
756.35        72.38488
756.77        72.36808
757.18        72.41971
757.60        72.57027
758.02        72.64577
758.43        72.64616
758.85        72.89705
759.26        73.23601
759.68        72.83535
760.10        72.64234
760.51        71.55767
760.93        72.15303
761.34        72.46924
761.76         72.8316
762.18        72.82584
762.59        72.47323
763.01         72.3522
763.42        72.57014
763.84        72.65163
764.26        72.64366
764.67        72.91188
765.09        73.36217
765.50        73.49383
765.92        73.32439
766.33        73.10833
766.75        72.89096
767.16        72.75895
767.58         72.7088
768.00        72.86472
768.41        73.13755
768.83        73.10899
769.24        72.84528
769.66        72.77671
770.07        72.89786
770.49        73.09843
770.90        73.29005
771.32        73.19713
771.73        72.90918
772.15         72.8183
772.56        72.96149
772.97        73.16024
773.39           73.32
773.80        73.31789
774.22        73.18394
774.63        73.33106
775.05         73.6908
775.46        73.86806
775.88        73.79922
776.29         73.7608
776.70        73.76487
777.12        73.72652
777.53        73.67683
777.95        73.62369
778.36        73.59128
778.77        73.59303
779.19        73.62996
779.60         73.7071
780.02        73.78964
780.43         73.8389
780.84        73.82161
781.26        73.77469
781.67        73.79501
782.09         73.7963
782.50        73.69311
782.91        74.40324
783.33        73.97685
783.74        74.14619
784.15         74.3133
784.57        74.35456
784.98        74.30184
785.39        74.46111
785.81        74.76731
786.22        74.76269
786.63        74.48853
787.04        74.39002
787.46        74.50488
787.87        74.58631
788.28        74.59538
788.70        74.60617
789.11        74.59853
789.52        74.45002
789.93        74.25732
790.35        74.43058
790.76        74.89692
791.17        74.98126
791.58        74.68673
792.00        74.62154
792.41        74.83437
792.82        74.82325
793.23        74.65981
793.65        74.91253
794.06        75.46444
794.47        75.61193
794.88        75.37871
795.29        75.09309
795.71        75.22837
796.12        75.05878
796.53         74.7661
796.94        74.71424
797.35        74.90223
797.76        75.02841
798.18        75.06734
798.59        75.16261
799.00        75.30354
799.41         75.3858
799.82        75.39107
800.23        75.35855
800.64        75.29245
801.06        75.15883
801.47        75.03321
801.88        74.96092
802.29        74.95982
802.70        75.02472
803.11        75.11684
803.52        75.16309
803.93        75.14484
804.34        75.07762
804.75        75.00778
805.17        75.01267
805.58        75.14182
805.99        75.31432
806.40        75.47057
806.81        75.60079
807.22        75.63068
807.63        75.39284
808.04         75.0178
808.45        74.91522
808.86        75.14694
809.27        75.52065
809.68        75.90044
810.09        76.11073
810.50        76.08233
810.91         75.8634
811.32        75.55616
811.73        75.34648
812.14        75.29623
812.55        75.31703
812.96        75.35342
813.37        75.42171
813.78        75.44662
814.19        75.22341
814.60        74.87592
815.01        74.79937
815.42        75.03695
815.83        75.39424
816.24        75.77624
816.65        76.08311
817.05        76.24895
817.46        76.25359
817.87        76.17542
818.28         76.0884
818.69        76.02087
819.10        75.95501
819.51        75.88412
819.92        75.79955
820.33        75.70792
820.74        75.62893
821.14        75.57839
821.55        75.60413
821.96        75.69145
822.37        75.82718
822.78        75.97956
823.19        76.08978
823.60        76.13924
824.00        76.16676
824.41        76.14137
824.82        76.11174
825.23        76.09177
825.64        76.06606
826.04         76.0881
826.45        76.20606
826.86        76.42748
827.27        76.73074
827.68        77.01347
828.08        77.13448
828.49        76.99167
828.90        76.67312
829.31        76.29085
829.72         76.0399
830.12        76.00419
830.53        76.08271
830.94        76.23434
831.35         76.3466
831.75        76.40091
832.16        76.39184
832.57        76.34314
832.97        76.25549
833.38        76.13688
833.79        75.99057
834.20         75.8695
834.60        75.85386
835.01        75.96822
835.42        76.18569
835.82        76.46657
836.23        76.65099
836.64        76.72334
837.04         76.7384
837.45        76.69675
837.86        76.70713
838.26        76.80531
838.67        76.93575
839.08         77.0827
839.48        77.20604
839.89        77.28577
840.29        77.33662
840.70        77.35648
841.11        77.34068
841.51         77.3149
841.92        77.24967
842.33        77.17229
842.73        77.12489
843.14        77.07067
843.54        77.02812
843.95        77.00654
844.35        77.03992
844.76        77.11388
845.17        77.21902
845.57        77.30698
845.98        77.25592
846.38        77.07319
846.79        76.77597
847.19        76.45533
847.60        76.20953
848.00         76.0983
848.41        76.05409
848.81        76.09277
849.22        76.15736
849.62        76.25664
850.03        76.38273
850.43        76.49498
850.84        76.43909
851.24        76.24763
851.65        75.89634
852.05        75.58628
852.46        75.56953
852.86        75.89326
853.27        76.46032
853.67        77.00755
854.07        77.37406
854.48        77.47721
854.88        77.41935
855.29        77.16227
855.69        76.86269
856.10        76.49212
856.50         76.1041
856.90        75.72638
857.31        75.43814
857.71        75.30421
858.12        75.26964
858.52        75.32062
858.92        75.28362
859.33        75.10419
859.73        74.86812
860.13        74.60731
860.54        74.41453
860.94        74.36111
861.34        74.36823
861.75        74.40926
862.15        74.51079
862.55        74.62906
862.96        74.78214
863.36        74.87573
863.76        74.73697
864.17        74.34476
864.57        73.77037
864.97         73.2141
865.38        72.97859
865.78        73.17705
866.18        73.70198
866.58           74.33
866.99        74.66354
867.39        74.60704
867.79        74.24547
868.19        73.76661
868.60        73.41412
869.00        73.25239
869.40        73.24169
869.80        73.30882
870.21        73.33591
870.61        73.35709
871.01          73.354
871.41        73.39024
871.81        73.54778
872.22        73.80843
872.62        74.16933
873.02        74.52809
873.42        74.69096
873.82        74.61093
874.22         74.3654
874.63        74.10958
875.03        74.03862
875.43        74.20188
875.83        74.52051
876.23         74.9147
876.63        75.24779
877.03        75.45826
877.44        75.57922
877.84        75.59241
878.24         75.4391
878.64        75.13551
879.04        74.70677
879.44        74.28523
879.84        74.05401
880.24        74.04848
880.64        74.24409
881.04        74.51594
881.44        74.63864
881.84        74.54567
882.24        74.27036
882.65        73.95726
883.05        73.95937
883.45        74.29167
883.85        74.85081
884.25        75.36613
884.65        75.44083
885.05        75.01392
885.45        74.21679
885.85        73.35463
886.25        72.95489
886.65        73.15616
887.05        73.78339
887.45        74.53625
887.85        74.95514
888.25        74.91519
888.65        74.55704
889.04        74.04938
889.44        73.71172
889.84        73.62965
890.24        73.70265
890.64        73.83616
891.04        73.89385
891.44        73.83913
891.84        73.74026
892.24        73.65449
892.64        73.65097
893.04         73.7533
893.44         73.9338
893.83         74.1776
894.23         74.4043
894.63        74.60636
895.03        74.77071
895.43        74.91518
895.83        75.07085
896.23        75.23107
896.63        75.38422
897.02        75.44264
897.42        75.31818
897.82        75.00321
898.22        74.56145
898.62        74.13371
899.01        73.96069
899.41        74.08895
899.81        74.46102
900.21        74.96969
900.61        75.43147
901.00        75.75369
901.40        75.97301
901.80        76.09239
902.20        76.14072
902.59        76.14164
902.99        76.07005
903.39        75.91776
903.79        75.67377
904.18        75.36057
904.58         75.0228
904.98        74.74447
905.38        74.64338
905.77        74.71593
906.17        74.92014
906.57        75.15219
906.96        75.25183
907.36        75.14945
907.76        74.93286
908.15        74.64526
908.55        74.29166
908.95        73.94693
909.34        73.57898
909.74        73.37228
910.14        73.55347
910.53          74.142
910.93        75.04969
911.33        75.97888
911.72        76.41545
912.12        76.22723
912.52        75.59625
912.91        74.82945
913.31         74.4044
913.70        74.42157
914.10        74.73457
914.49        75.19685
914.89        75.47193
915.29        75.46731
915.68        75.29046
916.08        75.04878
916.47        74.89678
916.87         74.8952
917.26         74.9543
917.66        75.03978
918.05        75.07361
918.45        75.02821
918.84        74.97682
919.24        74.90357
919.64        74.85504
920.03        74.87257
920.42        74.93878
920.82        75.08465
921.21        75.35547
921.61        75.72677
922.00        76.16699
922.40        76.62478
922.79        77.09324
923.19        77.48073
923.58        77.80418
923.98        77.90795
924.37        77.61903
924.77        76.93288
925.16        75.92976
925.55        74.87274
925.95        74.21558
926.34        74.10398
926.74        74.40678
927.13        74.97366
927.52         75.4406
927.92        75.69883
928.31         75.8156
928.70        75.83961
929.10        75.83566
929.49        75.83327
929.89        75.76685
930.28        75.68523
930.67        75.57639
931.07        75.44237
931.46        75.32926
931.85        75.25615
932.24        75.27425
932.64        75.37776
933.03        75.53768
933.42        75.69415
933.82        75.74467
934.21        75.67046
934.60        75.51671
934.99        75.31229
935.39         75.0857
935.78        74.90218
936.17        74.74521
936.56        74.69115
936.96        74.84906
937.35        75.26303
937.74        75.84533
938.13         76.4343
938.53        76.80689
938.92        76.91099
939.31        76.77556
939.70         76.5061
940.09        76.30161
940.49        76.20102
940.88        76.19559
941.27        76.16712
941.66         75.9307
942.05        75.47746
942.44        74.91866
942.84        74.43213
943.23        74.23564
943.62         74.4166
944.01         74.8811
944.40        75.53509
944.79        76.20221
945.18        76.75934
945.57        77.20161
945.97        77.42217
946.36        77.35647
946.75        76.98151
947.14         76.3215
947.53        75.50727
947.92        74.79245
948.31         74.2914
948.70        73.99319
949.09        73.84794
949.48        73.73872
949.87         73.6332
950.26        73.57681
950.65        73.60865
951.04        73.78125
951.43        74.09562
951.82        74.50612
952.21        74.93488
952.60        75.26603
952.99        75.44729
953.38        75.48475
953.77        75.43079
954.16        75.37996
954.55        75.35021
954.94        75.30988
955.33        75.20284
955.72        74.93578
956.11        74.49767
956.50        73.94628
956.89        73.35931
957.28        72.85898
957.66        72.53777
958.05        72.37051
958.44        72.36159
958.83         72.4956
959.22        72.73328
959.61        73.02428
960.00        73.34276
960.39        73.65929
960.78         73.9309
961.16        74.17202
961.55        74.19227
961.94        73.80531
962.33        73.02522
962.72        71.99673
963.11        70.99143
963.49        70.38477
963.88        70.27256
964.27        70.56121
964.66        71.14962
965.04         71.8476
965.43        72.44917
965.82        73.00517
966.21        73.45391
966.60        73.74413
966.98        73.86909
967.37         73.7467
967.76        73.43237
968.15        73.04324
968.53        72.67072
968.92        72.37479
969.31        72.09727
969.69        71.68745
970.08        71.14722
970.47        70.55122
970.86        70.24767
971.24        70.82242
971.63        72.23135
972.02        74.16881
972.40        76.10379
972.79        77.20706
973.17        77.42079
973.56        76.91856
973.95        76.02789
974.33        75.31357
974.72        74.98842
975.11        74.88201
975.49        74.91695
975.88         74.9854
976.26        75.04403
976.65        75.17894
977.04        75.27976
977.42        75.10432
977.81        74.55577
978.19        73.62608
978.58        72.72209
978.96        72.52977
979.35        73.16442
979.74        74.47574
980.12        75.87489
980.51        76.17091
980.89        75.22758
981.28        73.28726
981.66        71.13535
982.05        70.24307
982.43        71.01872
982.82        72.94258
983.20        75.26939
983.59        76.69387
983.97        76.95776
984.35        76.39602
984.74        75.36897
985.12        74.51744
985.51        74.10368
985.89        73.93571
986.28         73.9636
986.66         74.2209
987.04        74.61983
987.43        75.14365
987.81        75.69184
988.20        75.93571
988.58        75.84946
988.96        75.54586
989.35        74.97466
989.73        74.17334
990.12        73.13048
990.50        71.71597
990.88        70.42854
991.27        70.35404
991.65        71.71719
992.03        74.16074
992.42        76.35085
992.80        76.89474
993.18        75.47474
993.56        72.25997
993.95        68.32496
994.33        66.46988
994.71        67.86626
995.10        71.19524
995.48        74.64234
995.86        76.27531
996.24        75.92128
996.63        74.09879
997.01        71.54431
997.39        69.85257
997.77        69.81055
998.15        70.91039
998.54        72.35484
998.92        73.08978
999.30         72.8482
999.68        71.99743
1000.06        71.05548
1000.45        70.84393
1000.83         71.6592
1001.21        73.09421
1001.59        74.58514
1001.97        75.36879
1002.35        75.27912
1002.73        74.57319
1003.12        73.56548
1003.50        72.80907
1003.88        72.61633
1004.26        72.71679
1004.64        73.05618
1005.02         73.5858
1005.40        74.24211
1005.78        75.13396
1006.16        75.84537
1006.54         75.6122
1006.92        74.29465
1007.30         72.0545
1007.69        69.79926
1008.07        68.96036
1008.45        69.91161
1008.83        72.19929
1009.21         74.6862
1009.59        75.69538
1009.97        74.79063
1010.35        72.24854
1010.73        68.90118
1011.11        66.97812
1011.49        67.57324
1011.86        70.11236
1012.24        73.17732
1012.62        75.07677
1013.00        75.44057
1013.38        74.84417
1013.76        73.88479
1014.14        73.51762
1014.52        74.05745
1014.90        75.12952
1015.28        76.44099
1015.66         77.4512
1016.04        77.89941
1016.41        78.12459
1016.79        77.95246
1017.17        77.46284
1017.55        76.74804
1017.93        75.78986
1018.31        74.98107
1018.69        74.94107
1019.06        75.87044
1019.44        77.75817
1019.82        80.00664
1020.20        81.28293
1020.58        81.07324
1020.95        79.57636
1021.33        77.86337
1021.71        77.32204
1022.09        78.09762
1022.46        79.77923
1022.84        81.28191
1023.22        80.48306
1023.60        76.68158
1023.97        70.01538
1024.35        62.16342
1024.73        57.02522
