SpectraSmart Spectrum 2.9.0.0
--------- Device Information -----------
Spectrum Name :  反射率_0
Saving Time :  2024/04/28 00:09:29
Spectro-Module Model Name : SE2030-DUVN
Spectro-Module Serial Number : OS361AC55029948
Wavelength Start : 200
Wavelength End : 1025
Wavelength Unit : Wavelength(nm)
Spectrum Unit : Reflectance(%)
-----------Spectrum Setting ------------
Integration Time : 20ms
Average : 10
Boxcar : 0
Background removal :  enabled
linearity correction :  enabled
SC :  disabled
Intensity correction :  disabled
DWT denoise :  enabled
savitzky-golay :  disabled
FFT :  disabled
Running average :  disabled
Kalman :  disabled
High pass :  disabled
---------------BEGIN--------------------
Wavelength(nm)             Reflectance(%)
200.29               0
200.75       -23.49623
201.21        19.09141
201.67        51.29202
202.13        62.63738
202.58        60.51119
203.04        51.41011
203.50        41.74076
203.96        40.23589
204.42        46.77318
204.88        56.48661
205.34          64.822
205.80        67.96841
206.26        65.41232
206.72        56.83718
207.18        41.89104
207.64        31.01499
208.10        33.70111
208.55        43.62615
209.01        50.49331
209.47        51.02572
209.93        44.59081
210.39         24.7069
210.85       -37.21093
211.31       -111.0819
211.77       -19.68907
212.23        38.78981
212.69        59.44361
213.14        66.67802
213.60        68.06668
214.06        66.81794
214.52        62.38313
214.98        56.98821
215.44         55.3634
215.90        55.45967
216.36        56.99995
216.81        60.31709
217.27        64.82001
217.73        70.65625
218.19          75.577
218.65         75.2568
219.11        68.38444
219.57        55.49881
220.02        39.43024
220.48        29.76832
220.94        30.18255
221.40        37.14238
221.86        46.16404
222.32         52.5439
222.77        55.71592
223.23        57.32233
223.69        57.66155
224.15        56.78448
224.61        55.00272
225.06        51.97277
225.52        49.20291
225.98        49.20438
226.44        51.77308
226.90        55.18879
227.36        57.84768
227.81        58.49292
228.27        57.29484
228.73        54.71664
229.19        51.14756
229.65        47.61956
230.10        44.78141
230.56        42.77839
231.02        41.50118
231.48        40.82536
231.93        40.53598
232.39        40.68102
232.85        41.26411
233.31        42.27075
233.77        43.59252
234.22        45.27486
234.68        46.63473
235.14        46.90499
235.60         46.0132
236.05        43.91321
236.51        41.85982
236.97         42.5152
237.43        46.63688
237.88        53.46359
238.34        60.20135
238.80        64.01142
239.26        64.25577
239.71        60.61795
240.17        53.08282
240.63        48.19423
241.08        52.16725
241.54        60.56746
242.00        67.64468
242.46        71.00887
242.91        71.41548
243.37        69.02623
243.83        62.64416
244.28        54.91135
244.74        55.92131
245.20        64.23953
245.66        70.22599
246.11        69.98174
246.57        63.93636
247.03        51.76241
247.48        32.74023
247.94        17.96324
248.40        21.01703
248.85        35.58611
249.31        53.59406
249.77        68.60873
250.22        79.08836
250.68        86.48353
251.14        91.24828
251.59        94.11092
252.05        95.79843
252.51        95.77341
252.96        93.35399
253.42        89.20246
253.88        84.55524
254.33          80.773
254.79        77.52173
255.25         72.7151
255.70         66.6489
256.16        61.05602
256.62        57.43327
257.07         57.4263
257.53        60.31075
257.99        63.92233
258.44        66.67651
258.90        67.74325
259.35        66.99297
259.81        65.50167
260.27        63.57749
260.72        61.60643
261.18        60.09063
261.63        58.64952
262.09        57.42005
262.55        56.14482
263.00        54.72783
263.46        53.37813
263.91        52.14104
264.37        51.42255
264.83        51.12587
265.28        51.05539
265.74        50.95955
266.19        50.30332
266.65        49.12198
267.11        47.55117
267.56        45.87658
268.02        44.65391
268.47        43.95983
268.93        43.62774
269.38        43.42399
269.84        43.01162
270.30        42.28225
270.75        41.35665
271.21        40.30312
271.66        39.17069
272.12        38.03121
272.57        36.82852
273.03        35.68772
273.48        34.73218
273.94        34.02961
274.39        33.50963
274.85        33.08838
275.31        32.55348
275.76        31.84967
276.22        31.06928
276.67        30.26893
277.13         29.6258
277.58        29.11846
278.04        28.72795
278.49        28.33193
278.95         27.8629
279.40         27.2639
279.86        26.63984
280.31        26.02197
280.77        25.56106
281.22        25.24774
281.68        25.07473
282.13        24.96774
282.59        24.86777
283.04        24.73699
283.50        24.59694
283.95        24.46431
284.41         24.3989
284.86        24.38692
285.32        24.41854
285.77        24.41918
286.22        24.31786
286.68         24.1249
287.13        23.84418
287.59        23.57448
288.04        23.39249
288.50        23.34458
288.95        23.37499
289.41        23.44867
289.86        23.46803
290.32        23.43202
290.77        23.36984
291.22        23.32324
291.68        23.34624
292.13         23.4514
292.59        23.63842
293.04        23.90681
293.50        24.27891
293.95        24.74674
294.40        25.32035
294.86        25.97819
295.31        26.67583
295.77        27.41028
296.22        28.17228
296.68          28.998
297.13        29.91953
297.58        30.93629
298.04         32.0248
298.49        33.12347
298.95        34.16892
299.40        35.15514
299.85        36.11339
300.31        37.13003
300.76        38.28939
301.21        39.60709
301.67        41.05153
302.12        42.51165
302.58        43.88108
303.03        45.12417
303.48        46.30769
303.94        47.54279
304.39        48.93008
304.84        50.51356
305.30        52.25282
305.75         54.0548
306.20        55.84718
306.66        57.61097
307.11        59.32089
307.57        61.00752
308.02        62.61649
308.47         64.1599
308.93        65.65286
309.38        67.06733
309.83        68.44405
310.29        69.82338
310.74        71.18414
311.19        72.58054
311.65        74.06763
312.10        75.60253
312.55        77.15419
313.00        78.64147
313.46        79.95676
313.91         81.0663
314.36        82.01183
314.82        82.83654
315.27        83.60894
315.72        84.35691
316.18        85.07703
316.63        85.76511
317.08        86.44929
317.53        87.13538
317.99        87.81934
318.44        88.49022
318.89         89.0976
319.35        89.62679
319.80        90.09585
320.25        90.51466
320.70        90.91257
321.16        91.28696
321.61        91.63809
322.06        91.96667
322.51        92.28397
322.97        92.57574
323.42        92.87939
323.87        93.14625
324.32         93.3121
324.78        93.36072
325.23        93.34997
325.68        93.34792
326.13        93.49062
326.59        93.78604
327.04        94.23653
327.49        94.74204
327.94        95.16709
328.39         95.4679
328.85        95.65061
329.30        95.81262
329.75        95.98863
330.20        96.20537
330.66        96.41647
331.11        96.67265
331.56        96.95285
332.01        97.25884
332.46        97.59349
332.92          97.918
333.37        98.29144
333.82        98.66418
334.27        99.03432
334.72        99.37753
335.17        99.66085
335.63        99.86143
336.08        100.0406
336.53        100.2264
336.98        100.5059
337.43        100.9034
337.88        101.4031
338.34        101.9433
338.79        102.4629
339.24        102.9271
339.69        103.3638
340.14        103.8061
340.59        104.3113
341.05        104.8882
341.50        105.5023
341.95        106.1255
342.40        106.7374
342.85        107.3176
343.30        107.8625
343.75        108.3331
344.20        108.6673
344.66         108.868
345.11        108.9635
345.56        109.0095
346.01        109.0907
346.46        109.2409
346.91        109.4445
347.36          109.71
347.81         110.044
348.26        110.4301
348.72        110.8583
349.17        111.2672
349.62        111.5753
350.07        111.7596
350.52        111.8441
350.97        111.8569
351.42         111.852
351.87        111.8509
352.32        111.8319
352.77        111.8141
353.22        111.8311
353.67        111.8703
354.13        111.9235
354.58        111.8945
355.03        111.6891
355.48        111.2913
355.93        110.7509
356.38        110.1193
356.83        109.4768
357.28        108.8642
357.73        108.2711
358.18        107.7394
358.63        107.3238
359.08        107.0254
359.53        106.8348
359.98        106.6617
360.43        106.3618
360.88        105.8951
361.33        105.2756
361.78        104.6047
362.23        104.0571
362.68        103.6634
363.13        103.3733
363.58        103.0395
364.03        102.4151
364.48        101.4904
364.93        100.3555
365.38        99.19727
365.83        98.29404
366.28        97.71302
366.73        97.35731
367.18        97.11085
367.63        96.78643
368.08        96.31581
368.53        95.75658
368.98        95.12161
369.43        94.42858
369.88         93.7032
370.33        92.94073
370.78        92.19209
371.23        91.54968
371.68        91.03436
372.13        90.62272
372.58        90.28055
373.03        89.94237
373.48        89.57632
373.93        89.19292
374.38        88.76598
374.83        88.25671
375.28        87.66547
375.72        86.98839
376.17        86.31193
376.62        85.70741
377.07        85.19886
377.52        84.76426
377.97         84.3779
378.42        83.99561
378.87        83.60101
379.32        83.21018
379.77        82.81602
380.22        82.40215
380.67        81.96674
381.11        81.51482
381.56        81.06289
382.01          80.655
382.46        80.30972
382.91        80.02142
383.36        79.77432
383.81        79.53719
384.26        79.29842
384.71        79.06552
385.15        78.82698
385.60        78.62357
386.05        78.43575
386.50        78.24514
386.95        78.04473
387.40        77.83183
387.85        77.60552
388.29         77.3272
388.74        77.06699
389.19        76.74107
389.64        76.34236
390.09        75.87572
390.54        75.40473
390.98        75.01791
391.43        74.78583
391.88        74.67091
392.33        74.56673
392.78        74.39252
393.23        74.15602
393.67        73.70097
394.12        73.17866
394.57         73.3777
395.02        73.15352
395.47        73.05911
395.91        72.78388
396.36        72.62707
396.81        72.60398
397.26        72.57658
397.71        72.49707
398.15        72.35888
398.60        72.23878
399.05        71.91282
399.50        71.50909
399.95        71.58395
400.39        71.98521
400.84         71.7777
401.29          71.008
401.74         70.4793
402.18        70.30479
402.63        70.16586
403.08        70.04149
403.53        69.93933
403.97        69.84423
404.42        69.83722
404.87        69.88679
405.32        69.89211
405.76        69.81559
406.21        69.70522
406.66        69.58805
407.11        69.41933
407.55        69.23443
408.00        69.26568
408.45        69.43321
408.90         69.0315
409.34        68.24716
409.79        68.18537
410.24        68.74292
410.68        68.91438
411.13        68.64163
411.58        68.49461
412.03        68.50672
412.47        68.48148
412.92        68.40154
413.37        68.33825
413.81        68.27706
414.26        68.25182
414.71        68.24842
415.15        68.26922
415.60        68.29209
416.05        68.34229
416.49        68.42194
416.94         68.5109
417.39        68.58966
417.83        68.62571
418.28        68.60928
418.73        68.54071
419.17        68.45636
419.62        68.42064
420.07        68.45373
420.51        68.53414
420.96        68.62632
421.41        68.65469
421.85        68.58131
422.30        68.38671
422.74        68.14128
423.19        68.24986
423.64        68.62635
424.08        68.78337
424.53        68.60997
424.98        68.52062
425.42        68.54297
425.87        68.30125
426.31        67.92715
426.76        67.99861
427.21        68.43555
427.65        68.55943
428.10        68.36261
428.54        68.38312
428.99         68.6532
429.44        68.90972
429.88        69.05324
430.33        68.97711
430.77        68.70534
431.22        68.64172
431.66        68.79374
432.11        68.92126
432.56         69.0529
433.00        69.28426
433.45        69.38505
433.89        69.43523
434.34         69.4736
434.78        68.66621
435.23        68.12915
435.67        68.79906
436.12         69.7485
436.57        69.92213
437.01        69.23038
437.46        68.80814
437.90        69.12029
438.35        70.21114
438.79        69.71233
439.24        69.79724
439.68        69.79376
440.13        69.63479
440.57        69.43696
441.02        69.80762
441.46        70.54005
441.91        70.58012
442.35        70.01595
442.80        70.06678
443.24        70.63399
443.69         70.8046
444.13        70.54544
444.58        70.45806
445.02        70.53199
445.47        70.52967
445.91         70.4381
446.36        70.38702
446.80        70.37202
447.24        70.30921
447.69        70.26431
448.13        70.46605
448.58        70.83975
449.02        70.97096
449.47        70.86933
449.91        70.84389
450.36         70.9187
450.80        70.87304
451.25        70.73917
451.69        70.65705
452.13        70.62949
452.58        70.55959
453.02         70.4603
453.47        70.38827
453.91        70.33886
454.36        70.39731
454.80        70.44855
455.24        70.19039
455.69        69.75684
456.13        69.38063
456.58        69.19337
457.02        69.46411
457.46        69.88627
457.91        69.66343
458.35        69.10293
458.79        68.77962
459.24        68.80289
459.68        68.71571
460.13        68.56805
460.57        68.30757
461.01        68.24654
461.46        68.18026
461.90         68.3297
462.34        67.93642
462.79         68.3539
463.23        68.32468
463.68         68.2341
464.12         68.0039
464.56        67.73309
465.01        67.78963
465.45        67.97782
465.89        67.86628
466.34        67.53777
466.78        67.27179
467.22        67.08128
467.67        67.43604
468.11        67.04375
468.55        66.97853
468.99        66.86872
469.44        66.77744
469.88        66.69941
470.32        66.59603
470.77         66.4772
471.21        66.37003
471.65        66.27508
472.10        66.19662
472.54        66.11453
472.98        66.04311
473.42        65.98413
473.87         65.9181
474.31        65.82569
474.75        65.84908
475.20        65.95187
475.64         65.9062
476.08        65.69628
476.52        65.64248
476.97        65.78771
477.41          65.468
477.85        65.40292
478.29        65.46394
478.74        65.83208
479.18        65.02096
479.62        65.41659
480.06         65.2808
480.50        65.35056
480.95        65.32805
481.39        65.13258
481.83         65.4795
482.27        65.60241
482.72        65.01285
483.16        65.55015
483.60        65.43143
484.04        65.19482
484.48        65.14941
484.93        65.56791
485.37        64.92256
485.81        65.11298
486.25        66.10123
486.69        66.69067
487.14        65.83968
487.58        65.30798
488.02        65.01343
488.46        65.44767
488.90        65.41512
489.34        64.74229
489.79        64.25362
490.23         64.6178
490.67        64.56586
491.11        64.30929
491.55        64.19044
491.99        64.22744
492.43        64.25382
492.88        64.25865
493.32        64.33948
493.76         64.4385
494.20        64.50361
494.64        64.53617
495.08        64.42939
495.52        64.27008
495.96        64.45911
496.41        64.89311
496.85        64.89993
497.29        64.50414
497.73        64.38395
498.17        64.46716
498.61        64.54315
499.05        64.52798
499.49        64.46942
499.93        64.41222
500.37        64.33672
500.82        64.21877
501.26        64.30425
501.70        64.65582
502.14        63.86215
502.58        64.25291
503.02        64.20822
503.46          64.145
503.90         64.1639
504.34        64.17643
504.78        64.18723
505.22         64.1286
505.66        63.97592
506.10        63.80543
506.54        63.67477
506.98        63.57229
507.42        64.02488
507.86        63.94024
508.30        64.03955
508.74        64.08006
509.18        64.03091
509.62         63.9399
510.06        63.85955
510.50        63.81841
510.94        63.79272
511.38        63.77496
511.82        63.75473
512.26        63.72725
512.70        63.70045
513.14        63.69117
513.58        63.69878
514.02        63.71989
514.46        63.79369
514.90        63.90431
515.34        63.80085
515.78        63.84402
516.22        63.75094
516.66         63.6655
517.10         63.6329
517.54        63.66689
517.98        63.74525
518.42        63.83237
518.86        63.88047
519.30        63.87424
519.74        63.82982
520.18        63.76702
520.62        63.71555
521.06        63.68699
521.50        63.67416
521.93        63.67322
522.37         63.6657
522.81        63.65173
523.25        63.63232
523.69        63.61683
524.13        63.61739
524.57        63.63489
525.01        63.66701
525.45        63.68814
525.89         63.6593
526.32        63.57018
526.76        63.44376
527.20        63.32144
527.64        63.27712
528.08        63.32266
528.52        63.43275
528.96        63.55096
529.40        63.58769
529.83        63.51949
530.27        63.39085
530.71        63.24346
531.15        63.15103
531.59        63.13511
532.03        63.17043
532.46        63.23141
532.90        63.29902
533.34         63.3524
533.78        63.39725
534.22         63.4253
534.66        63.42304
535.09        63.38213
535.53        63.32336
535.97        63.24635
536.41        63.16835
536.85        63.09755
537.28        63.03525
537.72        62.98977
538.16        62.96275
538.60        62.95662
539.04        62.98547
539.47        63.01792
539.91         63.0405
540.35        63.03324
540.79        63.01318
541.22        62.98745
541.66        62.97766
542.10        62.98496
542.54         62.9984
542.97        63.00692
543.41        63.03197
543.85        63.05841
544.29        63.08547
544.72        63.08521
545.16         63.0468
545.60        62.96008
546.04        62.83518
546.47        62.70202
546.91         62.6293
547.35         62.6272
547.79        62.64566
548.22        62.65227
548.66        62.70982
549.10        62.77074
549.53        62.73607
549.97        62.63566
550.41        62.60098
550.84        62.64526
551.28        62.70505
551.72        62.75519
552.15         62.7686
552.59        62.73964
553.03        62.70354
553.46        62.69187
553.90        62.66369
554.34        62.58276
554.77        62.98938
555.21        62.88815
555.65        62.93412
556.08        62.77361
556.52         62.6586
556.96        62.58169
557.39        62.53209
557.83        62.52914
558.27        62.51181
558.70        62.49123
559.14        62.51263
559.57        62.55261
560.01        62.66211
560.45        62.77801
560.88        62.68155
561.32        62.48182
561.75         62.4656
562.19        62.63721
562.63        62.72741
563.06        62.69453
563.50        62.61601
563.93        62.51065
564.37        62.45813
564.80          62.444
565.24        62.50816
565.68        62.61723
566.11        62.58027
566.55        62.46399
566.98        62.60463
567.42        62.94479
567.85        62.90624
568.29        62.74299
568.72        62.61904
569.16        62.62986
569.60        62.75518
570.03        63.01293
570.47        62.80856
570.90        62.90115
571.34        63.45463
571.77        63.12822
572.21        63.12223
572.64        63.32783
573.08         62.7925
573.51        62.67639
573.95        62.78027
574.38        63.26537
574.82         63.4404
575.25        63.31843
575.69        63.19506
576.12        62.96108
576.56        62.97506
576.99        62.94732
577.42        63.54253
577.86        63.33204
578.29        63.56694
578.73         63.5914
579.16        63.59574
579.60        63.42921
580.03        63.35013
580.47        63.34314
580.90        63.32129
581.33        63.74787
581.77        63.70712
582.20        63.84247
582.64        64.00311
583.07        63.61479
583.51        63.31285
583.94         63.1227
584.37        63.05112
584.81        63.17957
585.24        63.23475
585.68        63.16768
586.11        63.46082
586.54        63.06994
586.98        62.80093
587.41        63.66969
587.85        63.37321
588.28        63.29279
588.71        62.87405
589.15        63.44208
589.58        62.77186
590.01        62.86272
590.45        63.04357
590.88        62.25809
591.31        62.28283
591.75          62.557
592.18        62.57261
592.61          62.513
593.05        62.52269
593.48        63.26022
593.91        63.02561
594.35        62.71185
594.78        62.81682
595.21        62.49736
595.65        62.54557
596.08        62.53793
596.51        62.90728
596.94        62.41383
597.38        62.44081
597.81        62.73108
598.24        62.40052
598.68        62.57695
599.11        62.54622
599.54        62.60484
599.97        62.51867
600.41        62.77976
600.84        62.80568
601.27        62.70885
601.70        62.72815
602.14        62.43483
602.57        62.62996
603.00        62.49426
603.43        62.53716
603.87        62.90966
604.30        62.54828
604.73        62.31815
605.16        62.78321
605.60        62.37481
606.03        62.53822
606.46        62.70065
606.89         62.7286
607.32        62.53671
607.76        63.10807
608.19        62.66949
608.62        62.61235
609.05         62.4928
609.48        62.45692
609.92        62.44457
610.35        62.39336
610.78        62.66309
611.21        61.82407
611.64        62.66966
612.07        62.63214
612.50        62.51411
612.94        62.45018
613.37        62.47793
613.80        62.48311
614.23        62.36092
614.66        62.32563
615.09         62.3293
615.52        62.37877
615.96        62.48335
616.39        62.12617
616.82        62.44013
617.25        62.10399
617.68        62.23231
618.11        62.05094
618.54        61.91273
618.97        62.04369
619.40         62.2897
619.84         62.6638
620.27        62.44444
620.70        62.15511
621.13        61.63632
621.56        62.15202
621.99        62.15138
622.42        62.07361
622.85        61.70066
623.28        62.03923
623.71        61.97437
624.14        61.61536
624.57         61.8611
625.00        62.20394
625.43        61.73516
625.86        61.75445
626.29        61.92034
626.72          61.699
627.15        61.69084
627.58         61.6081
628.01         61.7076
628.44        61.44492
628.87        61.07156
629.30        61.61919
629.73        61.51387
630.16        61.05961
630.59        61.40224
631.02        61.45463
631.45        61.62883
631.88         61.7284
632.31        61.77298
632.74         61.4947
633.17        61.53081
633.60        61.44523
634.03        61.43199
634.46        61.46316
634.89        61.50715
635.32        61.48847
635.75        61.38723
636.18        61.26871
636.61        61.16038
637.04        61.03289
637.47        60.93528
637.89        61.02171
638.32        61.22984
638.75        61.35157
639.18        61.35768
639.61        61.35435
640.04        61.35223
640.47        61.33828
640.90        61.32294
641.33        61.28438
641.76        61.21267
642.18         61.2472
642.61        61.14677
643.04        61.10408
643.47         61.0682
643.90        61.07225
644.33        61.11553
644.76        61.18988
645.18        61.26198
645.61        61.26359
646.04        61.18425
646.47        61.04407
646.90        60.88752
647.33        60.78345
647.75        60.75647
648.18        60.80368
648.61        60.88871
649.04        60.93135
649.47        60.91457
649.89        60.88854
650.32        60.89188
650.75         60.9154
651.18        60.98438
651.61        61.21034
652.03        61.44119
652.46        61.38976
652.89        61.19637
653.32        60.78223
653.74        60.59965
654.17        61.48341
654.60        61.65564
655.03        61.55831
655.46        61.29639
655.88         61.8055
656.31        63.59963
656.74        66.00373
657.16        64.69119
657.59        63.31293
658.02         62.1559
658.45        61.83552
658.87        62.11177
659.30         61.8723
659.73        61.61719
660.15        60.99758
660.58        61.06773
661.01        61.19564
661.44         61.4863
661.86        61.53746
662.29        61.32479
662.72        61.18344
663.14         61.1676
663.57        61.20014
664.00         61.2588
664.42         61.2538
664.85        61.18508
665.27        61.13115
665.70        61.10616
666.13        61.09445
666.55        61.10141
666.98        61.12154
667.41         61.1553
667.83        61.20229
668.26        61.25217
668.69        61.31419
669.11        61.37035
669.54        61.40427
669.96        61.42383
670.39        61.36736
670.82        61.28813
671.24        61.41318
671.67        61.68626
672.09        61.73942
672.52        61.60065
672.94        61.57809
673.37        61.67011
673.80        61.63545
674.22        61.49376
674.65        61.38568
675.07        61.34395
675.50        61.29695
675.92        61.25569
676.35         61.2434
676.77        61.26487
677.20        61.31759
677.62        61.39169
678.05        61.45016
678.47        61.48149
678.90        61.50039
679.32         61.5179
679.75        61.55248
680.17        61.60293
680.60        61.70503
681.02        61.81435
681.45        61.76355
681.87        61.60043
682.30        61.50761
682.72         61.5196
683.15         61.6098
683.57        61.73583
684.00        61.70182
684.42        61.55972
684.85        61.57918
685.27        61.76803
685.70        61.97479
686.12        62.11036
686.54        62.14363
686.97        62.11022
687.39        61.80669
687.82         62.0299
688.24        61.86856
688.66        61.86324
689.09        61.86262
689.51        61.93792
689.94        61.96168
690.36        61.92703
690.78         61.7942
691.21        61.62628
691.63        61.70326
692.06        61.95713
692.48        61.94252
692.90        61.68405
693.33        61.57367
693.75        61.62511
694.17         61.6073
694.60        61.51746
695.02        61.47843
695.44        61.48656
695.87        61.54818
696.29        61.63588
696.71        61.62494
697.14        61.52707
697.56         61.5532
697.98        61.69083
698.41        61.80468
698.83        61.87181
699.25         61.9909
699.68        62.12198
700.10        62.20491
700.52        62.21807
700.94        62.18295
701.37        62.10559
701.79        62.03332
702.21        61.96563
702.64        61.90461
703.06        61.85286
703.48         61.8322
703.90        61.85036
704.33        61.90128
704.75         61.9687
705.17        62.00412
705.59        61.99605
706.01        61.92936
706.44        61.85077
706.86        61.94434
707.28        62.04571
707.70         62.2818
708.12        62.52215
708.55        62.57907
708.97        62.44848
709.39        62.30791
709.81        62.21419
710.23        62.14545
710.66        62.12707
711.08        62.22197
711.50        62.36211
711.92        62.42194
712.34        62.38022
712.76        62.27608
713.19        62.15581
713.61        62.13842
714.03        62.22847
714.45         62.3826
714.87        62.54868
715.29        62.64982
715.71        62.66576
716.13        62.62823
716.56        62.53918
716.98        62.46971
717.40         62.4221
717.82         62.3834
718.24         62.3834
718.66        62.47072
719.08         62.6433
719.50        62.88132
719.92         63.1176
720.34        63.24196
720.76        63.22672
721.19        63.09321
721.61        62.90973
722.03        62.76383
722.45        62.68904
722.87        62.66633
723.29        62.67568
723.71         62.6807
724.13        62.67247
724.55        62.66946
724.97        62.68748
725.39        62.74622
725.81        62.84486
726.23        62.96433
726.65        63.08308
727.07        63.17403
727.49        63.22627
727.91        63.24436
728.33        63.23091
728.75        63.19206
729.17        63.13655
729.59        63.06985
730.01         63.0013
730.43        62.94684
730.85        62.91027
731.27        62.88378
731.69        62.88232
732.10        62.92692
732.52        63.00359
732.94        63.15426
733.36        63.33242
733.78        63.35997
734.20        63.20026
734.62        63.33011
735.04         62.8325
735.46        63.03109
735.88        63.49874
736.30        63.48132
736.72        63.01977
737.13        62.85359
737.55         63.0254
737.97        63.20689
738.39        63.32798
738.81        63.34816
739.23        63.26965
739.65        63.26282
740.06        63.30239
740.48        63.28073
740.90        63.16802
741.32        63.10583
741.74        63.03406
742.16        63.04643
742.57         63.1274
742.99        63.30035
743.41        63.49989
743.83        63.52123
744.25        63.38224
744.67        63.29541
745.08        63.32487
745.50        63.36756
745.92        63.44748
746.34        63.64842
746.75        63.87476
747.17        63.93181
747.59        63.79171
748.01        63.46685
748.42         63.0982
748.84         63.0048
749.26        63.17934
749.68        63.35136
750.09        63.43287
750.51        63.40238
750.93        63.29202
751.35        63.29571
751.76        63.41147
752.18        63.42657
752.60        63.34492
753.01        63.31839
753.43        63.33525
753.85        63.33716
754.27        63.32169
754.68         63.3056
755.10        63.30992
755.52         63.3593
755.93        63.46487
756.35        63.63052
756.77        63.79609
757.18        63.91059
757.60        63.96839
758.02        63.83951
758.43        63.65769
758.85        63.86908
759.26        64.30595
759.68        64.45927
760.10        64.41785
760.51         63.4678
760.93        63.74334
761.34        63.93441
761.76        64.13852
762.18        64.21693
762.59        64.06325
763.01        63.96077
763.42        64.01068
763.84        64.03117
764.26         64.0657
764.67        64.33083
765.09        64.69875
765.50        64.60149
765.92        64.13092
766.33        63.82834
766.75         63.7449
767.16        63.69205
767.58        63.65982
768.00        63.89922
768.41        64.29384
768.83        64.44106
769.24        64.32134
769.66        64.04149
770.07        63.72804
770.49        63.84396
770.90        64.30472
771.32         64.3699
771.73        64.06798
772.15        64.00316
772.56        64.19427
772.97        64.33012
773.39         64.3419
773.80        64.22914
774.22        64.03674
774.63        64.09735
775.05        64.35598
775.46        64.47419
775.88        64.39863
776.29        64.37836
776.70        64.41196
777.12        64.40075
777.53        64.36151
777.95        64.29666
778.36        64.24815
778.77         64.2657
779.19        64.36539
779.60        64.54934
780.02        64.73138
780.43        64.84436
780.84        64.85506
781.26        64.64688
781.67        64.41499
782.09        64.64674
782.50        65.10236
782.91        65.72128
783.33         64.8175
783.74        64.71425
784.15        64.94009
784.57        64.90891
784.98        64.66738
785.39         64.7461
785.81        65.10222
786.22        65.26048
786.63        65.20696
787.04        65.25507
787.46        65.41203
787.87        65.48386
788.28        65.46104
788.70        65.44133
789.11        65.42139
789.52        65.29414
789.93        65.12343
790.35         65.2289
790.76        65.54073
791.17        65.49313
791.58        65.14236
792.00        65.05027
792.41        65.26292
792.82        65.44747
793.23         65.5817
793.65        65.73862
794.06        65.92195
794.47        66.18916
794.88        66.46696
795.29        66.39684
795.71        66.38158
796.12        66.08442
796.53        65.72927
796.94        65.71298
797.35        65.99709
797.76        66.00807
798.18        65.76813
798.59        65.76936
799.00        66.01953
799.41        66.21914
799.82        66.29337
800.23        66.27708
800.64        66.15407
801.06        65.89671
801.47        65.60995
801.88        65.40003
802.29        65.31239
802.70        65.33694
803.11        65.43613
803.52        65.53458
803.93        65.60356
804.34        65.65189
804.75        65.72171
805.17        65.86393
805.58        66.10803
805.99         66.4269
806.40        66.71129
806.81        66.75646
807.22        66.54481
807.63        66.18873
808.04        65.84985
808.45        65.76453
808.86        65.99639
809.27        66.49033
809.68        67.04415
810.09        67.28125
810.50        67.10441
810.91        66.63284
811.32        66.05972
811.73        65.71966
812.14        65.71864
812.55         65.9173
812.96        66.21878
813.37        66.55247
813.78        66.79942
814.19        66.79295
814.60        66.59901
815.01        66.50702
815.42        66.55367
815.83        66.57533
816.24        66.56652
816.65        66.60016
817.05         66.6803
817.46        66.76295
817.87        66.84808
818.28        66.88108
818.69        66.85123
819.10        66.77177
819.51         66.6782
819.92        66.63425
820.33        66.66118
820.74        66.74247
821.14        66.83154
821.55        66.89217
821.96        66.89204
822.37        66.84069
822.78        66.77673
823.19        66.76551
823.60        66.82785
824.00        66.97283
824.41        67.09348
824.82         67.0993
825.23        66.97046
825.64        66.73267
826.04        66.52579
826.45        66.54723
826.86         66.8415
827.27        67.34555
827.68        67.86858
828.08        68.12214
828.49        67.96825
828.90         67.5331
829.31        67.01378
829.72        66.74715
830.12        66.84872
830.53        67.17287
830.94         67.5858
831.35        67.82985
831.75        67.83965
832.16        67.65985
832.57        67.38179
832.97        67.12772
833.38        66.95301
833.79        66.82692
834.20        66.75839
834.60        66.76178
835.01        66.84148
835.42        66.99403
835.82        67.20813
836.23        67.38007
836.64         67.5013
837.04        67.60228
837.45         67.6481
837.86        67.68345
838.26         67.7347
838.67        67.78429
839.08        67.84779
839.48        67.93872
839.89        68.05354
840.29        68.16831
840.70        68.29974
841.11        68.47475
841.51        68.70311
841.92        68.95055
842.33        69.12127
842.73        69.05283
843.14        68.68562
843.54         68.1066
843.95        67.52357
844.35        67.28832
844.76         67.4682
845.17        67.95989
845.57         68.5511
845.98        68.84542
846.38        68.75424
846.79        68.37561
847.19        67.87345
847.60        67.47921
848.00        67.29925
848.41        67.22185
848.81        67.24343
849.22        67.29237
849.62         67.3688
850.03        67.48816
850.43        67.61031
850.84        67.57809
851.24        67.41183
851.65        67.08227
852.05        66.77792
852.46        66.75829
852.86        67.06819
853.27         67.6172
853.67        68.12953
854.07        68.39705
854.48        68.34401
854.88        68.07684
855.29        67.64218
855.69        67.32564
856.10        67.14725
856.50        67.11165
856.90        67.13389
857.31        67.10255
857.71        67.03221
858.12        66.92082
858.52        66.84562
858.92        66.79729
859.33        66.76965
859.73        66.78262
860.13        66.80965
860.54        66.83516
860.94        66.87919
861.34        66.90759
861.75        66.89774
862.15        66.88219
862.55        66.83434
862.96        66.76787
863.36        66.64916
863.76         66.4149
864.17        66.06743
864.57        65.65788
864.97        65.29463
865.38        65.12626
865.78        65.22566
866.18        65.52271
866.58        65.89723
866.99        66.13986
867.39        66.19921
867.79        66.10038
868.19        65.90894
868.60        65.69556
869.00        65.47928
869.40        65.26105
869.80        65.05679
870.21        64.91639
870.61        64.92091
871.01        65.00521
871.41        65.13229
871.81        65.23631
872.22        65.27532
872.62        65.29434
873.02        65.28965
873.42        65.25062
873.82        65.19215
874.22        65.12775
874.63        65.11975
875.03        65.24384
875.43        65.51082
875.83        65.88108
876.23        66.29593
876.63        66.65677
877.03        66.90709
877.44        67.04111
877.84        67.04725
878.24        66.89265
878.64        66.59736
879.04        66.20618
879.44        65.77372
879.84        65.36331
880.24        65.00187
880.64        64.68438
881.04         64.4619
881.44        64.41336
881.84        64.53791
882.24        64.79521
882.65        65.05342
883.05        65.18504
883.45        65.11616
883.85        64.91786
884.25        64.65034
884.65         64.4089
885.05        64.23304
885.45        64.07961
885.85        64.03395
886.25        64.23852
886.65        64.69344
887.05        65.35595
887.45        65.99003
887.85        66.23466
888.25        66.02077
888.65         65.4311
889.04        64.73026
889.44        64.42348
889.84        64.60464
890.24         65.1187
890.64        65.67477
891.04        65.80417
891.44        65.41399
891.84        64.70529
892.24        63.90736
892.64        63.36881
893.04        63.20174
893.44        63.27934
893.83        63.59086
894.23        64.05234
894.63        64.62391
895.03        65.32754
895.43        65.98207
895.83        66.28838
896.23        66.19198
896.63        65.74944
897.02        65.22608
897.42        65.07334
897.82        65.36285
898.22        65.98598
898.62        66.64875
899.01        66.85637
899.41        66.48191
899.81        65.70628
900.21        64.86405
900.61        64.50364
901.00        64.75018
901.40        65.42374
901.80        66.23661
902.20        66.75193
902.59        66.84924
902.99        66.66768
903.39        66.31841
903.79        65.97028
904.18        65.70829
904.58        65.47485
904.98        65.33123
905.38        65.38531
905.77        65.62006
906.17        66.01653
906.57         66.4248
906.96         66.5933
907.36        66.42986
907.76        66.01386
908.15         65.4722
908.55        64.96603
908.95        64.60506
909.34         64.3409
909.74        64.20654
910.14        64.18004
910.53        64.25154
910.93        64.42371
911.33        64.66669
911.72        64.91394
912.12        65.11249
912.52        65.27007
912.91        65.38084
913.31        65.47594
913.70        65.56686
914.10        65.63013
914.49        65.69997
914.89        65.78726
915.29        65.90339
915.68        66.03904
916.08        66.15793
916.47        66.19129
916.87        66.14866
917.26        66.04362
917.66        65.92903
918.05        65.85642
918.45        65.82721
918.84         65.8302
919.24        65.84441
919.64        65.91278
920.03        66.04926
920.42        66.25988
920.82        66.43871
921.21        66.40665
921.61        66.13156
922.00        65.65264
922.40        65.21564
922.79        65.31654
923.19        65.99487
923.58        67.10645
923.98        68.17109
924.37        68.52544
924.77        68.02424
925.16        66.86175
925.55         65.4697
925.95        64.60733
926.34        64.51413
926.74        64.96378
927.13        65.68214
927.52        66.11977
927.92        66.14657
928.31        65.94437
928.70        65.69079
929.10        65.63858
929.49        65.84725
929.89        66.15005
930.28        66.52502
930.67        66.85126
931.07        67.05218
931.46        67.20912
931.85        67.20461
932.24        66.87978
932.64        66.25069
933.03         65.3796
933.42        64.54617
933.82        64.19947
934.21        64.44036
934.60        65.16151
934.99        66.05652
935.39        66.57584
935.78        66.58614
936.17        66.21085
936.56        65.71886
936.96        65.56987
937.35        65.92866
937.74        66.59452
938.13        67.29932
938.53        67.67496
938.92        67.64861
939.31        67.33302
939.70        66.92402
940.09        66.75381
940.49        66.87905
940.88        67.19579
941.27        67.51606
941.66        67.56435
942.05        67.28634
942.44        66.82301
942.84        66.27502
943.23        65.73225
943.62        65.28294
944.01         64.8677
944.40        64.61974
944.79        64.76852
945.18        65.31368
945.57        66.17089
945.97         66.9584
946.36        67.18172
946.75        66.71178
947.14        65.67546
947.53        64.44319
947.92         63.6907
948.31        63.62133
948.70        64.05209
949.09         64.6383
949.48        64.82363
949.87          64.482
950.26        63.82056
950.65        63.11146
951.04        62.77147
951.43        62.91203
951.82        63.37185
952.21        63.97755
952.60        64.44466
952.99        64.65178
953.38        64.68204
953.77         64.5752
954.16        64.38828
954.55        64.15701
954.94        63.85371
955.33        63.51956
955.72         63.2402
956.11        63.04014
956.50        62.92106
956.89        62.85891
957.28        62.77872
957.66        62.69835
958.05         62.6567
958.44        62.65877
958.83        62.71646
959.22        62.81205
959.61        62.85124
960.00         62.9385
960.39        63.25336
960.78         63.7877
961.16        64.54681
961.55        65.06901
961.94        64.66429
962.33        63.26799
962.72        61.19092
963.11        59.18907
963.49        58.35709
963.88        58.91449
964.27        60.55603
964.66        62.68335
965.04        64.18862
965.43        64.58652
965.82         64.2094
966.21        63.46681
966.60        63.01833
966.98        63.05769
967.37        63.32136
967.76        63.63036
968.15         63.6703
968.53        63.37094
968.92        62.95292
969.31         62.5428
969.69        62.25533
970.08        62.15549
970.47        62.20055
970.86        62.55608
971.24        63.51483
971.63        64.94994
972.02        66.66462
972.40        68.30262
972.79        69.25735
973.17        69.52251
973.56        69.19114
973.95        68.49597
974.33        67.83727
974.72        67.37433
975.11        66.98938
975.49        66.64416
975.88        66.29879
976.26        65.94386
976.65        65.67664
977.04        65.40521
977.42        64.91428
977.81        64.13997
978.19        63.07784
978.58        62.18245
978.96        62.16853
979.35        63.15025
979.74        64.93824
980.12        66.84882
980.51        67.56524
980.89        66.89824
981.28        65.09015
981.66        62.95061
982.05        62.04965
982.43        62.79542
982.82        64.62317
983.20        66.73133
983.59         67.7204
983.97        67.32979
984.35        65.98579
984.74        64.12034
985.12        62.47976
985.51        61.44205
985.89        60.84365
986.28         60.7288
986.66        61.27861
987.04        62.36213
987.43        63.86209
987.81        65.48857
988.20        66.58517
988.58        66.96873
988.96        66.81481
989.35        66.07491
989.73        64.80746
990.12        63.05888
990.50        60.65804
990.88        58.33592
991.27        57.73544
991.65        59.27463
992.03        62.47172
992.42        65.62606
992.80        66.94316
993.18        66.02494
993.56        63.16842
993.95        59.49283
994.33         57.7863
994.71        59.25171
995.10        62.50052
995.48        65.84637
995.86        67.48626
996.24        67.25117
996.63        65.65258
997.01        63.33829
997.39        61.71675
997.77        61.50988
998.15        62.30441
998.54        63.34927
998.92        63.64915
999.30        62.95581
999.68         61.5984
1000.06        60.23476
1000.45        59.95277
1000.83        61.07508
1001.21        63.11324
1001.59        65.20802
1001.97         66.1488
1002.35        65.68388
1002.73        64.19188
1003.12        62.26121
1003.50        61.00808
1003.88        60.98996
1004.26        61.70798
1004.64        62.89954
1005.02        64.29027
1005.40        65.74444
1005.78        67.44677
1006.16        68.87045
1006.54        69.01173
1006.92        67.68138
1007.30        65.10965
1007.69        62.38879
1008.07        61.29195
1008.45        62.30758
1008.83        64.87373
1009.21        67.80517
1009.59         69.3634
1009.97        69.08349
1010.35        67.30531
1010.73        64.68223
1011.11        62.97846
1011.49        63.09446
1011.86        64.56424
1012.24        66.38206
1012.62        67.42252
1013.00        67.44288
1013.38        66.93344
1013.76        66.23794
1014.14        65.86368
1014.52         66.0069
1014.90        66.39454
1015.28        67.10316
1015.66        68.27613
1016.04        69.80902
1016.41        71.77763
1016.79        73.37473
1017.17         73.7953
1017.55        72.98869
1017.93        71.21678
1018.31        69.44187
1018.69        69.20889
1019.06         70.9613
1019.44        74.43739
1019.82        78.58896
1020.20        81.06302
1020.58        80.92908
1020.95        78.79333
1021.33        76.03692
1021.71        74.41682
1022.09        74.21281
1022.46        74.82564
1022.84         75.4175
1023.22        74.36785
1023.60        71.07797
1023.97        65.67231
1024.35          59.286
1024.73        54.33136
