SpectraSmart Spectrum 2.9.0.0
--------- Device Information -----------
Spectrum Name :  反射率_0
Saving Time :  2024/04/27 23:51:30
Spectro-Module Model Name : SE2030-DUVN
Spectro-Module Serial Number : OS361AC55029948
Wavelength Start : 200
Wavelength End : 1025
Wavelength Unit : Wavelength(nm)
Spectrum Unit : Reflectance(%)
-----------Spectrum Setting ------------
Integration Time : 20ms
Average : 10
Boxcar : 0
Background removal :  enabled
linearity correction :  enabled
SC :  disabled
Intensity correction :  disabled
DWT denoise :  enabled
savitzky-golay :  disabled
FFT :  disabled
Running average :  disabled
Kalman :  disabled
High pass :  disabled
---------------BEGIN--------------------
Wavelength(nm)             Reflectance(%)
200.29               0
200.75        40.10281
201.21        54.54306
201.67        65.20488
202.13        68.74531
202.58        67.45647
203.04        63.60825
203.50        60.33772
203.96         61.7319
204.42        67.25447
204.88        74.52821
205.34        80.40456
205.80        82.17013
206.26        79.34937
206.72        70.71364
207.18        56.44156
207.64        48.18893
208.10        54.05009
208.55         66.2804
209.01        73.64621
209.47        71.94586
209.93        59.30109
210.39        22.75108
210.85       -93.03146
211.31        -249.919
211.77       -94.46069
212.23        16.64017
212.69        57.07116
213.14        69.24683
213.60        68.11386
214.06        57.78926
214.52         35.5146
214.98        13.76704
215.44        12.62008
215.90        21.30681
216.36        30.75188
216.81        37.96329
217.27        43.23206
217.73        48.72243
218.19        53.15225
218.65        53.36516
219.11         48.6034
219.57        39.12717
220.02         27.1075
220.48        20.51435
220.94        21.98583
221.40        28.30497
221.86        36.31159
222.32         42.7695
222.77        47.07037
223.23        50.23253
223.69        51.66084
224.15        50.36768
224.61         46.6842
225.06        40.70941
225.52        34.99292
225.98        34.12721
226.44        38.06645
226.90        43.77119
227.36        48.55278
227.81        50.45797
228.27        49.70644
228.73        47.09761
229.19        43.18039
229.65        39.25877
230.10        36.12949
230.56        33.86678
231.02         32.3484
231.48        31.43242
231.93        30.95289
232.39        31.03919
232.85        31.77748
233.31         33.2248
233.77        35.23751
234.22        37.75397
234.68        40.03912
235.14        41.33472
235.60        41.58216
236.05        40.80687
236.51        40.09697
236.97        41.58704
237.43        45.81177
237.88        52.10633
238.34        58.21562
238.80        62.12971
239.26        63.57968
239.71        62.62886
240.17        59.57973
240.63        58.56242
241.08        62.56899
241.54        68.18862
242.00        72.42206
242.46        74.38804
242.91        74.71918
243.37        73.52498
243.83        70.15513
244.28        65.59806
244.74        64.99284
245.20        68.53604
245.66        71.58553
246.11        71.91009
246.57        69.69493
247.03        65.10902
247.48        58.04772
247.94        53.17741
248.40        55.72264
248.85        62.86465
249.31        71.10358
249.77        77.82212
250.22        82.43218
250.68        85.36615
251.14        87.45662
251.59        89.72145
252.05        92.80653
252.51        97.11417
252.96        101.3523
253.42        101.2302
253.88         95.4455
254.33        87.76048
254.79        82.71048
255.25        81.52302
255.70        82.73238
256.16        85.35526
256.62        87.99271
257.07         89.3121
257.53        89.73689
257.99        89.42161
258.44        88.25499
258.90        86.67484
259.35         84.4183
259.81        82.12006
260.27        79.83492
260.72        77.76501
261.18        76.35318
261.63        75.11132
262.09        74.17158
262.55        73.13583
263.00        71.85734
263.46        70.61993
263.91        69.33697
264.37        68.35922
264.83        67.60358
265.28        66.90496
265.74        66.25197
266.19        65.33736
266.65        64.21855
267.11        62.92168
267.56        61.48881
268.02        60.10995
268.47        58.80227
268.93        57.56089
269.38         56.3923
269.84        55.34853
270.30        54.40873
270.75        53.54268
271.21        52.68624
271.66        51.67356
272.12        50.49544
272.57        49.15904
273.03        47.75784
273.48        46.34769
273.94        45.04485
274.39         43.8145
274.85        42.73708
275.31        41.81175
275.76        41.00676
276.22        40.34953
276.67        39.77108
277.13        39.29271
277.58        38.83153
278.04        38.42314
278.49        37.95823
278.95         37.4206
279.40        36.75216
279.86        36.04081
280.31        35.30756
280.77        34.72633
281.22         34.2768
281.68        33.96939
282.13        33.70963
282.59        33.43013
283.04        33.08937
283.50        32.74306
283.95        32.42154
284.41        32.21967
284.86        32.13515
285.32        32.16094
285.77        32.22734
286.22        32.28869
286.68        32.34137
287.13        32.34912
287.59        32.37556
288.04        32.43115
288.50        32.54856
288.95        32.68809
289.41        32.80997
289.86        32.79737
290.32        32.67777
290.77        32.49473
291.22        32.38082
291.68        32.51916
292.13        32.94217
292.59        33.62564
293.04        34.47385
293.50        35.36153
293.95         36.2396
294.40        37.15541
294.86        38.17645
295.31         39.3972
295.77        40.84565
296.22        42.46561
296.68        44.18503
297.13        45.85805
297.58        47.44507
298.04        48.98393
298.49        50.52993
298.95        52.22806
299.40         54.0994
299.85        56.09822
300.31         58.1874
300.76        60.24236
301.21        62.21482
301.67         64.1498
302.12        65.97803
302.58         67.6991
303.03        69.30359
303.48        70.84627
303.94         72.4723
304.39        74.30402
304.84        76.39088
305.30        78.68678
305.75        81.03856
306.20        83.31307
306.66        85.47678
307.11        87.50552
307.57        89.44106
308.02         91.2198
308.47        92.86208
308.93        94.37849
309.38        95.76133
309.83        97.12129
310.29        98.50995
310.74        99.89095
311.19        101.2508
311.65        102.5273
312.10        103.6631
312.55        104.6767
313.00        105.6113
313.46         106.545
313.91        107.4778
314.36        108.4078
314.82        109.2605
315.27        109.9123
315.72         110.349
316.18        110.6324
316.63        110.8711
317.08        111.2763
317.53        111.8921
317.99         112.644
318.44        113.4227
318.89        114.0202
319.35        114.3787
319.80         114.576
320.25         114.682
320.70        114.8194
321.16        115.0212
321.61        115.2644
322.06         115.545
322.51        115.8702
322.97         116.212
323.42        116.6181
323.87        117.0159
324.32        117.3016
324.78        117.4391
325.23        117.4954
325.68        117.5381
326.13        117.7169
326.59        118.0436
327.04        118.5301
327.49         119.078
327.94        119.5625
328.39         119.945
328.85        120.2208
329.30        120.5113
329.75        120.8461
330.20        121.2395
330.66        121.6227
331.11        122.0355
331.56         122.418
332.01        122.7685
332.46        123.1138
332.92        123.3974
333.37        123.6908
333.82        123.9493
334.27        124.1758
334.72        124.4418
335.17        124.8657
335.63        125.4385
336.08        126.1873
336.53        126.9647
336.98        127.5744
337.43        127.9597
337.88        128.1607
338.34        128.2769
338.79        128.5441
339.24        128.9986
339.69        129.5879
340.14        130.1905
340.59        130.6066
341.05        130.8033
341.50        130.8756
341.95        130.9556
342.40        131.2609
342.85          131.84
343.30        132.5983
343.75        133.4359
344.20        134.1973
344.66        134.8168
345.11        135.3244
345.56        135.6938
346.01        135.8828
346.46        135.9112
346.91        135.8051
347.36        135.6704
347.81        135.6742
348.26        135.8536
348.72        136.1639
349.17         136.528
349.62        136.8386
350.07        137.0419
350.52         137.158
350.97        137.1715
351.42        137.0585
351.87        136.8343
352.32        136.5228
352.77        136.1623
353.22        135.8189
353.67        135.5113
354.13        135.2219
354.58         134.952
355.03        134.7666
355.48        134.6421
355.93        134.5452
356.38        134.3299
356.83        133.7673
357.28        132.8376
357.73        131.6473
358.18        130.3765
358.63        129.3012
359.08        128.5094
359.53        127.9307
359.98        127.5042
360.43        127.1278
360.88        126.7371
361.33        126.3328
361.78        125.8813
362.23         125.319
362.68        124.6237
363.13        123.8226
363.58        122.9013
364.03        121.7504
364.48        120.5687
364.93        119.2667
365.38        118.0047
365.83        116.9445
366.28        116.1192
366.73        115.4762
367.18        114.9259
367.63        114.3163
368.08        113.5981
368.53        112.8189
368.98        111.9879
369.43        111.1241
369.88        110.2504
370.33         109.356
370.78        108.5069
371.23        107.8175
371.68        107.3021
372.13        106.9252
372.58          106.59
373.03        106.1331
373.48        105.5087
373.93        104.7608
374.38        103.9531
374.83        103.1872
375.28        102.4981
375.72         101.842
376.17        101.2311
376.62        100.6133
377.07        99.97598
377.52        99.32487
377.97        98.69485
378.42        98.13612
378.87        97.65238
379.32        97.23294
379.77        96.79444
380.22        96.20502
380.67        95.45087
381.11        94.58448
381.56        93.73366
382.01        93.12499
382.46        92.81523
382.91        92.73006
383.36         92.7387
383.81        92.63264
384.26        92.34873
384.71        91.94714
385.15        91.46941
385.60        91.04619
386.05        90.69296
386.50        90.36887
386.95        90.06279
387.40          89.771
387.85        89.48802
388.29        89.16761
388.74        88.89321
389.19        88.57069
389.64        88.17888
390.09        87.70889
390.54        87.19724
390.98         86.6901
391.43        86.27525
391.88        85.95486
392.33        85.66312
392.78        85.34042
393.23        85.00351
393.67        84.50033
394.12        84.05863
394.57        84.16812
395.02        84.55323
395.47         84.4538
395.91        83.86565
396.36        83.56841
396.81        83.60565
397.26        83.52834
397.71        83.31303
398.15         83.1164
398.60        83.01605
399.05        82.81211
399.50        82.56943
399.95        82.53249
400.39        82.61266
400.84        82.44999
401.29        82.03833
401.74        81.39912
402.18          80.756
402.63        80.71259
403.08        81.18111
403.53        81.32056
403.97        81.06086
404.42        80.93555
404.87        80.91827
405.32        80.77689
405.76        80.50516
406.21        80.08516
406.66        79.62061
407.11        79.49402
407.55        79.65575
408.00         79.5525
408.45        79.18616
408.90        78.85555
409.34        78.63545
409.79        78.61411
410.24         78.7393
410.68         78.7917
411.13        78.74281
411.58        78.74976
412.03        78.79892
412.47        78.79045
412.92        78.68922
413.37        78.55112
413.81        78.38503
414.26        78.26102
414.71        78.17225
415.15        78.12356
415.60        78.07961
416.05        78.04839
416.49        78.03226
416.94        78.02051
417.39        78.00726
417.83        77.97784
418.28        77.91962
418.73        77.81578
419.17        77.69038
419.62        77.59013
420.07        77.53799
420.51         77.5287
420.96        77.51636
421.41        77.43267
421.85        77.24651
422.30        76.86255
422.74        76.42563
423.19        76.63161
423.64        77.33208
424.08        77.61063
424.53        77.30508
424.98          77.194
425.42        77.32042
425.87        76.93946
426.31        76.28449
426.76        76.52039
427.21        77.45595
427.65        77.58794
428.10        76.95552
428.54        76.82047
428.99        77.21941
429.44        77.55057
429.88        77.68598
430.33        77.44133
430.77        76.91612
431.22        76.98767
431.66         77.5427
432.11        77.48914
432.56        76.94364
433.00        77.06281
433.45        77.57971
433.89        77.58291
434.34        77.24857
434.78        75.99692
435.23        76.36893
435.67        76.95138
436.12        77.72713
436.57        77.76769
437.01        77.14351
437.46        76.80914
437.90        76.98994
438.35        78.02107
438.79        77.50047
439.24        77.62006
439.68        77.70625
440.13        77.77283
440.57        77.79578
441.02        78.01339
441.46         78.2896
441.91         77.9362
442.35        77.13237
442.80        77.21699
443.24        78.03814
443.69        78.15533
444.13        77.50134
444.58        77.98503
445.02        77.90482
445.47        78.13644
445.91        78.13416
446.36        78.15476
446.80        78.17892
447.24        78.10101
447.69        78.01424
448.13        78.18017
448.58        78.52656
449.02        78.57417
449.47        78.38047
449.91        78.38166
450.36        78.61059
450.80         78.7759
451.25        78.85818
451.69        78.93358
452.13        78.97737
452.58        78.90057
453.02        78.72826
453.47        78.54533
453.91        78.36102
454.36        78.26713
454.80        78.16634
455.24        77.76085
455.69        77.21355
456.13        76.81729
456.58        76.68021
457.02        76.96702
457.46        77.35818
457.91        77.14017
458.35        76.65662
458.79         76.4163
459.24        76.53565
459.68        76.58952
460.13        76.56944
460.57        76.30597
461.01        76.14425
461.46        75.90398
461.90        75.65316
462.34        75.39851
462.79        75.95712
463.23        75.95958
463.68         75.6835
464.12        75.43122
464.56        75.31262
465.01        75.53055
465.45        75.80601
465.89        75.68798
466.34         75.2851
466.78        74.80061
467.22        74.32069
467.67        74.97456
468.11         74.7589
468.55        74.81657
468.99        74.58508
469.44        74.54598
469.88        74.68999
470.32         74.7271
470.77         74.6405
471.21         74.5298
471.65        74.40038
472.10        74.24593
472.54        74.06015
472.98        73.91588
473.42        73.83586
473.87        73.70722
474.31        73.54589
474.75        73.75082
475.20        74.16403
475.64        74.10607
476.08        73.63487
476.52        73.43208
476.97        73.52514
477.41        73.63522
477.85        73.34447
478.29        73.40006
478.74        73.67293
479.18         72.7916
479.62         73.3923
480.06        73.31822
480.50        73.38778
480.95        73.36776
481.39        73.15304
481.83        73.65333
482.27        73.47912
482.72        73.00394
483.16        73.25114
483.60        73.13783
484.04        73.07366
484.48        73.03471
484.93        73.08611
485.37        73.16461
485.81        73.68927
486.25        73.68369
486.69         73.2045
487.14        72.39943
487.58        73.01007
488.02        72.95419
488.46        73.22805
488.90        73.69788
489.34        73.28187
489.79        72.15592
490.23        73.10439
490.67         73.0588
491.11        72.89815
491.55        72.64987
491.99        72.42425
492.43          72.372
492.88        72.47685
493.32        72.64616
493.76        72.78625
494.20         72.8852
494.64        72.93682
495.08        72.86685
495.52         72.7226
495.96        72.79704
496.41        73.03471
496.85        72.87494
497.29        72.41057
497.73        72.53647
498.17        73.04523
498.61        73.11607
499.05        72.69643
499.49        72.52851
499.93        72.68453
500.37        72.64771
500.82        72.40865
501.26        72.61956
501.70        73.30154
502.14        72.51372
502.58        72.88174
503.02        72.77145
503.46        72.66739
503.90        72.56825
504.34        72.41488
504.78        72.38101
505.22        72.44127
505.66        72.37946
506.10        72.23994
506.54        72.42972
506.98        72.89423
507.42        72.85873
507.86        72.88519
508.30        72.81726
508.74        72.83411
509.18        72.73073
509.62        72.54237
510.06        72.41483
510.50        72.36416
510.94         72.3578
511.38        72.37856
511.82        72.39378
512.26        72.39111
512.70        72.39185
513.14        72.39432
513.58        72.36397
514.02        72.29779
514.46        72.24918
514.90        72.25842
515.34        72.13615
515.78        72.30484
516.22        72.41413
516.66        72.54548
517.10        72.61975
517.54        72.62155
517.98        72.56357
518.42        72.47746
518.86        72.42786
519.30        72.43012
519.74        72.46595
520.18        72.50485
520.62        72.49844
521.06        72.43879
521.50        72.34811
521.93        72.26098
522.37        72.21564
522.81        72.22949
523.25        72.28381
523.69        72.35712
524.13        72.41836
524.57        72.45301
525.01        72.46454
525.45        72.45632
525.89        72.43388
526.32        72.39736
526.76        72.36301
527.20        72.31773
527.64        72.26474
528.08         72.2084
528.52         72.1088
528.96        72.00735
529.40        72.05544
529.83        72.20783
530.27        72.26238
530.71        72.18742
531.15        72.11715
531.59        72.05032
532.03         71.8904
532.46        71.69124
532.90        71.61609
533.34        71.67997
533.78        71.83636
534.22        72.00568
534.66        72.06673
535.09        71.98582
535.53        71.82433
535.97        71.64364
536.41        71.55611
536.85        71.58994
537.28        71.71172
537.72        71.86335
538.16        71.94181
538.60        71.92501
539.04        71.86337
539.47        71.78344
539.91        71.76518
540.35        71.80559
540.79        71.88863
541.22        71.97419
541.66         72.0106
542.10        71.98087
542.54        71.90693
542.97        71.80598
543.41        71.74294
543.85         71.7202
544.29         71.7281
544.72        71.73763
545.16        71.74197
545.60        71.71887
546.04        71.66556
546.47        71.60102
546.91        71.57639
547.35        71.59097
547.79        71.63023
548.22        71.61977
548.66        71.59731
549.10        71.29687
549.53        71.24509
549.97        71.36499
550.41        71.43649
550.84        71.45036
551.28        71.56068
551.72        71.71665
552.15        71.74577
552.59        71.65009
553.03        71.46456
553.46          71.256
553.90        71.18388
554.34        71.25601
554.77        71.42926
555.21        71.61246
555.65        71.68761
556.08        71.53878
556.52        71.34859
556.96        71.15621
557.39        71.09598
557.83        71.17683
558.27        71.21227
558.70         71.1979
559.14        71.23636
559.57        71.30343
560.01         71.4311
560.45        71.53519
560.88         71.4126
561.32        71.19048
561.75        71.04742
562.19        71.06456
562.63          71.326
563.06        71.67879
563.50        71.60917
563.93        71.18262
564.37        71.00948
564.80        71.08698
565.24         71.1946
565.68        71.32297
566.11        71.09452
566.55        71.37261
566.98        71.40146
567.42        71.44578
567.85        71.51228
568.29        71.62874
568.72        71.55654
569.16         71.3409
569.60        71.34611
570.03        71.62159
570.47         71.2767
570.90        71.16106
571.34        71.66966
571.77        71.57424
572.21        71.05253
572.64        71.19873
573.08        71.18997
573.51        71.14789
573.95        71.30388
574.38        71.29174
574.82        71.29005
575.25        71.44237
575.69        71.16443
576.12        71.16179
576.56        71.58295
576.99        71.46106
577.42        71.69027
577.86        71.40137
578.29        71.52699
578.73        71.23283
579.16        71.25178
579.60        71.30189
580.03        71.26782
580.47        71.05552
580.90        71.48084
581.33         71.7468
581.77        71.70129
582.20        71.44874
582.64        71.08495
583.07        71.00853
583.51         70.9759
583.94        71.29669
584.37        71.42851
584.81        71.33671
585.24        71.38329
585.68        71.63103
586.11        71.41502
586.54        71.07461
586.98        71.25237
587.41        71.64229
587.85        71.29361
588.28         71.1483
588.71        71.08379
589.15        71.42642
589.58        71.09696
590.01        71.15015
590.45        71.65267
590.88        70.99018
591.31        70.99707
591.75        71.04762
592.18        71.01383
592.61        71.11098
593.05        70.80039
593.48        71.46275
593.91        71.11706
594.35        70.87697
594.78        71.29998
595.21        71.27782
595.65        71.22205
596.08         70.8245
596.51        70.95532
596.94        71.02954
597.38        71.17664
597.81        71.32845
598.24        70.84003
598.68        71.20976
599.11        70.97594
599.54        71.47959
599.97        70.72023
600.41        71.10897
600.84        71.00758
601.27        71.06572
601.70        70.70817
602.14        70.60874
602.57          70.936
603.00        71.01979
603.43        71.08791
603.87        71.36499
604.30        70.94887
604.73        70.82784
605.16        71.52934
605.60        71.23657
606.03        71.33501
606.46        71.18996
606.89        71.32042
607.32        71.37758
607.76        71.52335
608.19        71.40594
608.62        71.33903
609.05        71.29329
609.48        71.31731
609.92        71.36889
610.35        71.34065
610.78        71.23098
611.21        70.94727
611.64        71.33092
612.07        71.25671
612.50        70.99545
612.94        70.94331
613.37        71.17825
613.80        70.97075
614.23        71.28257
614.66        71.23466
615.09        71.09631
615.52        71.16335
615.96        71.48685
616.39        71.04086
616.82        71.04788
617.25        71.35184
617.68        71.08797
618.11        70.98605
618.54        70.80495
618.97        70.90383
619.40        71.13589
619.84        71.54015
620.27        71.32034
620.70        71.15788
621.13        70.81084
621.56        71.20625
621.99        71.06361
622.42        70.77769
622.85        70.67972
623.28        70.84843
623.71        71.16766
624.14        70.44476
624.57        71.03032
625.00        71.41899
625.43         70.8119
625.86        70.80827
626.29        71.06134
626.72        70.56972
627.15        70.78913
627.58        70.77921
628.01        71.08211
628.44        70.73631
628.87         70.7309
629.30        71.30959
629.73        70.91129
630.16        70.23882
630.59        70.64542
631.02        70.67397
631.45        70.80406
631.88        70.93147
632.31        71.08096
632.74        70.91373
633.17        71.12086
633.60        71.12494
634.03        71.12813
634.46        71.11665
634.89        71.09137
635.32         71.0276
635.75        70.92188
636.18        70.83456
636.61         70.7681
637.04        70.64144
637.47        70.50146
637.89        70.54342
638.32        70.73041
638.75        70.87509
639.18        70.95522
639.61        71.07504
640.04        71.20288
640.47        71.25663
640.90        71.22992
641.33        71.11147
641.76        70.93332
642.18         70.9295
642.61        70.83746
643.04        70.86044
643.47        70.88622
643.90        70.86785
644.33        70.78999
644.76        70.67566
645.18        70.55485
645.61        70.45684
646.04        70.39647
646.47        70.36064
646.90        70.34171
647.33        70.33511
647.75        70.34483
648.18        70.35845
648.61        70.36797
649.04        70.43888
649.47        70.52986
649.89        70.43167
650.32        70.23636
650.75        70.29523
651.18        70.59602
651.61        70.89581
652.03         71.0209
652.46        70.89661
652.89        70.71162
653.32        70.34589
653.74        70.17264
654.17        71.29976
654.60        70.81973
655.03        70.77058
655.46        71.09216
655.88        71.36731
656.31        72.01081
656.74        72.35547
657.16        70.91093
657.59        70.17029
658.02        70.36786
658.45        71.13583
658.87         71.4866
659.30        71.00674
659.73        70.60483
660.15        70.86443
660.58        70.64281
661.01        70.81786
661.44        70.89213
661.86        70.94339
662.29        70.92174
662.72        70.78296
663.14        70.61444
663.57        70.60764
664.00        70.75796
664.42         70.8095
664.85        70.75956
665.27        70.77511
665.70        70.83617
666.13        70.83374
666.55        70.76464
666.98        70.64938
667.41        70.54275
667.83        70.53234
668.26        70.62911
668.69         70.8189
669.11        71.02196
669.54        71.12943
669.96        71.12397
670.39         70.9453
670.82        70.71273
671.24        70.79655
671.67        71.13553
672.09        71.26028
672.52        71.15809
672.94         71.0618
673.37        71.01668
673.80        70.99447
674.22        71.00925
674.65        70.98162
675.07        70.93359
675.50        70.92741
675.92        70.96133
676.35        70.96714
676.77        70.94439
677.20        70.91708
677.62        70.89982
678.05        70.89381
678.47        70.90087
678.90         70.9241
679.32          70.958
679.75        71.00957
680.17        71.07571
680.60        71.16388
681.02        71.23466
681.45        71.23477
681.87        71.17439
682.30        70.96922
682.72        70.72513
683.15        70.82353
683.57        71.20043
684.00        71.26369
684.42        71.03437
684.85        71.02494
685.27        71.22994
685.70        71.34657
686.12        71.34489
686.54        71.35087
686.97        71.34212
687.39        71.29374
687.82        71.22452
688.24        71.03145
688.66        71.07254
689.09         71.0469
689.51        71.07172
689.94        71.13577
690.36        71.24387
690.78        71.34566
691.21        71.42153
691.63        71.53042
692.06        71.61859
692.48        71.48506
692.90        71.19407
693.33        71.01222
693.75         70.9856
694.17        71.00243
694.60        71.00368
695.02        71.03887
695.44        71.09903
695.87        70.98705
696.29        70.81726
696.71        71.21421
697.14        71.96793
697.56        72.00748
697.98        71.40004
698.41        71.19817
698.83        71.41567
699.25        71.48135
699.68        71.36578
700.10        71.36072
700.52        71.45952
700.94        71.59083
701.37        71.69453
701.79        71.70791
702.21        71.59946
702.64        71.42097
703.06        71.23105
703.48        71.13707
703.90         71.1694
704.33        71.28493
704.75        71.44817
705.17        71.57631
705.59        71.64259
706.01        71.64764
706.44         71.6032
706.86        71.66901
707.28        71.65752
707.70        71.68238
708.12        71.69688
708.55        71.76251
708.97        71.84481
709.39        71.83483
709.81        71.74361
710.23        71.70245
710.66        71.72155
711.08        71.74204
711.50        71.74328
711.92        71.75041
712.34        71.76521
712.76        71.78432
713.19        71.80282
713.61        71.86148
714.03        71.94109
714.45        72.02831
714.87        72.12167
715.29        72.22001
715.71        72.31613
716.13        72.40929
716.56        72.45234
716.98        72.44524
717.40         72.3644
717.82        72.22954
718.24        72.09059
718.66        72.02797
719.08        72.05946
719.50        72.15517
719.92        72.28431
720.34        72.39391
720.76        72.46063
721.19        72.49204
721.61        72.48469
722.03        72.40097
722.45        72.24635
722.87        72.03382
723.29         71.8279
723.71        71.73419
724.13         71.7805
724.55        71.94393
724.97        72.16364
725.39        72.33362
725.81        72.41871
726.23        72.43921
726.65        72.43629
727.07        72.48052
727.49        72.58559
727.91        72.72227
728.33        72.84014
728.75        72.86003
729.17        72.76778
729.59        72.59937
730.01         72.4097
730.43        72.28634
730.85         72.2503
731.27        72.26476
731.69        72.31615
732.10        72.38271
732.52        72.43879
732.94        72.55098
733.36        72.67573
733.78        72.63738
734.20         72.4143
734.62        72.48678
735.04        71.93891
735.46        72.21915
735.88        72.86602
736.30        72.99146
736.72        72.62017
737.13        72.52826
737.55        72.73895
737.97        73.00603
738.39        73.21024
738.81        72.97436
739.23        72.42453
739.65        72.41784
740.06        72.86677
740.48        72.99583
740.90        72.74884
741.32        72.65904
741.74        72.66524
742.16        72.71587
742.57        72.79001
742.99        72.91017
743.41        73.04436
743.83        73.12686
744.25        73.14169
744.67        73.08788
745.08        73.02483
745.50        73.01389
745.92        73.08936
746.34        73.23616
746.75        73.37636
747.17        73.39764
747.59        73.27803
748.01        72.99534
748.42        72.68821
748.84        72.65842
749.26        72.87443
749.68        73.11893
750.09        73.27518
750.51        73.11087
750.93        72.75888
751.35        72.85497
751.76        73.32871
752.18        73.46821
752.60        73.24287
753.01        73.09538
753.43        73.07079
753.85        73.05557
754.27        73.06018
754.68        73.21339
755.10        73.31114
755.52        73.45439
755.93        73.58054
756.35        73.70251
756.77         73.7785
757.18        73.85823
757.60        73.96502
758.02        73.84976
758.43        73.56177
758.85        74.06032
759.26        73.99713
759.68         74.1619
760.10        74.29012
760.51        73.35328
760.93        73.76413
761.34        73.80577
761.76        74.03179
762.18        74.10754
762.59        74.03049
763.01        73.94924
763.42        73.96673
763.84        73.98531
764.26        74.03075
764.67        74.27368
765.09        74.60593
765.50        74.41515
765.92        73.87096
766.33        73.77129
766.75        74.07923
767.16        74.21502
767.58        74.10644
768.00        74.16848
768.41        74.38806
768.83        74.57235
769.24        74.67127
769.66        74.46608
770.07         74.0656
770.49        74.18089
770.90        74.71117
771.32         74.7056
771.73        74.22185
772.15        74.03787
772.56        74.19112
772.97        74.31356
773.39        74.33669
773.80        74.26447
774.22        74.14535
774.63        74.36938
775.05        74.83975
775.46         75.1041
775.88        75.08022
776.29        75.06468
776.70        75.09121
777.12        75.10529
777.53        75.14513
777.95        75.20559
778.36        75.28123
778.77        75.34016
779.19        75.37373
779.60        75.40045
780.02         75.4193
780.43        75.44656
780.84        75.45914
781.26        75.47205
781.67        75.54927
782.09        75.54916
782.50        75.36922
782.91        75.95798
783.33        75.34746
783.74        75.36908
784.15        75.43768
784.57        75.40533
784.98        75.30111
785.39        75.43644
785.81        75.74342
786.22        75.76318
786.63        75.53306
787.04        75.49383
787.46        75.67949
787.87        75.83625
788.28        75.92564
788.70        76.02873
789.11        76.12201
789.52        76.07249
789.93        75.96572
790.35        76.20145
790.76        76.69601
791.17        76.76431
791.58        76.41835
792.00        76.26929
792.41        76.36846
792.82        76.29124
793.23        76.11753
793.65        76.23208
794.06        76.62128
794.47        77.02245
794.88        77.31638
795.29        77.28962
795.71        77.39966
796.12        77.06881
796.53        76.58088
796.94        76.63802
797.35        77.16222
797.76        77.17689
798.18        76.71896
798.59        76.62955
799.00        76.93523
799.41        77.14973
799.82        77.18545
800.23        77.15112
800.64        77.03135
801.06        76.77007
801.47        76.49982
801.88        76.36197
802.29        76.39954
802.70        76.58774
803.11        76.83072
803.52        76.95457
803.93        76.91203
804.34         76.7466
804.75        76.56377
805.17        76.52837
805.58        76.71211
805.99        77.03223
806.40         77.3634
806.81        77.51463
807.22        77.42431
807.63        77.12384
808.04        76.76611
808.45        76.65595
808.86        76.86156
809.27        77.26215
809.68        77.71571
810.09        77.98813
810.50        78.00095
810.91        77.83012
811.32        77.55595
811.73        77.32634
812.14        77.20196
812.55        77.09397
812.96        77.01588
813.37        77.10974
813.78        77.31496
814.19        77.37189
814.60          77.291
815.01         77.3061
815.42        77.42355
815.83        77.49274
816.24        77.50134
816.65         77.5159
817.05         77.5442
817.46        77.53073
817.87        77.51652
818.28         77.5108
818.69        77.51623
819.10        77.53682
819.51        77.57143
819.92        77.60873
820.33        77.64899
820.74        77.69971
821.14        77.75266
821.55         77.8335
821.96        77.92332
822.37        78.00401
822.78        78.08771
823.19        78.19581
823.60        78.32237
824.00        78.48473
824.41         78.5618
824.82        78.45423
825.23        78.15163
825.64        77.69836
826.04        77.26277
826.45        77.07867
826.86        77.21755
827.27          77.615
827.68        78.10925
828.08        78.45308
828.49        78.49868
828.90        78.35558
829.31        78.14652
829.72        78.08549
830.12        78.25484
830.53        78.52397
830.94        78.82073
831.35        78.99733
831.75        79.02699
832.16        78.91324
832.57        78.71539
832.97        78.49392
833.38        78.28012
833.79        78.07222
834.20        77.89792
834.60        77.79078
835.01        77.76604
835.42        77.81366
835.82        77.92609
836.23        77.99554
836.64        78.02536
837.04        78.05914
837.45        78.06618
837.86        78.10371
838.26        78.19581
838.67        78.30239
839.08        78.44087
839.48        78.62606
839.89        78.84306
840.29        79.07362
840.70        79.27651
841.11        79.39135
841.51        79.42278
841.92        79.35541
842.33        79.21828
842.73        79.05788
843.14        78.85262
843.54        78.63347
843.95        78.44336
844.35        78.36762
844.76        78.40948
845.17        78.55387
845.57        78.74038
845.98        78.82061
846.38        78.78217
846.79        78.63237
847.19        78.44949
847.60        78.31155
848.00        78.27303
848.41        78.27628
848.81        78.32229
849.22        78.33262
849.62        78.32887
850.03        78.31615
850.43        78.33275
850.84        78.34827
851.24        78.41583
851.65        78.46819
852.05        78.59561
852.46        78.82632
852.86        79.13357
853.27        79.49474
853.67         79.7377
854.07        79.82433
854.48        79.70505
854.88        79.45449
855.29         79.0416
855.69        78.64912
856.10        78.26114
856.50        77.94687
856.90        77.71519
857.31        77.60545
857.71        77.65546
858.12        77.78312
858.52        77.97386
858.92        78.06587
859.33        77.99414
859.73        77.84338
860.13        77.57272
860.54        77.15662
860.94         76.6744
861.34        76.11743
861.75        75.62878
862.15        75.48701
862.55        75.70383
862.96        76.21733
863.36        76.80798
863.76        77.08492
864.17        76.93406
864.57        76.46532
864.97        75.89169
865.38        75.54604
865.78         75.5654
866.18        75.83126
866.58         76.1489
866.99        76.18772
867.39        75.90328
867.79        75.40625
868.19        74.90226
868.60        74.64188
869.00        74.67699
869.40        74.94263
869.80        75.34908
870.21        75.73172
870.61        76.07589
871.01        76.35638
871.41        76.55283
871.81        76.64209
872.22        76.60996
872.62         76.4834
873.02        76.33768
873.42        76.31772
873.82        76.46069
874.22        76.72762
874.63        77.04733
875.03        77.27881
875.43        77.39303
875.83        77.40904
876.23         77.3613
876.63        77.30779
877.03        77.26689
877.44        77.22318
877.84        77.13235
878.24        76.89603
878.64        76.51775
879.04        76.04725
879.44        75.63892
879.84          75.495
880.24        75.64283
880.64        76.03789
881.04        76.49293
881.44        76.68219
881.84        76.51807
882.24        76.06681
882.65        75.54731
883.05        75.44559
883.45        75.81004
883.85        76.48511
884.25        77.15964
884.65        77.37545
885.05        77.04691
885.45        76.33563
885.85        75.50758
886.25        75.01849
886.65        75.01685
887.05         75.3618
887.45        75.86404
887.85        76.23988
888.25        76.38699
888.65        76.36971
889.04        76.26003
889.44        76.20975
889.84        76.23941
890.24        76.30414
890.64          76.291
891.04        76.03734
891.44        75.54794
891.84        74.92181
892.24         74.3676
892.64        74.19727
893.04        74.47066
893.44        75.07118
893.83         75.8409
894.23        76.45335
894.63        76.82337
895.03        77.02467
895.43        77.07796
895.83        77.02884
896.23        76.92189
896.63        76.74208
897.02        76.56667
897.42          76.565
897.82        76.74828
898.22        77.09296
898.62        77.50036
899.01        77.79959
899.41        77.91265
899.81        77.88687
900.21        77.79476
900.61        77.76704
901.00        77.82581
901.40        77.93713
901.80        78.02674
902.20        77.99257
902.59         77.8298
902.99        77.58147
903.39        77.31886
903.79        77.13805
904.18        77.06898
904.58        77.08619
904.98         77.1785
905.38        77.34155
905.77        77.54147
906.17        77.77358
906.57          77.969
906.96        78.03113
907.36        77.91543
907.76        77.68761
908.15        77.40513
908.55        77.09591
908.95        76.83254
909.34        76.58054
909.74        76.47716
910.14        76.66935
910.53        77.16181
910.93        77.88834
911.33        78.60496
911.72        78.89168
912.12        78.64993
912.52        78.04078
912.91        77.32909
913.31        76.93602
913.70         76.9437
914.10        77.21458
914.49        77.63979
914.89        77.94086
915.29         78.0387
915.68        78.02581
916.08        77.93186
916.47        77.79377
916.87        77.65859
917.26          77.474
917.66        77.32519
918.05        77.32337
918.45        77.46938
918.84        77.76223
919.24        78.04935
919.64        78.15357
920.03        78.05444
920.42        77.81069
920.82        77.54238
921.21        77.42974
921.61         77.5027
922.00        77.70287
922.40        77.99055
922.79        78.37917
923.19        78.78205
923.58        79.22762
923.98        79.52593
924.37        79.44564
924.77        78.95511
925.16        78.11527
925.55        77.20699
925.95        76.72136
926.34         76.8037
926.74        77.31894
927.13        78.02556
927.52        78.41968
927.92        78.39601
928.31        78.08133
928.70        77.71824
929.10        77.67075
929.49        78.01868
929.89        78.59422
930.28        79.23766
930.67        79.55161
931.07        79.41396
931.46         78.9989
931.85        78.45725
932.24        78.05164
932.64        77.86978
933.03        77.82741
933.42        77.90859
933.82        78.08586
934.21        78.32809
934.60        78.65141
934.99        78.96562
935.39         79.0867
935.78        79.00578
936.17        78.73727
936.56         78.3954
936.96        78.18338
937.35        78.21603
937.74        78.41948
938.13        78.67577
938.53        78.81117
938.92        78.78117
939.31        78.60475
939.70        78.40785
940.09        78.40257
940.49        78.60242
940.88        78.97866
941.27        79.28243
941.66        79.14457
942.05        78.52531
942.44         77.5676
942.84        76.62389
943.23        76.21534
943.62         76.5007
944.01        77.31521
944.40        78.36101
944.79          79.087
945.18        79.29546
945.57        79.14661
945.97        78.76614
946.36        78.42667
946.75        78.18686
947.14        77.93649
947.53        77.72143
947.92        77.64384
948.31        77.70718
948.70         77.9257
949.09        78.12434
949.48         77.9944
949.87        77.50996
950.26        76.79122
950.65        76.09386
951.04        75.83554
951.43        76.10603
951.82        76.74208
952.21        77.56208
952.60        78.23934
952.99        78.62382
953.38        78.81054
953.77        78.74634
954.16         78.3579
954.55        77.68553
954.94        76.74213
955.33        75.79287
955.72        75.29675
956.11        75.36349
956.50        75.90334
956.89         76.6118
957.28        76.90627
957.66        76.65514
958.05        76.03044
958.44        75.31224
958.83        74.95203
959.22        75.06165
959.61         75.4225
960.00        75.94886
960.39        76.52782
960.78        77.06512
961.16        77.65034
961.55        77.97375
961.94        77.61409
962.33        76.55973
962.72        75.01813
963.11        73.50278
963.49        72.77147
963.88        72.97973
964.27        73.90339
964.66        75.21645
965.04        76.30673
965.43        76.82643
965.82        76.98489
966.21        76.84457
966.60        76.52959
966.98        76.11993
967.37        75.47919
967.76        74.78949
968.15        74.40445
968.53        74.45475
968.92        74.93262
969.31        75.52967
969.69        75.70583
970.08        75.35782
970.47        74.63158
970.86        74.01063
971.24        74.34922
971.63         75.6901
972.02        77.64228
972.40        79.59077
972.79        80.59401
973.17        80.56919
973.56        79.74923
973.95        78.51611
974.33        77.52214
974.72        77.01245
975.11        76.78281
975.49        76.73459
975.88        76.72292
976.26        76.68767
976.65        76.73763
977.04        76.74017
977.42        76.40401
977.81        75.64065
978.19        74.47227
978.58         73.3877
978.96        73.22307
979.35        74.12243
979.74        75.85969
980.12        77.78009
980.51        78.59725
980.89        78.11675
981.28        76.58827
981.66         74.6916
982.05        73.70989
982.43        74.04713
982.82        75.27558
983.20        76.86788
983.59        77.83924
983.97        78.02449
984.35        77.69139
984.74          77.123
985.12        76.79436
985.51        76.85469
985.89        77.10547
986.28        77.45706
986.66        77.89342
987.04        78.33555
987.43        78.79111
987.81        79.14426
988.20        79.06371
988.58         78.5642
988.96        77.76824
989.35        76.81821
989.73         76.0334
990.12        75.46645
990.50        74.99622
990.88        74.79867
991.27        75.19626
991.65        76.14879
992.03        77.49876
992.42        78.52283
992.80        78.56656
993.18        77.42474
993.56        75.14022
993.95        72.32252
994.33        70.62732
994.71        70.91928
995.10        72.53226
995.48        74.45047
995.86        75.50582
996.24        75.56089
996.63        74.85969
997.01        73.93037
997.39        73.75716
997.77        74.69166
998.15        76.37071
998.54        77.93064
998.92        78.25145
999.30        77.15885
999.68        74.98717
1000.06        72.68046
1000.45        71.93731
1000.83        73.27161
1001.21        76.00381
1001.59        79.01626
1001.97        80.69239
1002.35        80.65718
1002.73        79.43045
1003.12        77.45939
1003.50        75.70623
1003.88        74.75223
1004.26        74.17328
1004.64        74.17885
1005.02        75.06113
1005.40        76.73047
1005.78        79.29284
1006.16        81.69295
1006.54        81.96175
1006.92        79.65044
1007.30        75.18442
1007.69        70.48093
1008.07         68.7431
1008.45        70.74928
1008.83        75.48901
1009.21        80.63333
1009.59        82.78165
1009.97        81.04109
1010.35        75.95972
1010.73        69.19483
1011.11        65.19292
1011.49        66.10624
1011.86        70.72876
1012.24         76.2537
1012.62        79.01517
1013.00        78.28027
1013.38        75.34128
1013.76        71.72095
1014.14        69.86602
1014.52        70.58277
1014.90         72.9948
1015.28         76.3331
1015.66        79.12348
1016.04        80.58047
1016.41        81.27795
1016.79        81.05589
1017.17        80.00249
1017.55        78.35892
1017.93        76.15757
1018.31        74.01245
1018.69        72.95661
1019.06        73.28119
1019.44        74.79379
1019.82        77.09379
1020.20        79.10838
1020.58        80.19463
1020.95        80.44992
1021.33        79.96211
1021.71        78.82392
1022.09        77.14338
1022.46        74.86245
1022.84        72.24104
1023.22        69.63115
1023.60        67.27207
1023.97        65.12814
1024.35        63.70988
1024.73        63.39644
