SpectraSmart Spectrum 2.9.0.0
--------- Device Information -----------
Spectrum Name :  反射率_0
Saving Time :  2024/04/27 23:52:18
Spectro-Module Model Name : SE2030-DUVN
Spectro-Module Serial Number : OS361AC55029948
Wavelength Start : 200
Wavelength End : 1025
Wavelength Unit : Wavelength(nm)
Spectrum Unit : Reflectance(%)
-----------Spectrum Setting ------------
Integration Time : 20ms
Average : 10
Boxcar : 0
Background removal :  enabled
linearity correction :  enabled
SC :  disabled
Intensity correction :  disabled
DWT denoise :  enabled
savitzky-golay :  disabled
FFT :  disabled
Running average :  disabled
Kalman :  disabled
High pass :  disabled
---------------BEGIN--------------------
Wavelength(nm)             Reflectance(%)
200.29               0
200.75        127.0713
201.21        139.3931
201.67        139.3055
202.13        128.5528
202.58        110.9883
203.04        90.05577
203.50         72.3517
203.96        68.53777
204.42        77.73141
204.88        92.64742
205.34        107.4243
205.80        118.1009
206.26        125.1621
206.72        131.2561
207.18        135.1907
207.64        130.9093
208.10        119.6057
208.55        108.4359
209.01        100.8169
209.47        95.77776
209.93        90.84119
210.39        82.37066
210.85          63.519
211.31        59.53305
211.77        99.69322
212.23        115.3414
212.69        118.2156
213.14        116.7703
213.60        111.4721
214.06        100.4349
214.52        80.48952
214.98        61.95148
215.44        61.37475
215.90        70.32743
216.36        79.23872
216.81        84.10285
217.27        85.94068
217.73        86.85466
218.19        87.02671
218.65        86.26891
219.11        84.77736
219.57         82.2279
220.02        79.61984
220.48        80.50576
220.94        85.04637
221.40        91.32178
221.86        97.01674
222.32        100.0759
222.77        100.5932
223.23        99.68829
223.69         98.0602
224.15        96.35337
224.61        94.68662
225.06        92.68121
225.52        90.88871
225.98         90.0075
226.44        90.22517
226.90        91.24256
227.36        92.33012
227.81        92.82518
228.27        92.95319
228.73         92.6871
229.19        92.55929
229.65        93.54678
230.10        95.56826
230.56        98.29237
231.02        100.4292
231.48        100.4321
231.93        98.22417
232.39        94.83782
232.85        91.34196
233.31        89.33026
233.77        89.09214
234.22        90.02111
234.68        91.56055
235.14        92.99932
235.60        94.12829
236.05         95.2194
236.51        96.22507
236.97         97.0107
237.43        97.45405
237.88        97.60639
238.34        97.29581
238.80        96.91129
239.26        96.51187
239.71        96.18468
240.17        95.71843
240.63        95.92135
241.08        97.14429
241.54        98.45212
242.00        99.41272
242.46        99.93542
242.91        100.3415
243.37        100.6227
243.83        100.6425
244.28        99.42907
244.74        96.00741
245.20        92.80057
245.66        91.89093
246.11        93.13918
246.57        96.47166
247.03        103.2709
247.48        114.0578
247.94         122.384
248.40        121.1844
248.85        113.8848
249.31        106.7455
249.77        104.8279
250.22         107.277
250.68        111.3209
251.14         115.944
251.59        121.2295
252.05        127.9324
252.51        137.3277
252.96        148.4429
253.42        153.8902
253.88        149.1409
254.33        138.4545
254.79        128.8335
255.25        122.6365
255.70        118.7229
256.16        116.6121
256.62        115.4676
257.07        114.6948
257.53        114.6442
257.99         114.671
258.44         114.094
258.90        113.1104
259.35        111.2325
259.81        109.3507
260.27        107.3714
260.72        105.3464
261.18        103.8751
261.63        102.3732
262.09        101.2527
262.55        100.2542
263.00        99.14964
263.46        98.18443
263.91        97.02811
264.37        95.86012
264.83        94.58401
265.28        93.17954
265.74        91.81297
266.19         90.2474
266.65        88.62463
267.11        86.89861
267.56        85.19048
268.02        83.84933
268.47        82.85973
268.93         82.1556
269.38        81.51208
269.84        80.63839
270.30        79.44165
270.75        78.00546
271.21        76.45992
271.66        74.92652
272.12         73.4922
272.57        72.05521
273.03        70.67364
273.48         69.3157
273.94        68.06612
274.39        66.88912
274.85        65.81741
275.31        64.71889
275.76        63.54564
276.22        62.39465
276.67          61.273
277.13        60.39031
277.58        59.66125
278.04          59.092
278.49        58.47428
278.95        57.70536
279.40        56.68438
279.86        55.57325
280.31        54.41151
280.77        53.45243
281.22        52.67273
281.68        52.08731
282.13        51.57138
282.59        51.07782
283.04        50.52628
283.50          49.978
283.95        49.42947
284.41        48.96363
284.86        48.56297
285.32        48.25308
285.77        47.94607
286.22        47.60088
286.68        47.22885
287.13        46.79014
287.59        46.40773
288.04        46.15483
288.50        46.08361
288.95        46.12209
289.41        46.17793
289.86         46.0287
290.32        45.69228
290.77        45.23381
291.22        44.84243
291.68        44.78358
292.13        45.09725
292.59        45.73041
293.04         46.5407
293.50        47.34624
293.95         48.0738
294.40        48.78729
294.86        49.57442
295.31        50.55649
295.77        51.77281
296.22        53.15953
296.68        54.63446
297.13        56.03488
297.58        57.32891
298.04        58.57981
298.49        59.86854
298.95        61.38128
299.40        63.14378
299.85        65.10465
300.31        67.20886
300.76        69.29927
301.21        71.31492
301.67         73.3035
302.12        75.19704
302.58        77.01764
303.03        78.74325
303.48        80.41556
303.94        82.15681
304.39        84.04615
304.84        86.13415
305.30        88.39882
305.75        90.70577
306.20        92.96143
306.66        95.15013
307.11        97.23714
307.57        99.26884
308.02        101.1759
308.47        102.9697
308.93        104.6508
309.38        106.1951
309.83        107.7029
310.29        109.2195
310.74        110.7097
311.19        112.1371
311.65        113.4026
312.10        114.4521
312.55        115.3238
313.00        116.1261
313.46        117.0376
313.91        118.0733
314.36        119.1999
314.82        120.2767
315.27        121.0707
315.72         121.534
316.18        121.7581
316.63        121.8877
317.08        122.1981
317.53        122.7535
317.99        123.4597
318.44        124.1949
318.89        124.7293
319.35        125.0063
319.80        125.1312
320.25        125.1858
320.70        125.3051
321.16        125.5264
321.61        125.8124
322.06        126.1749
322.51         126.653
322.97         127.203
323.42        127.8491
323.87        128.4406
324.32        128.7511
324.78        128.7183
325.23        128.4603
325.68        128.1139
326.13        127.9509
326.59        128.0332
327.04        128.3522
327.49        128.8172
327.94        129.3104
328.39        129.7771
328.85        130.2058
329.30        130.6609
329.75        131.0484
330.20        131.3491
330.66        131.5186
331.11        131.6577
331.56        131.8071
332.01        132.0032
332.46        132.2477
332.92        132.4765
333.37         132.759
333.82        133.0328
334.27        133.3029
334.72        133.6115
335.17        134.0234
335.63        134.5121
336.08        135.1201
336.53        135.7173
336.98        136.1437
337.43        136.3708
337.88         136.451
338.34        136.4939
338.79        136.7549
339.24        137.2632
339.69        137.9347
340.14         138.667
340.59        139.2884
341.05        139.7456
341.50        140.1204
341.95        140.3948
342.40        140.5591
342.85         140.638
343.30        140.6081
343.75        140.6287
344.20        140.9618
344.66        141.6386
345.11        142.5808
345.56        143.4829
346.01        143.8471
346.46        143.5868
346.91        142.8676
347.36        142.0601
347.81        141.7389
348.26        142.0265
348.72        142.7374
349.17        143.5519
349.62        143.9863
350.07        143.9027
350.52        143.4606
350.97        142.8592
351.42          142.41
351.87         142.209
352.32        142.1477
352.77        142.1169
353.22        141.9613
353.67         141.632
354.13         141.198
354.58        140.6918
355.03        140.2233
355.48        139.8082
355.93        139.3962
356.38        138.9173
356.83        138.2676
357.28        137.4381
357.73        136.4987
358.18        135.5085
358.63        134.5494
359.08        133.6581
359.53        132.8065
359.98         132.034
360.43        131.4032
360.88        130.8949
361.33        130.4729
361.78          130.01
362.23        129.2896
362.68        128.2705
363.13        127.0511
363.58        125.7561
364.03        124.4762
364.48        123.4644
364.93        122.5252
365.38        121.6807
365.83        120.8682
366.28        120.0584
366.73        119.2703
367.18        118.4796
367.63        117.6444
368.08         116.762
368.53        115.8431
368.98        114.9181
369.43        114.0438
369.88        113.2382
370.33        112.4847
370.78        111.7823
371.23        111.1261
371.68        110.5019
372.13        109.9046
372.58        109.2975
373.03        108.6249
373.48        107.8755
373.93        107.0631
374.38        106.2248
374.83        105.4185
375.28        104.6625
375.72        103.9301
376.17        103.2362
376.62        102.5264
377.07        101.7934
377.52        101.0451
377.97        100.3223
378.42         99.6887
378.87        99.15168
379.32         98.6938
379.77        98.24056
380.22        97.67242
380.67        96.97141
381.11        96.18532
381.56        95.40598
382.01        94.80107
382.46        94.41982
382.91        94.20998
383.36        94.08982
383.81        93.92869
384.26        93.67848
384.71        93.36748
385.15        93.00013
385.60        92.65122
386.05        92.31121
386.50        91.95087
386.95        91.55992
387.40        91.13537
387.85        90.68962
388.29        90.19742
388.74        89.75617
389.19        89.28525
389.64        88.77128
390.09        88.19765
390.54        87.64146
390.98        87.21207
391.43        86.98845
391.88         86.9273
392.33        86.84451
392.78        86.59039
393.23        86.18224
393.67        85.38099
394.12        84.48108
394.57        84.76094
395.02        84.82988
395.47        84.81694
395.91        84.34653
396.36        84.16039
396.81        84.26493
397.26        84.24483
397.71         84.0466
398.15        83.76858
398.60        83.51093
399.05        83.04637
399.50        82.51463
399.95        82.44148
400.39         82.7021
400.84        82.45781
401.29        81.75924
401.74        81.31094
402.18        81.20607
402.63        81.16349
403.08         81.1198
403.53        80.99534
403.97        80.76733
404.42        80.54263
404.87        80.34039
405.32        80.18966
405.76        80.09138
406.21        79.94799
406.66        79.76546
407.11        79.78403
407.55        79.90687
408.00        79.59891
408.45         78.9544
408.90        78.43918
409.34        78.18884
409.79        78.27399
410.24        78.56467
410.68        78.68602
411.13        78.57738
411.58        78.46054
412.03        78.38866
412.47        78.36013
412.92        78.36334
413.37        78.40948
413.81        78.43194
414.26        78.39684
414.71        78.27335
415.15         78.0973
415.60        77.88622
416.05        77.74034
416.49        77.69473
416.94        77.71621
417.39        77.75964
417.83        77.74824
418.28        77.65633
418.73        77.49155
419.17        77.32001
419.62        77.25307
420.07        77.32517
420.51        77.49857
420.96        77.67837
421.41        77.74271
421.85        77.64599
422.30          77.258
422.74        76.75693
423.19        77.01524
423.64        77.83549
424.08        77.98301
424.53        77.36598
424.98        77.13796
425.42        77.37168
425.87        77.18921
426.31        76.72206
426.76        76.93509
427.21        77.65398
427.65        77.68964
428.10        77.10969
428.54        76.90759
428.99        77.12977
429.44         77.4333
429.88        77.62376
430.33        77.18516
430.77        76.33573
431.22         76.2767
431.66        76.91544
432.11        77.18684
432.56         77.1607
433.00        77.42493
433.45        77.66178
433.89        78.03235
434.34        78.64887
434.78        76.29764
435.23        76.60349
435.67         76.9116
436.12         77.8533
436.57        78.22266
437.01        77.89732
437.46        77.58402
437.90        77.71949
438.35        78.59267
438.79        77.78134
439.24        77.73817
439.68        77.76956
440.13        77.83717
440.57        77.93058
441.02        78.28445
441.46         78.7188
441.91          78.641
442.35        78.12123
442.80        78.02816
443.24        78.30325
443.69        78.40192
444.13        78.29195
444.58        78.30476
445.02        78.41354
445.47        78.50343
445.91        78.54767
446.36        78.58571
446.80        78.59785
447.24        78.57263
447.69        78.55234
448.13        78.61361
448.58        78.74706
449.02         78.8113
449.47        78.82375
449.91        78.86835
450.36        78.96438
450.80        79.02843
451.25        79.05143
451.69        79.03504
452.13        78.96719
452.58        78.78607
453.02        78.55859
453.47        78.43182
453.91         78.4219
454.36        78.59809
454.80        78.81388
455.24        78.64125
455.69        78.19576
456.13        77.87057
456.58        77.84538
457.02        77.88834
457.46        78.55935
457.91        78.31955
458.35        77.57255
458.79        77.18291
459.24        77.25098
459.68        77.13304
460.13        76.82733
460.57        76.76192
461.01        76.89297
461.46        76.41016
461.90        76.69653
462.34        76.68015
462.79         77.2734
463.23        77.27729
463.68        76.89722
464.12        76.60377
464.56        76.48301
465.01        76.44493
465.45        76.33941
465.89        76.31316
466.34        76.37662
466.78        76.03464
467.22        75.34637
467.67        76.10399
468.11        75.90685
468.55        76.05044
468.99         75.8303
469.44        75.77946
469.88        75.89343
470.32        75.90347
470.77        75.82904
471.21        75.79033
471.65        75.79272
472.10        75.82123
472.54        75.81511
472.98        75.75836
473.42        75.65923
473.87        75.43938
474.31        75.15609
474.75        75.26962
475.20        75.63139
475.64        75.57485
476.08        75.17737
476.52        75.02764
476.97        75.10787
477.41        75.63974
477.85        75.42907
478.29        75.52222
478.74        75.68134
479.18        75.07991
479.62        75.33552
480.06        75.25666
480.50         75.3422
480.95        75.39558
481.39        75.28974
481.83        75.75898
482.27        75.41531
482.72        75.24457
483.16         75.2165
483.60        75.09637
484.04        75.00948
484.48        74.85382
484.93        74.86994
485.37        75.20136
485.81        75.81544
486.25         76.0346
486.69        75.59238
487.14        74.45834
487.58        75.05071
488.02        75.38753
488.46         75.7018
488.90        76.23852
489.34        75.64709
489.79        74.66549
490.23        75.11535
490.67        75.03323
491.11        75.01092
491.55        74.97379
491.99        74.94942
492.43         75.0294
492.88         75.1763
493.32        75.29984
493.76        75.36494
494.20        75.46452
494.64        75.61234
495.08        75.68877
495.52        75.70541
495.96        75.90559
496.41        76.19182
496.85        76.06957
497.29        75.48402
497.73        75.52678
498.17        75.96346
498.61        76.00996
499.05         75.6137
499.49        75.43959
499.93        75.52141
500.37        75.41264
500.82        75.17701
501.26        74.99443
501.70        75.99151
502.14        75.20855
502.58        75.66516
503.02         75.6314
503.46        75.59814
503.90         75.5452
504.34        75.41367
504.78        75.39907
505.22        75.47176
505.66        75.47226
506.10        75.40636
506.54        75.47472
506.98        75.69294
507.42        75.63843
507.86        75.88293
508.30        75.91947
508.74        75.91722
509.18        75.86678
509.62        75.79359
510.06        75.73009
510.50        75.68491
510.94        75.65726
511.38        75.64615
511.82        75.64769
512.26        75.65726
512.70         75.6804
513.14         75.7132
513.58         75.7176
514.02        75.68686
514.46        75.68327
514.90        75.72677
515.34        75.58266
515.78        75.69073
516.22        75.69113
516.66        75.72074
517.10        75.78014
517.54        75.86578
517.98        75.96548
518.42         76.0401
518.86        76.03852
519.30        75.95396
519.74         75.8106
520.18        75.64981
520.62        75.53638
521.06        75.49014
521.50        75.49165
521.93        75.53532
522.37         75.5937
522.81        75.65824
523.25        75.73392
523.69        75.79446
524.13        75.79794
524.57        75.74027
525.01        75.63207
525.45         75.5145
525.89        75.45594
526.32        75.46524
526.76          75.536
527.20         75.6261
527.64        75.67586
528.08        75.66795
528.52        75.61872
528.96        75.55379
529.40        75.51295
529.83        75.49929
530.27        75.51346
530.71        75.52414
531.15        75.49508
531.59        75.41878
532.03        75.31021
532.46        75.19858
532.90        75.12814
533.34        75.09929
533.78        75.14231
534.22        75.23326
534.66        75.10468
535.09         75.1078
535.53        74.99271
535.97        74.88512
536.41        74.81998
536.85        74.81161
537.28        74.83936
537.72        74.89529
538.16        74.96619
538.60        75.04205
539.04        75.14106
539.47        75.21316
539.91        75.22596
540.35        75.15656
540.79        75.03084
541.22        74.88838
541.66        74.80257
542.10        74.79186
542.54        74.84502
542.97        74.91508
543.41        74.96746
543.85        74.97407
544.29        74.95195
544.72        74.92587
545.16        74.95183
545.60        75.01503
546.04        75.14788
546.47        75.29802
546.91        75.23447
547.35         75.0074
547.79        75.02508
548.22        75.20762
548.66        75.09792
549.10        74.73737
549.53        74.61124
549.97        74.74576
550.41        74.82728
550.84        74.83302
551.28        74.98162
551.72        75.22659
552.15        75.26021
552.59        75.04672
553.03        75.21082
553.46        74.77164
553.90         74.7482
554.34         74.8473
554.77        75.02262
555.21        75.18723
555.65        75.32142
556.08        75.29031
556.52        75.10578
556.96        74.84093
557.39        74.85284
557.83        75.12167
558.27        75.22501
558.70        75.13668
559.14        75.11464
559.57         75.1498
560.01        75.16251
560.45        75.14165
560.88         75.1017
561.32        75.10104
561.75        75.09777
562.19        75.12472
562.63        75.19775
563.06         75.2803
563.50        75.26385
563.93        75.15532
564.37        75.14822
564.80        75.21612
565.24        75.29053
565.68        75.34318
566.11         75.3503
566.55        75.35054
566.98        75.39018
567.42        75.47201
567.85        75.48259
568.29        75.47437
568.72        75.39135
569.16        75.28081
569.60        75.34921
570.03        75.62265
570.47        75.42143
570.90        75.30935
571.34        76.01532
571.77         75.7224
572.21        75.57385
572.64        75.59669
573.08        75.53478
573.51        75.58778
573.95        75.59896
574.38        75.58258
574.82        75.43489
575.25        75.66856
575.69        75.35922
576.12        75.33553
576.56        75.48877
576.99        75.24961
577.42        75.50299
577.86          75.417
578.29        75.72603
578.73        75.42085
579.16        75.43305
579.60        75.44534
580.03        75.36822
580.47        75.09044
580.90        75.53842
581.33        75.63248
581.77        75.60468
582.20        75.51261
582.64        75.40299
583.07        75.19133
583.51        75.17272
583.94        75.52395
584.37        75.65408
584.81        75.53668
585.24        75.43407
585.68        75.54263
586.11        75.24739
586.54        75.80888
586.98        75.47218
587.41        75.78214
587.85        75.04797
588.28        75.44032
588.71        75.18369
589.15        75.57372
589.58        74.96251
590.01        75.21224
590.45        75.66846
590.88        74.81062
591.31        74.94541
591.75        75.39155
592.18        75.45145
592.61        75.25031
593.05        75.33082
593.48        75.87558
593.91        75.13764
594.35        74.95215
594.78        75.25674
595.21         75.2094
595.65        75.33561
596.08        75.17554
596.51        75.50397
596.94        75.21246
597.38        75.32767
597.81        75.69875
598.24         75.3262
598.68        75.80885
599.11        75.54855
599.54        75.84253
599.97        75.28417
600.41        75.63805
600.84        75.53306
601.27        75.38017
601.70        75.48523
602.14        75.16955
602.57        75.58457
603.00        75.62276
603.43        75.90948
603.87        75.95812
604.30        75.67405
604.73        75.93075
605.16        75.99964
605.60        75.86017
606.03        75.99084
606.46        76.28936
606.89        76.12038
607.32        76.10938
607.76        76.50182
608.19         76.1335
608.62        76.06914
609.05        75.99438
609.48        75.95001
609.92        75.86888
610.35        76.21315
610.78        76.13393
611.21        75.84908
611.64        76.28911
612.07        76.19327
612.50        76.00107
612.94        75.73895
613.37        75.82275
613.80        76.15639
614.23        76.09278
614.66         76.1647
615.09        76.17924
615.52        76.22882
615.96        76.36693
616.39        75.86748
616.82        76.12543
617.25        76.00664
617.68        75.96722
618.11        76.03562
618.54        76.24145
618.97        76.39021
619.40        76.35079
619.84        76.69334
620.27        76.59019
620.70         76.3932
621.13        75.83309
621.56        76.38083
621.99        76.16901
622.42        75.89822
622.85        75.78752
623.28        76.02845
623.71        75.89766
624.14        75.68371
624.57        76.14855
625.00        76.35047
625.43        76.01721
625.86        75.97991
626.29        76.14401
626.72        75.88607
627.15        76.04083
627.58        76.10118
628.01        76.28176
628.44        76.13599
628.87        75.74952
629.30        75.80826
629.73        76.12915
630.16        75.66112
630.59        75.82865
631.02        75.83491
631.45        76.05898
631.88        76.20103
632.31        76.26443
632.74        75.96577
633.17        76.06821
633.60        75.97811
634.03        75.92915
634.46        75.89572
634.89        75.88071
635.32        75.86318
635.75        75.83127
636.18        75.83947
636.61         75.8676
637.04        75.79501
637.47        75.65982
637.89         75.6749
638.32        75.80828
638.75        75.87655
639.18        75.86676
639.61        75.89244
640.04        75.92719
640.47        75.89188
640.90        75.78658
641.33        75.60645
641.76        75.39063
642.18        75.39059
642.61        75.32697
643.04        75.41231
643.47        75.52283
643.90        75.60223
644.33        75.62635
644.76        75.61317
645.18        75.58437
645.61        75.55729
646.04        75.54423
646.47        75.53616
646.90        75.52821
647.33        75.51733
647.75        75.51006
648.18         75.5081
648.61        75.51659
649.04        75.57909
649.47        75.67628
649.89         75.6866
650.32        75.64409
650.75        75.73321
651.18        75.91563
651.61        76.00214
652.03        75.91228
652.46        75.67741
652.89        75.53256
653.32        75.32018
653.74        75.36219
654.17        76.31994
654.60        76.41372
655.03        75.51237
655.46        75.81252
655.88        76.24409
656.31        77.26492
656.74        77.29326
657.16        75.73529
657.59        75.31002
658.02         75.4677
658.45        76.71721
658.87        76.91565
659.30        77.05556
659.73        76.33487
660.15        76.24884
660.58        75.68859
661.01        75.97643
661.44        76.59934
661.86        76.76661
662.29        76.43924
662.72        76.19659
663.14        76.15158
663.57        76.16549
664.00        76.22554
664.42        76.20094
664.85          76.099
665.27        76.07782
665.70        76.12337
666.13        76.11348
666.55        76.04453
666.98        75.95327
667.41        75.88184
667.83        75.88821
668.26        75.97629
668.69        76.13519
669.11        76.30636
669.54        76.41814
669.96        76.45908
670.39         76.3521
670.82        76.18008
671.24        76.26894
671.67        76.54175
672.09        76.52164
672.52         76.2586
672.94        76.09595
673.37         76.1021
673.80         76.2184
674.22        76.40833
674.65        76.49902
675.07        76.48489
675.50        76.45512
675.92        76.44357
676.35        76.43462
676.77        76.44347
677.20         76.4763
677.62        76.51819
678.05        76.52362
678.47         76.4862
678.90        76.43006
679.32        76.38491
679.75        76.41093
680.17        76.51578
680.60          76.688
681.02        76.85538
681.45        76.91253
681.87        76.85656
682.30         76.6147
682.72         76.3149
683.15        76.38736
683.57         76.7736
684.00        76.83366
684.42        76.59572
684.85        76.61322
685.27         76.8791
685.70        77.07502
686.12        77.14573
686.54        77.18754
686.97        77.18627
687.39        77.10648
687.82        76.97871
688.24        76.81934
688.66        77.04447
689.09        76.81741
689.51        77.10581
689.94        77.14494
690.36        77.18431
690.78        77.21316
691.21        77.21903
691.63        77.16177
692.06        77.04007
692.48        76.87434
692.90         76.7102
693.33        76.61118
693.75        76.59828
694.17        76.65862
694.60        76.75403
695.02        76.86237
695.44        76.95631
695.87        77.01472
696.29        77.04935
696.71           77.16
697.14        77.29733
697.56        77.27549
697.98        77.13154
698.41        77.13771
698.83         77.2849
699.25        77.45965
699.68        77.59052
700.10        77.67509
700.52        77.68274
700.94        77.61835
701.37        77.49075
701.79        77.37783
702.21        77.28528
702.64        77.14618
703.06        77.08942
703.48         77.0507
703.90         77.0731
704.33        77.13855
704.75        77.22334
705.17        77.25868
705.59        77.22982
706.01        77.12951
706.44        77.00081
706.86        77.06391
707.28        77.12239
707.70        77.29618
708.12        77.48059
708.55        77.63408
708.97         77.7122
709.39        77.66776
709.81        77.54844
710.23        77.51163
710.66        77.58045
711.08        77.69727
711.50        77.79457
711.92        77.81609
712.34        77.74857
712.76        77.61828
713.19        77.46185
713.61        77.39253
714.03        77.41501
714.45        77.49803
714.87        77.61713
715.29        77.73407
715.71        77.82993
716.13        77.91626
716.56        77.95495
716.98        77.96589
717.40        77.92622
717.82        77.84354
718.24        77.75662
718.66        77.73158
719.08        77.78259
719.50         77.8873
719.92        78.01859
720.34        78.12871
720.76        78.19905
721.19         78.2355
721.61        78.24608
722.03        78.20912
722.45        78.13015
722.87         78.0146
723.29        77.90574
723.71        77.87495
724.13        77.93946
724.55        78.08254
724.97        78.25704
725.39         78.3825
725.81        78.43155
726.23        78.41749
726.65        78.37576
727.07        78.36539
727.49        78.40131
727.91        78.46865
728.33         78.5218
728.75        78.48823
729.17        78.35887
729.59        78.16014
730.01        77.96211
730.43        77.90097
730.85        78.00113
731.27        78.16701
731.69        78.31393
732.10        78.55766
732.52        78.45932
732.94        78.42966
733.36        78.39188
733.78        78.30427
734.20        78.16582
734.62        78.51763
735.04         78.1351
735.46        78.52276
735.88        79.11786
736.30        79.00497
736.72        78.29839
737.13        78.07019
737.55        78.38283
737.97        78.67253
738.39        78.83404
738.81        78.92643
739.23        78.92901
739.65        78.91449
740.06        78.87879
740.48        78.83387
740.90        78.75084
741.32        78.73533
741.74        78.68948
742.16        78.71263
742.57        78.77305
742.99        78.93417
743.41        79.12554
743.83        79.04779
744.25        78.75928
744.67        78.65656
745.08        78.79222
745.50        78.87041
745.92        78.90678
746.34        79.09638
746.75        79.34883
747.17        79.42687
747.59        79.30352
748.01        78.99256
748.42        78.64244
748.84         78.5973
749.26        78.83939
749.68        79.06315
750.09        79.17839
750.51        79.16162
750.93        79.06778
751.35        79.17598
751.76        79.45396
752.18        79.54076
752.60         79.4247
753.01        79.34949
753.43        79.33526
753.85        79.27837
754.27         79.3062
754.68        79.34619
755.10        79.42045
755.52         79.4995
755.93        79.57748
756.35        79.65942
756.77        79.73541
757.18        79.81853
757.60        79.91181
758.02        79.92233
758.43        79.87218
758.85        79.92939
759.26        79.98948
759.68        79.84341
760.10        79.64377
760.51         78.6715
760.93        79.24143
761.34        79.01974
761.76        79.73897
762.18        79.93952
762.59        79.99589
763.01        79.76494
763.42        79.93611
763.84        79.90862
764.26        79.90926
764.67         80.0779
765.09         80.3711
765.50        80.42703
765.92        80.29364
766.33        80.26788
766.75        80.31558
767.16        80.31116
767.58        80.19534
768.00        80.17501
768.41        80.24313
768.83        80.11518
769.24         79.8754
769.66        79.86938
770.07        80.04124
770.49        80.21765
770.90        80.32658
771.32        80.20466
771.73          79.936
772.15        79.89755
772.56        80.14816
772.97        80.36601
773.39        80.37769
773.80        80.96136
774.22        80.44341
774.63        80.67231
775.05        81.06343
775.46         81.2215
775.88        81.07203
776.29        80.93484
776.70        80.88328
777.12        80.87155
777.53        80.94801
777.95        81.10878
778.36        81.30235
778.77        81.41611
779.19        81.41942
779.60        81.34347
780.02        81.24775
780.43        81.23539
780.84        81.29825
781.26        81.47054
781.67        81.73493
782.09        81.69351
782.50        81.26781
782.91        81.74697
783.33        81.04646
783.74        81.09155
784.15        81.10987
784.57        81.18525
784.98        81.24747
785.39        81.48205
785.81         81.7882
786.22        81.71014
786.63        81.35993
787.04        81.32008
787.46        81.64153
787.87        82.00568
788.28        82.27951
788.70        82.41162
789.11        82.35674
789.52        82.03274
789.93        81.62017
790.35        81.68785
790.76        82.18423
791.17        82.32293
791.58        82.08925
792.00         82.0838
792.41        82.32904
792.82        82.41425
793.23        82.35334
793.65        82.37714
794.06        82.49163
794.47        82.60777
794.88        82.69615
795.29        82.51086
795.71        82.55797
796.12        82.34286
796.53        82.10089
796.94        82.22414
797.35        82.65565
797.76        82.81741
798.18        82.69222
798.59        82.72206
799.00        82.91369
799.41        82.97438
799.82         82.9085
800.23        82.88795
800.64         82.9244
801.06        82.94896
801.47        82.97378
801.88         82.9235
802.29        82.79785
802.70        82.64362
803.11        82.50772
803.52        82.45638
803.93        82.50264
804.34        82.60828
804.75        82.78248
805.17        82.98267
805.58        83.20611
805.99        83.55939
806.40        83.90649
806.81        83.71209
807.22        83.09657
807.63        82.79831
808.04        82.87936
808.45        82.84737
808.86        82.70513
809.27        82.81026
809.68        83.08802
810.09        83.19867
810.50        83.09285
810.91        82.87589
811.32        82.62743
811.73        82.49342
812.14         82.5242
812.55        82.61871
812.96        82.75101
813.37        83.00769
813.78        83.30238
814.19        83.36158
814.60        83.23575
815.01        83.24997
815.42        83.42869
815.83        83.58543
816.24        83.68521
816.65        83.75673
817.05        83.78883
817.46        83.74207
817.87         83.6577
818.28        83.53401
818.69        83.38371
819.10        83.22256
819.51         83.0882
819.92        83.04305
820.33        83.10533
820.74        83.24954
821.14        83.44381
821.55        83.67542
821.96        83.90395
822.37        84.12676
822.78        84.29785
823.19        84.33988
823.60        84.23859
824.00        84.04211
824.41        83.76552
824.82        83.54048
825.23        83.40972
825.64        83.35781
826.04        83.40437
826.45        83.52234
826.86         83.7041
827.27        83.94662
827.68        84.19711
828.08        84.39854
828.49        84.45549
828.90        84.41836
829.31        84.32249
829.72        84.24158
830.12        84.22729
830.53        84.20705
830.94        84.19874
831.35         84.1903
831.75        84.19944
832.16        84.18282
832.57        84.15202
832.97        84.07764
833.38        83.95613
833.79        83.82262
834.20        83.70428
834.60        83.63595
835.01        83.63986
835.42        83.68141
835.82        83.80745
836.23        84.00324
836.64        84.27914
837.04         84.6517
837.45         84.9537
837.86        85.02316
838.26        84.84824
838.67        84.46238
839.08        84.05545
839.48        83.92867
839.89        84.14274
840.29        84.58897
840.70          85.106
841.11        85.43733
841.51        85.52128
841.92        85.40477
842.33        85.13935
842.73        84.80585
843.14        84.41338
843.54        83.98593
843.95        83.61648
844.35        83.48207
844.76        83.60209
845.17        83.93964
845.57        84.38655
845.98        84.70221
846.38        84.83502
846.79        84.79765
847.19        84.66505
847.60        84.51081
848.00        84.40189
848.41        84.28809
848.81        84.18868
849.22        84.05434
849.62         83.9294
850.03        83.81934
850.43         83.8005
850.84        83.89252
851.24        84.15007
851.65        84.47688
852.05        84.88512
852.46        85.23676
852.86         85.4629
853.27        85.60629
853.67        85.56292
854.07        85.39703
854.48        85.07893
854.88         84.6519
855.29        84.10664
855.69        83.68665
856.10        83.38049
856.50        83.26502
856.90        83.25858
857.31        83.24726
857.71        83.24362
858.12         83.2032
858.52        83.23038
858.92        83.36401
859.33        83.58178
859.73        83.90176
860.13        84.16235
860.54        84.12408
860.94        83.78316
861.34        83.17161
861.75        82.48503
862.15         82.0937
862.55         82.0483
862.96        82.26565
863.36        82.53768
863.76         82.4859
864.17        82.02819
864.57         81.3319
864.97        80.62196
865.38         80.2278
865.78        80.29057
866.18        80.66325
866.58        81.21845
866.99        81.73728
867.39        82.13721
867.79         82.4309
868.19        82.58183
868.60        82.50286
869.00        82.19233
869.40        81.68581
869.80         81.1134
870.21        80.75613
870.61        80.78451
871.01        81.06195
871.41         81.4445
871.81        81.70856
872.22        81.75995
872.62        81.69344
873.02        81.55949
873.42        81.44321
873.82        81.39241
874.22        81.39322
874.63         81.4425
875.03        81.50375
875.43        81.57986
875.83        81.65983
876.23        81.79985
876.63        82.08266
877.03        82.50099
877.44         83.0164
877.84         83.4525
878.24        83.48476
878.64        83.07225
879.04         82.3366
879.44        81.58369
879.84        81.24443
880.24         81.3952
880.64        81.91744
881.04        82.56026
881.44        82.88168
881.84        82.74982
882.24        82.28677
882.65        81.69228
883.05        81.41831
883.45        81.53416
883.85        81.90289
884.25        82.32601
884.65        82.51736
885.05        82.41279
885.45        82.11532
885.85        81.76402
886.25        81.59027
886.65        81.66008
887.05        81.88103
887.45        82.13966
887.85        82.27429
888.25        82.22978
888.65        82.05308
889.04        81.78709
889.44        81.53552
889.84        81.32514
890.24        81.14428
890.64        80.97221
891.04        80.77685
891.44        80.57076
891.84         80.3932
892.24        80.30552
892.64         80.3926
893.04        80.65914
893.44         81.0498
893.83        81.52184
894.23          81.945
894.63        82.28604
895.03        82.54774
895.43        82.68505
895.83        82.63831
896.23        82.42004
896.63        82.06999
897.02        81.67421
897.42        81.40502
897.82        81.29256
898.22        81.32306
898.62        81.45931
899.01        81.63654
899.41        81.80402
899.81         81.9857
900.21        82.19924
900.61        82.47633
901.00        82.79394
901.40        83.11944
901.80        83.38277
902.20        83.50457
902.59        83.47605
902.99        83.31274
903.39        83.06538
903.79        82.80242
904.18        82.56853
904.58         82.3968
904.98        82.29941
905.38        82.29417
905.77        82.37034
906.17        82.51618
906.57        82.73965
906.96        83.07308
907.36        83.46145
907.76        83.90031
908.15        84.26768
908.55        84.28983
908.95        83.96366
909.34        83.35204
909.74         82.7198
910.14         82.4251
910.53        82.56264
910.93        83.01393
911.33        83.59417
911.72        83.97017
912.12        84.02267
912.52        83.87188
912.91        83.61266
913.31        83.42875
913.70        83.35796
914.10        83.32072
914.49        83.32551
914.89        83.32004
915.29        83.30715
915.68         83.3023
916.08        83.28144
916.47        83.19196
916.87        83.04623
917.26        82.84499
917.66        82.63435
918.05        82.44918
918.45        82.29955
918.84        82.20621
919.24        82.15096
919.64        82.18816
920.03        82.33888
920.42        82.58414
920.82        82.88041
921.21        83.14854
921.61        83.34895
922.00        83.50128
922.40        83.65435
922.79         83.9915
923.19        84.48184
923.58        85.08783
923.98        85.58774
924.37        85.71451
924.77        85.40637
925.16        84.72443
925.55        83.91387
925.95        83.39777
926.34        83.30998
926.74        83.54506
927.13        83.87524
927.52         83.8162
927.92        83.31227
928.31        82.53019
928.70        81.80464
929.10        81.62683
929.49        82.09782
929.89        82.99714
930.28        84.10789
930.67        84.90784
931.07        85.19431
931.46        85.14808
931.85         84.8427
932.24        84.44638
932.64        84.05401
933.03        83.61066
933.42        83.24987
933.82        83.19382
934.21        83.47416
934.60        84.04647
934.99        84.69775
935.39        85.01737
935.78        84.93464
936.17        84.54025
936.56        84.01174
936.96        83.66386
937.35        83.65916
937.74        83.87349
938.13        84.20629
938.53        84.52046
938.92        84.76027
939.31        84.94074
939.70        85.09789
940.09        85.27415
940.49        85.44083
940.88        85.61621
941.27        85.65807
941.66        85.37005
942.05        84.75752
942.44        83.91531
942.84        83.13306
943.23        82.82906
943.62        83.12876
944.01        83.90744
944.40        84.89272
944.79        85.57571
945.18        85.77249
945.57        85.61297
945.97        85.22919
946.36        84.90375
946.75        84.69488
947.14        84.50345
947.53        84.32315
947.92        84.16456
948.31        84.02211
948.70        83.93555
949.09        83.84316
949.48        83.61652
949.87        83.24985
950.26        82.79481
950.65        82.36875
951.04        82.16159
951.43        82.21717
951.82        82.47003
952.21        82.83387
952.60        83.15484
952.99        83.36167
953.38        83.48518
953.77        83.52322
954.16        83.48093
954.55        83.36921
954.94        83.17192
955.33        82.93382
955.72        82.74126
956.11        82.61691
956.50        82.55471
956.89         82.5027
957.28        82.35336
957.66        82.11716
958.05        81.81963
958.44        81.54186
958.83        81.39657
959.22        81.40065
959.61        81.48097
960.00        81.61863
960.39        81.78643
960.78        81.95251
961.16        82.16912
961.55        82.24033
961.94        81.96912
962.33        81.34762
962.72         80.4746
963.11        79.64677
963.49        79.29573
963.88        79.51174
964.27        80.19227
964.66        81.07043
965.04        81.67068
965.43        81.74802
965.82        81.47747
966.21        81.11948
966.60        81.09128
966.98        81.50948
967.37        82.20213
967.76        82.95817
968.15        83.35879
968.53        83.27821
968.92        82.83924
969.31        82.26701
969.69        81.88322
970.08        81.75612
970.47        81.77824
970.86         81.8878
971.24        82.00333
971.63        82.03241
972.02         82.0734
972.40        82.09554
972.79        81.90016
973.17        81.55842
973.56        81.03249
973.95        80.55563
974.33        80.51584
974.72         80.9786
975.11        81.81289
975.49        82.70486
975.88         83.1431
976.26        83.00639
976.65        82.42322
977.04         81.6093
977.42        80.93807
977.81        80.50211
978.19        80.17477
978.58        80.11662
978.96        80.55191
979.35        81.41839
979.74        82.70013
980.12         83.9599
980.51        84.24203
980.89        83.48788
981.28        81.84067
981.66        79.97941
982.05        79.18214
982.43        79.81801
982.82        81.44752
983.20        83.46004
983.59        84.74052
983.97        85.06823
984.35        84.69954
984.74        83.90631
985.12        83.18412
985.51        82.74664
985.89        82.48626
986.28        82.35965
986.66        82.37257
987.04        82.49557
987.43         82.7431
987.81         83.1745
988.20        83.74184
988.58        84.42704
988.96        85.13467
989.35        85.65994
989.73        85.83267
990.12        85.55276
990.50        84.85856
990.88        83.84951
991.27        82.88552
991.65        82.22767
992.03         81.8698
992.42        81.64892
992.80        81.48068
993.18        81.20217
993.56        80.85209
993.95        80.50198
994.33        80.22733
994.71        80.15216
995.10        80.19716
995.48        80.29719
995.86        80.30461
996.24        80.20317
996.63        79.97559
997.01        79.84278
997.39        80.09538
997.77        80.78777
998.15        81.76785
998.54         82.7092
998.92        83.20618
999.30         83.2107
999.68        82.88683
1000.06        82.44045
1000.45        82.22035
1000.83        82.41906
1001.21        82.78529
1001.59        83.33456
1001.97        84.10934
1002.35        85.08884
1002.73        86.39695
1003.12        87.46671
1003.50        87.08369
1003.88        85.11612
1004.26        82.07265
1004.64        79.28769
1005.02        78.40365
1005.40        79.57484
1005.78         82.3502
1006.16        85.57112
1006.54        87.10141
1006.92        86.28192
1007.30        83.71282
1007.69        80.62206
1008.07        79.00795
1008.45        79.51088
1008.83        81.45248
1009.21        83.79844
1009.59        85.09716
1009.97        84.93748
1010.35        83.66068
1010.73         81.8627
1011.11         80.9695
1011.49        81.67542
1011.86        83.60159
1012.24         85.6773
1012.62        86.75856
1013.00        86.63597
1013.38        85.68432
1013.76        84.63636
1014.14        84.67661
1014.52        86.12425
1014.90        88.64301
1015.28        91.38154
1015.66        92.68492
1016.04        91.97506
1016.41         89.8403
1016.79        87.08033
1017.17        85.23116
1017.55        84.65201
1017.93        84.95355
1018.31        85.56098
1018.69        85.50853
1019.06        84.60785
1019.44        83.21454
1019.82        81.83898
1020.20         81.5144
1020.58        82.48038
1020.95         83.9632
1021.33        85.64426
1021.71        87.19002
1022.09        88.40932
1022.46        89.47355
1022.84        89.69051
1023.22          87.606
1023.60        82.85338
1023.97          75.346
1024.35        66.92655
1024.73        61.99205
