SpectraSmart Spectrum 2.9.0.0
--------- Device Information -----------
Spectrum Name :  反射率_0
Saving Time :  2024/04/28 00:07:00
Spectro-Module Model Name : SE2030-DUVN
Spectro-Module Serial Number : OS361AC55029948
Wavelength Start : 200
Wavelength End : 1025
Wavelength Unit : Wavelength(nm)
Spectrum Unit : Reflectance(%)
-----------Spectrum Setting ------------
Integration Time : 20ms
Average : 10
Boxcar : 0
Background removal :  enabled
linearity correction :  enabled
SC :  disabled
Intensity correction :  disabled
DWT denoise :  enabled
savitzky-golay :  disabled
FFT :  disabled
Running average :  disabled
Kalman :  disabled
High pass :  disabled
---------------BEGIN--------------------
Wavelength(nm)             Reflectance(%)
200.29               0
200.75        3.468798
201.21         18.7289
201.67        35.14047
202.13        45.13339
202.58        50.83299
203.04        55.50715
203.50        60.73083
203.96        67.39132
204.42        74.45213
204.88        80.54839
205.34        85.32114
205.80        89.19934
206.26        92.66451
206.72        96.24306
207.18        98.51859
207.64        93.90486
208.10        83.50349
208.55        74.74836
209.01        68.22862
209.47         61.3617
209.93        50.54333
210.39        25.98973
210.85       -42.91333
211.31        -111.822
211.77       -2.021355
212.23        61.86758
212.69        82.60023
213.14         87.6584
213.60        84.63071
214.06        74.13393
214.52        53.35019
214.98        34.00642
215.44        34.02672
215.90        43.74817
216.36        53.29445
216.81         58.8931
217.27        61.33335
217.73        62.67148
218.19        63.03233
218.65        61.97165
219.11        59.48822
219.57         55.4163
220.02        49.78343
220.48        45.05255
220.94        42.38888
221.40        41.47038
221.86        42.67374
222.32        46.06282
222.77        50.79146
223.23        56.06033
223.69        60.07324
224.15         60.8204
224.61        58.35734
225.06        53.12727
225.52        47.29589
225.98         44.8695
226.44        46.36411
226.90        49.53754
227.36        52.16278
227.81        52.41943
228.27         50.3869
228.73        46.70698
229.19        42.15699
229.65         38.5146
230.10        36.63394
230.56        36.33652
231.02        36.84329
231.48        37.17377
231.93        36.99526
232.39         36.6208
232.85        36.54953
233.31         37.4663
233.77        39.31432
234.22        41.81311
234.68        43.88338
235.14        44.23586
235.60        42.66919
236.05        39.27882
236.51        35.46061
236.97        34.34465
237.43        37.11521
237.88        43.09797
238.34        49.39708
238.80        52.85957
239.26        52.69095
239.71        48.46633
240.17        40.75534
240.63        37.63232
241.08         45.2996
241.54        57.38065
242.00        66.67155
242.46        70.79803
242.91        70.89968
243.37        66.64692
243.83        56.18711
244.28        44.91937
244.74        49.98593
245.20        67.60701
245.66        80.07092
246.11        81.78025
246.57        74.52444
247.03        57.19037
247.48        29.60323
247.94        10.57139
248.40        19.75979
248.85        46.10659
249.31        72.29986
249.77        84.44631
250.22        84.41508
250.68        79.26449
251.14         73.3113
251.59        69.63026
252.05         68.3892
252.51        67.83822
252.96        67.28828
253.42        66.79757
253.88        65.99981
254.33        65.85289
254.79        65.72654
255.25        64.15626
255.70        61.47615
256.16        58.81773
256.62        57.31679
257.07        58.26035
257.53        61.10704
257.99        64.17577
258.44         66.1862
258.90        66.50019
259.35        65.06203
259.81        62.93831
260.27        60.45429
260.72        58.03351
261.18        56.16962
261.63        54.48006
262.09        53.09867
262.55        51.78475
263.00        50.42603
263.46        49.20412
263.91        48.08989
264.37        47.37048
264.83        46.94788
265.28        46.65898
265.74        46.35698
266.19         45.6675
266.65        44.62174
267.11        43.31055
267.56        41.87231
268.02        40.62613
268.47        39.62974
268.93        38.81664
269.38        38.14735
269.84        37.58287
270.30        37.07051
270.75        36.60536
271.21        36.10858
271.66        35.40911
272.12        34.50442
272.57        33.42196
273.03        32.28259
273.48        31.20512
273.94        30.30256
274.39        29.52992
274.85        28.93276
275.31        28.50044
275.76        28.18148
276.22        27.96249
276.67        27.76391
277.13        27.55511
277.58        27.26651
278.04         26.9477
278.49        26.50213
278.95        25.89697
279.40        25.11588
279.86        24.25928
280.31        23.44383
280.77        22.94174
281.22        22.75475
281.68        22.82959
282.13        22.99584
282.59        23.04574
283.04        22.92361
283.50        22.70486
283.95        22.47633
284.41        22.40033
284.86        22.49165
285.32        22.69803
285.77        22.91745
286.22        23.04147
286.68        23.06255
287.13        22.99184
287.59        22.92041
288.04        22.91279
288.50        23.01083
288.95         23.1594
289.41        23.32464
289.86        23.41422
290.32        23.43783
290.77        23.43683
291.22        23.47229
291.68        23.62305
292.13        23.91342
292.59        24.34476
293.04        24.91604
293.50        25.64477
293.95        26.51627
294.40         27.5354
294.86        28.67683
295.31        29.89099
295.77          31.172
296.22        32.51164
296.68        33.92701
297.13        35.41734
297.58        36.97641
298.04        38.59047
298.49        40.24042
298.95        41.94284
299.40         43.7077
299.85        45.55013
300.31        47.49807
300.76        49.52906
301.21        51.62045
301.67        53.75948
302.12         55.8745
302.58        57.95054
303.03        59.95325
303.48        61.91951
303.94        63.90376
304.39        65.90421
304.84        67.95927
305.30        70.07503
305.75        72.21237
306.20        74.40183
306.66        76.64915
307.11        78.88292
307.57        81.08777
308.02        83.11686
308.47         84.9537
308.93        86.63165
309.38        88.14266
309.83        89.58484
310.29        91.01665
310.74         92.4067
311.19        93.76456
311.65         95.0736
312.10        96.28757
312.55        97.40805
313.00        98.47194
313.46        99.54352
313.91         100.616
314.36        101.6948
314.82        102.6732
315.27        103.3749
315.72        103.7822
316.18        103.9708
316.63        104.1208
317.08        104.5554
317.53        105.3416
317.99        106.3769
318.44        107.4656
318.89        108.2585
319.35         108.662
319.80        108.7897
320.25        108.8009
320.70        108.9647
321.16        109.3464
321.61        109.8749
322.06         110.447
322.51         110.911
322.97        111.2022
323.42        111.4194
323.87          111.59
324.32        111.7722
324.78        111.9764
325.23        112.2176
325.68        112.4824
326.13        112.7879
326.59        113.1017
327.04        113.4684
327.49        113.8462
327.94        114.1996
328.39        114.5198
328.85        114.7857
329.30        115.0625
329.75         115.295
330.20        115.4875
330.66        115.6137
331.11        115.8056
331.56        116.1512
332.01        116.6776
332.46        117.3563
332.92        118.0332
333.37        118.6008
333.82        118.9506
334.27        119.1272
334.72        119.2403
335.17        119.4799
335.63        119.8788
336.08        120.4501
336.53        121.0809
336.98        121.6278
337.43        122.0527
337.88        122.4027
338.34        122.7451
338.79        123.2477
339.24        123.9141
339.69        124.6748
340.14        125.4306
340.59        126.0273
341.05        126.4291
341.50        126.7155
341.95        126.9235
342.40        127.1252
342.85         127.366
343.30        127.6177
343.75        127.9628
344.20        128.5323
344.66        129.3248
345.11        130.2817
345.56        131.2029
346.01        131.7631
346.46        131.8963
346.91        131.7037
347.36        131.3919
347.81        131.2873
348.26        131.4758
348.72        131.8642
349.17        132.3173
349.62        132.6423
350.07        132.7703
350.52        132.7607
350.97        132.6742
351.42        132.5966
351.87        132.5578
352.32        132.5324
352.77        132.4624
353.22        132.2707
353.67        131.9433
354.13        131.5093
354.58        131.0449
355.03         130.734
355.48        130.5949
355.93        130.5674
356.38        130.4676
356.83         130.008
357.28        129.1486
357.73        128.0072
358.18        126.7964
358.63          125.84
359.08        125.2245
359.53        124.8538
359.98        124.5943
360.43        124.2356
360.88        123.6986
361.33        123.0266
361.78        122.2806
362.23        121.5482
362.68        120.8516
363.13        120.1784
363.58        119.4438
364.03        118.4395
364.48         117.302
364.93        115.9856
365.38        114.6924
365.83        113.6622
366.28        112.9405
366.73        112.4468
367.18        112.0183
367.63         111.391
368.08        110.5025
368.53        109.4484
368.98        108.3432
369.43        107.3703
369.88        106.5922
370.33        105.9445
370.78        105.4031
371.23        104.9347
371.68         104.501
372.13        104.0994
372.58        103.6728
373.03        103.1262
373.48        102.4398
373.93        101.6405
374.38         100.769
374.83        99.89427
375.28        99.05373
375.72        98.22839
376.17        97.48207
376.62        96.83718
377.07        96.28761
377.52        95.80273
377.97        95.35443
378.42        94.89468
378.87         94.4041
379.32         93.9092
379.77        93.35442
380.22        92.65305
380.67        91.80929
381.11        90.85435
381.56        89.94916
382.01        89.37208
382.46        89.18453
382.91        89.30943
383.36        89.52641
383.81        89.48632
384.26        89.10144
384.71         88.4593
385.15        87.73736
385.60        87.28268
386.05        87.14455
386.50        87.21157
386.95        87.28564
387.40        87.07224
387.85        86.52518
388.29        85.72018
388.74        84.94231
389.19        84.37986
389.64        84.06384
390.09        83.89149
390.54        83.75032
390.98        83.44791
391.43        83.00074
391.88        82.48769
392.33        81.93868
392.78        81.45796
393.23        81.10169
393.67        80.65841
394.12        80.22996
394.57        80.52838
395.02        80.30255
395.47        80.34598
395.91        80.27634
396.36        80.20079
396.81        80.11912
397.26        79.99226
397.71        79.80204
398.15        79.53997
398.60        79.30071
399.05          78.884
399.50        78.44476
399.95        78.46439
400.39        78.81525
400.84        78.84328
401.29        78.46713
401.74        77.82575
402.18        77.11954
402.63        76.83998
403.08        76.96046
403.53        76.84073
403.97        76.45619
404.42        76.27089
404.87        76.27805
405.32        76.24023
405.76        76.12212
406.21        76.02207
406.66        75.93589
407.11         75.7684
407.55        75.56826
408.00        75.53902
408.45        75.61809
408.90        75.30612
409.34        74.67764
409.79        74.34745
410.24        74.33197
410.68         74.2701
411.13        74.15857
411.58        74.21609
412.03        74.40136
412.47        74.53796
412.92        74.56052
413.37        74.52761
413.81        74.44203
414.26        74.37154
414.71        74.31303
415.15        74.26696
415.60        74.20193
416.05        74.13754
416.49        74.08509
416.94        74.03499
417.39        74.00521
417.83         74.0154
418.28        74.05463
418.73        74.09527
419.17        74.11773
419.62         74.0962
420.07        74.04015
420.51        73.97095
420.96        73.88343
421.41        73.78252
421.85        73.65829
422.30        73.36811
422.74         73.0399
423.19        73.39843
423.64        74.26305
424.08         74.5887
424.53        74.24053
424.98        74.15024
425.42        74.37128
425.87        74.11311
426.31         73.5426
426.76        73.71309
427.21        74.48021
427.65        74.50723
428.10        73.82637
428.54        73.95121
428.99        74.11513
429.44        74.49599
429.88         74.7009
430.33        74.46967
430.77        73.89896
431.22        73.85381
431.66        74.27235
432.11        74.26668
432.56        73.96639
433.00        74.17999
433.45         74.6161
433.89        74.83564
434.34        74.99802
434.78        73.31399
435.23        73.95569
435.67        74.35673
436.12        75.15864
436.57        75.24871
437.01        74.63419
437.46        74.73664
437.90        74.78754
438.35        75.39291
438.79        75.10045
439.24          75.116
439.68        75.13921
440.13        75.07504
440.57        74.99619
441.02        75.40195
441.46        76.03815
441.91        75.86552
442.35        75.05508
442.80        74.94373
443.24        75.46549
443.69        75.75657
444.13        75.73093
444.58        75.83156
445.02        76.00217
445.47        76.13381
445.91        76.22366
446.36         76.1709
446.80        75.92428
447.24        76.33617
447.69        75.86407
448.13        76.07658
448.58        76.42133
449.02        76.46617
449.47        76.24745
449.91        76.19114
450.36        76.34438
450.80        76.41559
451.25        76.40279
451.69        76.40269
452.13        76.40041
452.58        76.30824
453.02        76.15207
453.47        76.01476
453.91         75.8994
454.36        75.89156
454.80        75.90041
455.24        75.59228
455.69        75.10487
456.13        74.80806
456.58        74.81828
457.02        74.83372
457.46        75.36298
457.91        74.97704
458.35        74.30463
458.79        73.95438
459.24         74.0593
459.68        74.12234
460.13        74.08707
460.57        73.91766
461.01        73.96669
461.46        73.77818
461.90        73.19821
462.34        73.84007
462.79        73.63841
463.23        73.67175
463.68        73.38989
464.12        73.26509
464.56        73.31402
465.01        73.39702
465.45         73.3396
465.89         73.2241
466.34        73.12688
466.78        72.65208
467.22        71.83044
467.67        72.71069
468.11        72.18494
468.55         72.1669
468.99        71.79449
469.44        71.67948
469.88        71.82117
470.32        71.92801
470.77        71.96638
471.21         71.9632
471.65        71.89899
472.10        71.77592
472.54         71.6026
472.98        71.45257
473.42        71.35448
473.87        71.25054
474.31        71.11245
474.75        71.15993
475.20        71.33049
475.64         71.1153
476.08        70.95501
476.52        70.83076
476.97        70.87532
477.41        70.94872
477.85        70.96207
478.29        70.77689
478.74        71.22562
479.18        70.27686
479.62        70.81497
480.06        70.70148
480.50        70.71963
480.95        70.90559
481.39        71.17015
481.83        70.88587
482.27        71.42894
482.72        70.51015
483.16        70.82589
483.60        70.59253
484.04        70.50998
484.48         70.4499
484.93        70.56062
485.37        70.58631
485.81        71.34721
486.25        71.16248
486.69        71.78632
487.14        71.00929
487.58        70.52556
488.02        70.91983
488.46        70.75484
488.90        71.15307
489.34        70.71934
489.79        70.09919
490.23        70.27596
490.67        69.99966
491.11        69.71838
491.55         69.7544
491.99        70.04227
492.43        70.14441
492.88        69.99954
493.32        69.84589
493.76        69.74644
494.20        69.74475
494.64        69.86397
495.08        70.07938
495.52        70.31855
495.96        70.43847
496.41        70.37231
496.85        70.24817
497.29        69.89177
497.73        69.65469
498.17        70.04605
498.61        70.00667
499.05        69.71313
499.49        69.68519
499.93        69.93423
500.37        69.87082
500.82         69.5069
501.26        69.65994
501.70        70.36446
502.14         69.6323
502.58        69.96911
503.02        69.85059
503.46        69.73393
503.90        69.59451
504.34        69.40715
504.78        69.35386
505.22        69.38593
505.66        69.44471
506.10        69.52328
506.54         69.4875
506.98        69.27728
507.42        69.67742
507.86        69.37241
508.30        69.33971
508.74        69.54009
509.18        69.69149
509.62        69.82402
510.06        69.83646
510.50        69.72668
510.94        69.51516
511.38        69.28348
511.82        69.16699
512.26        69.19557
512.70         69.3297
513.14         69.5092
513.58        69.60954
514.02        69.59296
514.46        69.54209
514.90        69.50015
515.34        69.28998
515.78         69.3291
516.22        69.27682
516.66        69.24337
517.10        69.20764
517.54        69.16802
517.98        69.13027
518.42         69.0929
518.86        69.05874
519.30         69.0305
519.74        69.01085
520.18        69.00132
520.62        69.00479
521.06        69.02183
521.50        69.04742
521.93        69.08979
522.37        69.14896
522.81        69.22309
523.25        69.30099
523.69        69.35677
524.13        69.35205
524.57        69.28138
525.01         69.1614
525.45        69.01599
525.89        68.88249
526.32        68.77184
526.76         68.6927
527.20        68.64467
527.64        68.63238
528.08        68.65208
528.52        68.69944
528.96        68.76273
529.40        68.82155
529.83        68.86179
530.27        68.89879
530.71        68.91778
531.15        68.91011
531.59        68.87555
532.03        68.81149
532.46        68.73899
532.90        68.71466
533.34        68.74141
533.78        68.81064
534.22        68.87372
534.66         68.8549
535.09        68.73569
535.53        68.55978
535.97        68.38467
536.41        68.31683
536.85        68.37788
537.28        68.53703
537.72        68.71963
538.16        68.79627
538.60        68.74001
539.04        68.60343
539.47        68.43536
539.91        68.36427
540.35        68.39984
540.79        68.49014
541.22        68.56181
541.66        68.65437
542.10        68.51265
542.54        68.36029
542.97         68.1858
543.41        68.11961
543.85        68.17122
544.29        68.30783
544.72        68.45845
545.16        68.54362
545.60        68.52729
546.04         68.4341
546.47        68.31454
546.91          68.261
547.35        68.28564
547.79        68.35817
548.22        68.41702
548.66        68.40443
549.10        68.31382
549.53        68.26109
549.97        68.26762
550.41        68.26021
550.84        68.23334
551.28         68.2804
551.72        68.37538
552.15        68.32611
552.59        68.11742
553.03         68.2222
553.46        67.92229
553.90        67.93645
554.34        68.02422
554.77        68.27676
555.21        68.61651
555.65        68.45803
556.08        68.46131
556.52         68.2569
556.96        68.09976
557.39         68.0471
557.83        68.10538
558.27         68.1007
558.70        68.02067
559.14        67.99703
559.57        68.01024
560.01        68.03426
560.45        68.03708
560.88        67.96916
561.32        67.91467
561.75        67.89659
562.19        67.94331
562.63        68.11305
563.06        68.29607
563.50        68.13056
563.93        67.71423
564.37        67.58614
564.80         67.7532
565.24        68.01584
565.68        68.29838
566.11        68.32471
566.55        68.48445
566.98        68.48199
567.42        68.45854
567.85         68.3449
568.29        68.23824
568.72        68.13126
569.16        68.07948
569.60        68.20761
570.03        68.47562
570.47        68.35324
570.90        68.65869
571.34         68.8875
571.77        68.93382
572.21        68.55377
572.64        68.91373
573.08        68.22398
573.51         68.3392
573.95        68.53304
574.38        69.14042
574.82        68.62717
575.25        68.65916
575.69        68.54977
576.12        68.31659
576.56        68.32299
576.99        68.88227
577.42        68.64072
577.86        68.82565
578.29        69.26894
578.73        69.10496
579.16        69.08771
579.60        68.85116
580.03        68.65498
580.47        68.45078
580.90        68.90165
581.33         69.1542
581.77        68.98903
582.20        69.44122
582.64        69.15224
583.07        69.11617
583.51        68.82461
583.94        68.71944
584.37        68.57761
584.81        68.46131
585.24         68.5786
585.68        68.83901
586.11        68.92199
586.54        68.80755
586.98        68.40085
587.41        68.88892
587.85        68.51662
588.28        68.62326
588.71        68.28667
589.15        68.42519
589.58        68.35574
590.01        68.27497
590.45        68.48413
590.88        68.10493
591.31        68.05298
591.75        68.06107
592.18        68.00864
592.61        68.06077
593.05        68.25826
593.48        68.65977
593.91        68.32685
594.35        68.28713
594.78        68.52612
595.21        68.21458
595.65        68.24337
596.08        67.80399
596.51        68.20715
596.94        67.91889
597.38        68.02282
597.81        68.18895
598.24        67.87202
598.68        68.17149
599.11        68.09229
599.54        68.67599
599.97        68.51424
600.41        68.55401
600.84        68.48006
601.27        68.49431
601.70        68.30799
602.14        67.96311
602.57        68.11639
603.00         68.0615
603.43        68.14686
603.87        68.45744
604.30        68.30141
604.73         68.0704
605.16         68.0341
605.60        68.12574
606.03        68.30775
606.46        68.44435
606.89        68.41001
607.32        68.22616
607.76        68.51716
608.19        68.25148
608.62        68.26493
609.05        68.15202
609.48        68.11263
609.92        68.02425
610.35        68.21075
610.78        68.15702
611.21        67.64813
611.64        68.02772
612.07         68.1239
612.50        68.12007
612.94        68.04953
613.37        67.82455
613.80        68.14799
614.23         67.7096
614.66        67.76868
615.09        67.87736
615.52         68.0097
615.96        68.14882
616.39        67.76575
616.82        67.86098
617.25        67.88881
617.68         67.7469
618.11        67.84028
618.54        68.03473
618.97        68.08903
619.40         67.9222
619.84        68.14051
620.27        68.01485
620.70        67.91965
621.13        67.61842
621.56        67.84981
621.99        67.56331
622.42        67.48367
622.85        67.85115
623.28        67.71741
623.71        67.55777
624.14         67.5722
624.57        67.80885
625.00        67.65482
625.43        67.62474
625.86        67.49689
626.29         67.4139
626.72        67.60933
627.15        67.28144
627.58        67.35234
628.01        67.65595
628.44        67.18616
628.87        66.94796
629.30        67.55441
629.73        67.48878
630.16        66.98576
630.59        67.23184
631.02        67.15629
631.45        67.22978
631.88        67.24937
632.31        67.24033
632.74         67.1292
633.17        67.18425
633.60        67.20109
634.03        67.25411
634.46        67.33507
634.89        67.40987
635.32        67.40669
635.75        67.31216
636.18        67.18665
636.61        67.06896
637.04         66.9444
637.47        66.86852
637.89        67.00558
638.32        67.27708
638.75        67.43404
639.18        67.43945
639.61        67.41896
640.04        67.38746
640.47        67.33661
640.90        67.28156
641.33        67.19362
641.76        67.07618
642.18        67.10537
642.61        67.01917
643.04        67.02474
643.47        67.03404
643.90         67.0303
644.33        67.00495
644.76        66.96597
645.18        66.92406
645.61        66.88319
646.04        66.85023
646.47         66.8177
646.90        66.79064
647.33          66.792
647.75        66.83327
648.18        66.87555
648.61        66.89764
649.04        66.99819
649.47         67.1165
649.89         66.9237
650.32        66.55083
650.75        66.58374
651.18        66.98655
651.61        67.23675
652.03        67.19031
652.46        67.04604
652.89        66.98927
653.32         66.7338
653.74        66.62808
654.17         67.7226
654.60        66.87085
655.03        66.76102
655.46        67.27953
655.88        67.13884
656.31        69.55764
656.74        72.13031
657.16        69.89052
657.59        68.34991
658.02        67.47177
658.45        67.97483
658.87        67.93533
659.30        67.43436
659.73        67.32858
660.15        67.16325
660.58        67.05563
661.01        67.29786
661.44        67.63599
661.86        67.57751
662.29        67.14175
662.72        66.85827
663.14        66.82677
663.57        66.90089
664.00        67.02872
664.42        67.07079
664.85        67.00978
665.27        66.95053
665.70        66.91813
666.13        66.89954
666.55        66.90601
666.98        66.93526
667.41        66.97371
667.83        66.99747
668.26        66.99217
668.69        66.97643
669.11        66.97099
669.54        66.99741
669.96         67.0645
670.39        67.15337
670.82        67.25495
671.24        67.33341
671.67        67.38736
672.09        67.43607
672.52        67.55359
672.94         67.4753
673.37        67.27414
673.80        67.16982
674.22        67.18549
674.65        67.13868
675.07        67.05022
675.50        67.01413
675.92        67.04181
676.35        67.08449
676.77        67.14155
677.20        67.22263
677.62         67.3109
678.05        67.36397
678.47        67.37139
678.90        67.34415
679.32        67.30852
679.75        67.32377
680.17        67.40074
680.60        67.53331
681.02        67.65355
681.45        67.66595
681.87        67.57147
682.30        67.29121
682.72        66.96394
683.15        67.04954
683.57        67.48283
684.00        67.59509
684.42        67.38988
684.85        67.40953
685.27        67.64503
685.70        67.76279
686.12        67.73228
686.54        67.75609
686.97        67.83294
687.39         67.7954
687.82        67.61625
688.24        67.78301
688.66        67.64375
689.09        67.58169
689.51        67.64177
689.94        67.66668
690.36        67.72269
690.78        67.79236
691.21        67.85087
691.63        67.85513
692.06        67.78333
692.48        67.58699
692.90        67.33524
693.33        67.18855
693.75        67.18147
694.17        67.25662
694.60        67.35315
695.02        67.44238
695.44        67.49832
695.87        67.45481
696.29        67.37445
696.71        67.54863
697.14        67.88427
697.56        67.91377
697.98        67.66988
698.41        67.64383
698.83        67.82966
699.25        67.97675
699.68        68.03034
700.10        68.07928
700.52        68.10208
700.94        68.08098
701.37        68.01001
701.79        67.91946
702.21        67.80424
702.64        67.68196
703.06        67.57101
703.48         67.5134
703.90        67.52513
704.33        67.59732
704.75        67.70624
705.17        67.78648
705.59        67.81842
706.01        67.78757
706.44        67.74634
706.86        67.88421
707.28        68.01501
707.70        68.31695
708.12        68.63689
708.55         68.6546
708.97        68.41285
709.39        68.34267
709.81        68.45732
710.23        68.43314
710.66        68.27209
711.08        68.20523
711.50        68.22222
711.92        68.21865
712.34        68.19228
712.76        68.17641
713.19        68.17345
713.61        68.23013
714.03        68.32795
714.45        68.44402
714.87        68.55699
715.29        68.64059
715.71        68.68482
716.13        68.69789
716.56        68.66171
716.98        68.62286
717.40        68.57254
717.82        68.51544
718.24        68.47894
718.66        68.50562
719.08        68.59968
719.50        68.74133
719.92         68.9033
720.34        69.03889
720.76        69.12904
721.19        69.17709
721.61        69.18377
722.03        69.12384
722.45        69.00085
722.87        68.81799
723.29        68.63277
723.71        68.53811
724.13        68.55814
724.55        68.68175
724.97        68.83484
725.39        68.88932
725.81        68.81866
726.23        68.65792
726.65        68.50501
727.07        68.51789
727.49        68.72427
727.91        69.06587
728.33        69.42562
728.75        69.61002
729.17        69.56723
729.59         69.3612
730.01        69.08529
730.43         68.8932
730.85        68.83105
731.27        68.84438
731.69        68.90794
732.10         68.9837
732.52        69.03954
732.94        69.14572
733.36        69.26962
733.78        69.24947
734.20        69.06031
734.62        69.16422
735.04        68.68256
735.46        68.89025
735.88        69.37971
736.30        69.45583
736.72        69.13623
737.13        69.04321
737.55          69.199
737.97        69.39414
738.39        69.56275
738.81        69.48239
739.23        69.23383
739.65        69.38449
740.06        69.79638
740.48         69.8707
740.90        69.54845
741.32        69.22757
741.74        68.93307
742.16        68.83169
742.57        68.95036
742.99        69.25216
743.41        69.61383
743.83        69.82491
744.25         69.8317
744.67        69.67966
745.08        69.48922
745.50        69.42315
745.92        69.54355
746.34        69.79639
746.75        70.05936
747.17        70.15407
747.59        70.03789
748.01        69.71421
748.42        69.34309
748.84        69.25481
749.26        69.43238
749.68        69.65403
750.09        69.79377
750.51        69.60801
750.93        69.22092
751.35        69.25266
751.76        69.64677
752.18        69.74249
752.60        69.51946
753.01        69.38444
753.43        69.38127
753.85        69.42778
754.27        69.53592
754.68        69.72472
755.10        69.94754
755.52        70.12832
755.93        70.24034
756.35        70.29313
756.77        70.29925
757.18        70.29471
757.60        70.30605
758.02        70.29956
758.43        70.27524
758.85        70.28303
759.26        70.24405
759.68        70.12589
760.10        70.13775
760.51        69.48631
760.93        70.19466
761.34        70.57164
761.76        70.65713
762.18        70.57266
762.59        70.28622
763.01        70.16212
763.42        70.28446
763.84        70.26907
764.26        70.17405
764.67        70.35635
765.09        70.72512
765.50        70.77673
765.92        70.53032
766.33         70.2522
766.75        70.02629
767.16        69.95195
767.58        70.02737
768.00        70.45871
768.41        71.03289
768.83        70.95622
769.24        70.36564
769.66        70.07517
770.07        70.15977
770.49        70.50478
770.90        70.94157
771.32        70.87373
771.73        70.41091
772.15        70.30967
772.56        70.60976
772.97         70.8824
773.39         70.9922
773.80        70.89543
774.22        70.62394
774.63        70.55807
775.05        70.68752
775.46        70.73281
775.88        70.66068
776.29        70.71315
776.70        70.86478
777.12        70.96411
777.53        71.01158
777.95        71.03065
778.36        71.04327
778.77        71.06271
779.19        71.10097
779.60        71.16084
780.02        71.22034
780.43        71.30158
780.84        71.38847
781.26        71.38813
781.67        71.39411
782.09        71.60191
782.50         71.8231
782.91        72.22181
783.33        71.42448
783.74        71.29286
784.15        71.44787
784.57        71.45349
784.98        71.32878
785.39        71.47639
785.81        71.82251
786.22        71.90417
786.63         71.7381
787.04        71.71558
787.46        71.86156
787.87        71.94318
788.28        71.93623
788.70        71.93787
789.11        71.93158
789.52        71.78686
789.93        71.58788
790.35        71.71331
790.76        72.09935
791.17         72.1218
791.58        71.78043
792.00        71.67426
792.41        71.85779
792.82        71.76305
793.23        71.52802
793.65        71.99381
794.06        72.98847
794.47        73.38873
794.88        73.12035
795.29        72.95154
795.71        72.92362
796.12        72.41856
796.53        71.64301
796.94         71.5503
797.35        72.13531
797.76        72.52882
798.18        72.59908
798.59        72.74226
799.00        72.91737
799.41        72.82199
799.82        72.51069
800.23        72.27702
800.64        72.17625
801.06        72.09387
801.47        72.08541
801.88        72.16613
802.29        72.33005
802.70        72.59694
803.11        72.87333
803.52        72.98218
803.93        72.88034
804.34        72.60251
804.75        72.29765
805.17        72.16806
805.58        72.29239
805.99        72.71792
806.40        73.26062
806.81        73.28608
807.22        72.86849
807.63        72.80285
808.04        73.11623
808.45        73.20008
808.86          73.034
809.27        73.01192
809.68        73.10461
810.09        73.05415
810.50        72.84978
810.91        72.58798
811.32        72.34313
811.73        72.24133
812.14        72.32046
812.55        72.48895
812.96        72.71173
813.37        73.03908
813.78        73.37837
814.19        73.48683
814.60        73.38822
815.01        73.34468
815.42        73.37934
815.83        73.33499
816.24        73.22998
816.65        73.18398
817.05         73.2187
817.46        73.27731
817.87        73.34251
818.28        73.32462
818.69        73.21009
819.10        73.03506
819.51        72.85952
819.92        72.78907
820.33        72.85571
820.74        73.01459
821.14        73.21819
821.55        73.43393
821.96        73.61705
822.37        73.77646
822.78        73.87851
823.19        73.86378
823.60        73.72883
824.00         73.5191
824.41        73.25169
824.82        73.04848
825.23        72.94787
825.64         72.9315
826.04        73.02334
826.45        73.21172
826.86        73.48525
827.27        73.83845
827.68        74.18794
828.08        74.42575
828.49        74.45408
828.90        74.33334
829.31        74.15231
829.72        74.07611
830.12        74.17065
830.53        74.33724
830.94        74.52598
831.35        74.61495
831.75        74.58646
832.16        74.44109
832.57        74.22414
832.97        73.97492
833.38        73.72619
833.79        73.49128
834.20        73.31482
834.60        73.25516
835.01        73.32993
835.42        73.51153
835.82        73.78541
836.23        74.03792
836.64        74.25056
837.04        74.45434
837.45        74.57951
837.86        74.62179
838.26        74.59838
838.67        74.49751
839.08        74.38248
839.48         74.3476
839.89        74.41135
840.29        74.53813
840.70        74.69653
841.11        74.83188
841.51        74.94026
841.92        75.01376
842.33        75.02023
842.73        74.90256
843.14        74.61817
843.54        74.21193
843.95        73.82257
844.35         73.6951
844.76        73.86659
845.17        74.27718
845.57        74.74275
845.98        74.91125
846.38        74.72137
846.79        74.24718
847.19        73.70095
847.60        73.38614
848.00        73.41591
848.41        73.66351
848.81        74.01273
849.22        74.19885
849.62        74.18083
850.03        74.01434
850.43        73.81406
850.84        73.67077
851.24        73.67331
851.65        73.73424
852.05        73.87711
852.46        74.02875
852.86        74.15624
853.27        74.29594
853.67        74.38801
854.07        74.52363
854.48         74.6666
854.88        74.83154
855.29         74.8968
855.69        74.84638
856.10        74.58352
856.50        74.22583
856.90        73.81908
857.31        73.46851
857.71        73.26124
858.12        73.11192
858.52        73.07892
858.92        73.12176
859.33        73.20134
859.73        73.37246
860.13        73.51774
860.54        73.45196
860.94        73.18193
861.34        72.72627
861.75        72.23738
862.15        72.02783
862.55        72.13196
862.96        72.47466
863.36         72.8831
863.76         73.0499
864.17        72.88895
864.57        72.51508
864.97        72.08518
865.38        71.82921
865.78         71.8594
866.18        72.07318
866.58        72.35829
866.99        72.53301
867.39        72.55947
867.79        72.46805
868.19        72.31895
868.60        72.15765
869.00        71.99689
869.40         71.8481
869.80        71.71201
870.21        71.61055
870.61        71.62584
871.01        71.69283
871.41        71.80918
871.81        71.96835
872.22        72.12757
872.62        72.30243
873.02        72.44471
873.42        72.46303
873.82        72.33727
874.22         72.1117
874.63        71.85676
875.03        71.63889
875.43        71.49775
875.83         71.4269
876.23        71.43958
876.63        71.55215
877.03        71.75353
877.44        72.01359
877.84        72.30752
878.24         72.5601
878.64        72.72709
879.04        72.80777
879.44        72.78883
879.84        72.65685
880.24        72.43065
880.64        72.13818
881.04        71.83171
881.44        71.60326
881.84        71.48545
882.24        71.44353
882.65        71.46839
883.05        71.63445
883.45        71.88199
883.85        72.20197
884.25        72.45728
884.65        72.44412
885.05         72.1441
885.45        71.61654
885.85        71.06637
886.25        70.85715
886.65        71.07927
887.05        71.61711
887.45        72.24904
887.85        72.63393
888.25        72.67472
888.65        72.45941
889.04        72.11234
889.44        71.88709
889.84        71.83792
890.24        71.88712
890.64        71.93167
891.04        71.81777
891.44        71.52352
891.84        71.13515
892.24        70.75626
892.64        70.53266
893.04        70.50384
893.44        70.61355
893.83        70.83707
894.23        71.06837
894.63        71.28841
895.03        71.51299
895.43        71.69916
895.83        71.77837
896.23        71.74738
896.63        71.62469
897.02        71.48338
897.42        71.47775
897.82        71.62701
898.22        71.90505
898.62         72.2408
899.01        72.51804
899.41        72.67842
899.81        72.75822
900.21        72.81952
900.61        72.96732
901.00        73.20989
901.40        73.51698
901.80        73.79352
902.20        73.91252
902.59        73.85557
902.99        73.64954
903.39        73.38788
903.79        73.21006
904.18        73.15338
904.58        73.18951
904.98        73.24791
905.38        73.22778
905.77        73.09428
906.17        72.88525
906.57        72.65639
906.96        72.51788
907.36        72.48684
907.76        72.57558
908.15        72.71429
908.55        72.71129
908.95        72.56892
909.34        72.30745
909.74        72.14973
910.14        72.39058
910.53        73.06165
910.93        74.02083
911.33        74.95969
911.72        75.35767
912.12        75.08793
912.52         74.3772
912.91        73.48933
913.31        72.82331
913.70        72.47578
914.10        72.29896
914.49        72.31036
914.89        72.47488
915.29        72.75713
915.68        73.18314
916.08        73.54461
916.47         73.4923
916.87        73.00182
917.26        72.15445
917.66        71.28052
918.05        70.88178
918.45        71.06092
918.84        71.68911
919.24        72.46707
919.64        72.96961
920.03        73.08473
920.42        72.94847
920.82        72.71535
921.21        72.61958
921.61        72.71596
922.00        72.90276
922.40        73.16902
922.79        73.58156
923.19        74.07182
923.58        74.68254
923.98        75.15811
924.37        75.15987
924.77        74.63786
925.16        73.65966
925.55        72.62697
925.95         72.2457
926.34        72.67706
926.74        73.69485
927.13        74.82871
927.52        75.21885
927.92        74.70644
928.31        73.57494
928.70        72.28963
929.10        71.54913
929.49        71.54337
929.89        72.02068
930.28        72.78052
930.67        73.35654
931.07        73.55202
931.46        73.52719
931.85         73.3438
932.24        73.12086
932.64        72.91756
933.03        72.69606
933.42        72.46206
933.82        72.24265
934.21        72.06671
934.60        71.96303
934.99        71.99677
935.39         72.2321
935.78        72.69193
936.17         73.3126
936.56        73.97333
936.96        74.45779
937.35        74.73082
937.74        74.80659
938.13        74.71924
938.53        74.53536
938.92        74.30234
939.31        74.00439
939.70         73.7207
940.09        73.58981
940.49        73.61884
940.88        73.80895
941.27        74.05076
941.66        74.16935
942.05          74.121
942.44        73.95992
942.84        73.74599
943.23        73.52715
943.62        73.35196
944.01        73.18102
944.40        73.02985
944.79        72.93787
945.18        72.89574
945.57         72.8876
945.97        72.81284
946.36        72.57898
946.75        72.14291
947.14        71.56104
947.53        70.91667
947.92        70.36566
948.31        69.99065
948.70        69.77239
949.09        69.73065
949.48        69.87965
949.87        70.19693
950.26        70.66884
950.65         71.2067
951.04        71.67133
951.43        72.01424
951.82          72.237
952.21        72.38057
952.60         72.5369
952.99        72.72342
953.38        72.90492
953.77        73.01933
954.16        72.97854
954.55        72.76853
954.94        72.41864
955.33        72.01368
955.72        71.69128
956.11         71.4834
956.50        71.35676
956.89         71.2172
957.28        70.88909
957.66        70.38097
958.05          69.786
958.44        69.22877
958.83        68.88477
959.22        68.80447
959.61        68.89055
960.00        69.17223
960.39        69.70576
960.78        70.43411
961.16        71.34102
961.55        72.07296
961.94        72.13571
962.33        71.44099
962.72        70.19406
963.11        68.80907
963.49        67.89272
963.88        67.61146
964.27        67.82499
964.66         68.3774
965.04        68.97876
965.43        69.41106
965.82        69.78675
966.21        70.12689
966.60        70.48495
966.98        70.87431
967.37        71.17948
967.76        71.35985
968.15        71.35646
968.53        71.17493
968.92        70.88263
969.31        70.50465
969.69        70.03906
970.08        69.51962
970.47        68.98361
970.86        68.66282
971.24        68.95397
971.63        69.81972
972.02        71.08241
972.40        72.40768
972.79        73.20435
973.17        73.45606
973.56        73.26019
973.95        72.83768
974.33        72.55138
974.72        72.53324
975.11        72.65849
975.49        72.86416
975.88        73.08784
976.26        73.29179
976.65        73.49815
977.04        73.63009
977.42        73.52245
977.81        73.09772
978.19        72.37766
978.58        71.63182
978.96        71.28349
979.35        71.42889
979.74        72.01176
980.12        72.77161
980.51        73.04651
980.89        72.78929
981.28        72.05851
981.66        71.25849
982.05         71.1509
982.43         71.8983
982.82        73.21296
983.20        74.57394
983.59        75.01762
983.97        74.45171
984.35        73.13238
984.74         71.5994
985.12        70.80232
985.51        71.01496
985.89        71.91656
986.28        73.12009
986.66        74.16626
987.04        74.84415
987.43        75.24961
987.81        75.37974
988.20        75.11861
988.58        74.54752
988.96        73.72609
989.35        72.67352
989.73        71.51481
990.12        70.26396
990.50        68.83547
990.88        67.64968
991.27        67.58797
991.65        68.78151
992.03         70.8689
992.42        72.71033
992.80        73.17195
993.18        71.95599
993.56        69.25111
993.95        65.77014
994.33        63.47563
994.71        63.49783
995.10        65.03247
995.48        67.13078
995.86        68.70003
996.24        69.58853
996.63        70.09498
997.01        70.47842
997.39        71.02192
997.77        71.77073
998.15        72.53729
998.54        72.92824
998.92         72.5131
999.30        71.26961
999.68        69.36355
1000.06        67.49931
1000.45        66.90823
1000.83        67.96717
1001.21        70.20679
1001.59        72.71217
1001.97        74.14155
1002.35        74.17508
1002.73        73.18361
1003.12        71.58783
1003.50        70.23734
1003.88        69.65385
1004.26        69.52628
1004.64        69.82575
1005.02        70.54562
1005.40        71.59422
1005.78        73.04771
1006.16        74.49468
1006.54        75.10392
1006.92        74.67958
1007.30        73.44815
1007.69        72.01284
1008.07        71.33428
1008.45        71.72423
1008.83         72.7772
1009.21        74.09059
1009.59        75.10298
1009.97        75.61619
1010.35        75.84774
1010.73        75.56358
1011.11        74.32173
1011.49        72.21165
1011.86        69.57002
1012.24        67.17429
1012.62        66.26082
1013.00        66.96853
1013.38         69.0226
1013.76        71.61049
1014.14        73.30766
1014.52        73.66092
1014.90        72.93465
1015.28        71.73727
1015.66        71.34246
1016.04        72.11579
1016.41        73.62286
1016.79        74.97214
1017.17        75.25787
1017.55        74.33836
1017.93        72.75528
1018.31        70.95386
1018.69        69.53291
1019.06        68.77168
1019.44        68.43359
1019.82        68.82265
1020.20        70.46056
1020.58        73.11358
1020.95        76.27822
1021.33        78.90187
1021.71         79.6747
1022.09        78.44913
1022.46        75.49771
1022.84        71.59886
1023.22        68.05209
1023.60         65.3997
1023.97        63.35401
1024.35        61.88645
1024.73        60.20301
