SpectraSmart Spectrum 2.9.0.0
--------- Device Information -----------
Spectrum Name :  反射率_0
Saving Time :  2024/04/27 23:58:56
Spectro-Module Model Name : SE2030-DUVN
Spectro-Module Serial Number : OS361AC55029948
Wavelength Start : 200
Wavelength End : 1025
Wavelength Unit : Wavelength(nm)
Spectrum Unit : Reflectance(%)
-----------Spectrum Setting ------------
Integration Time : 20ms
Average : 10
Boxcar : 0
Background removal :  enabled
linearity correction :  enabled
SC :  disabled
Intensity correction :  disabled
DWT denoise :  enabled
savitzky-golay :  disabled
FFT :  disabled
Running average :  disabled
Kalman :  disabled
High pass :  disabled
---------------BEGIN--------------------
Wavelength(nm)             Reflectance(%)
200.29               0
200.75        43.69862
201.21         57.6663
201.67         67.2579
202.13        68.47323
202.58        64.06654
203.04        57.12498
203.50        51.90707
203.96        54.10554
204.42        62.71297
204.88        73.74073
205.34         83.3958
205.80        88.99589
206.26        90.59086
206.72        88.37683
207.18         81.8028
207.64        74.67574
208.10        72.32794
208.55         74.0585
209.01        74.39263
209.47        69.80537
209.93        57.30901
210.39        24.84573
210.85        -73.4637
211.31       -196.0472
211.77       -56.18326
212.23        38.13313
212.69        71.53296
213.14        81.22076
213.60         79.7564
214.06        69.77728
214.52         50.3926
214.98        37.65304
215.44        46.64297
215.90        62.08905
216.36        73.57851
216.81        78.23571
217.27        77.95916
217.73        75.27412
218.19        70.70564
218.65        64.61652
219.11        57.44164
219.57        48.59213
220.02         39.4714
220.48        35.52569
220.94        38.09371
221.40        45.02095
221.86        53.08689
222.32         58.9911
222.77        62.35814
223.23        64.12321
223.69        64.60919
224.15        64.04941
224.61        62.73672
225.06        60.49691
225.52        58.33186
225.98        57.78134
226.44        58.89135
226.90        60.63867
227.36        62.16273
227.81         62.7999
228.27        62.59788
228.73        61.69478
229.19         60.0528
229.65        57.74506
230.10        55.00169
230.56        52.33705
231.02        49.91351
231.48        47.95183
231.93        46.52055
232.39        45.73471
232.85         45.8794
233.31        47.35719
233.77        49.98094
234.22        53.44723
234.68        56.88596
235.14        59.32867
235.60        60.65327
236.05        61.04414
236.51        61.17887
236.97        62.40742
237.43         65.0647
237.88        68.72235
238.34        72.12921
238.80        74.47294
239.26        75.75476
239.71        76.38587
240.17        76.54776
240.63        77.53441
241.08        79.83515
241.54        81.85245
242.00        83.42793
242.46        85.19486
242.91        87.98226
243.37        93.00638
243.83        103.0491
244.28        117.2444
244.74        121.3096
245.20         112.542
245.66        102.6329
246.11        97.23742
246.57        94.86868
247.03        93.76713
247.48        93.51064
247.94        93.01422
248.40        91.94754
248.85        91.47455
249.31        92.23288
249.77        94.07589
250.22        96.45455
250.68        98.97733
251.14        101.2274
251.59        103.2618
252.05        105.5924
252.51        108.4119
252.96        112.0233
253.42        116.1306
253.88        118.6458
254.33        118.7513
254.79        117.5048
255.25          114.72
255.70        110.7146
256.16        106.9586
256.62        103.9445
257.07        102.3733
257.53        102.5817
257.99        103.3123
258.44         103.753
258.90        103.9841
259.35        103.4071
259.81        102.7614
260.27         101.763
260.72        100.1912
261.18        98.66689
261.63        96.84153
262.09         95.2207
262.55        93.66774
263.00        92.03358
263.46        90.54051
263.91         88.9986
264.37        87.74138
264.83         86.6595
265.28        85.63834
265.74        84.66773
266.19        83.32008
266.65        81.69354
267.11        79.82034
267.56        77.87867
268.02        76.30254
268.47        75.11879
268.93        74.22704
269.38        73.43191
269.84        72.48536
270.30        71.29427
270.75        69.93676
271.21        68.47874
271.66        66.93935
272.12        65.38754
272.57         63.7664
273.03        62.18753
273.48        60.71778
273.94         59.4575
274.39        58.33652
274.85        57.36333
275.31         56.3947
275.76        55.36645
276.22        54.36651
276.67        53.36665
277.13        52.49533
277.58        51.68642
278.04        50.98075
278.49         50.2477
278.95        49.47486
279.40        48.58857
279.86        47.69388
280.31        46.81427
280.77         46.1587
281.22        45.67673
281.68        45.36513
282.13        45.06412
282.59        44.65412
283.04        44.07442
283.50        43.42878
283.95        42.76978
284.41        42.25276
284.86        41.89624
285.32        41.69207
285.77        41.58934
286.22        41.58707
286.68        41.67215
287.13        41.77518
287.59        41.89772
288.04        41.93874
288.50        41.91729
288.95        41.82357
289.41         41.6755
289.86        41.42917
290.32        41.14977
290.77        40.86322
291.22        40.69994
291.68        40.83405
292.13        41.28772
292.59        42.04269
293.04        43.00181
293.50        44.04243
293.95        45.09976
294.40        46.20356
294.86        47.38931
295.31        48.70647
295.77        50.17284
296.22         51.7414
296.68        53.36191
297.13        54.92447
297.58        56.40849
298.04        57.85649
298.49        59.32418
298.95        60.96222
299.40        62.79198
299.85        64.77976
300.31        66.89406
300.76        69.01035
301.21         71.0778
301.67        73.13641
302.12        75.10303
302.58         76.9764
303.03        78.73075
303.48        80.41606
303.94         82.1697
304.39        84.09345
304.84         86.2379
305.30        88.56602
305.75        90.92464
306.20        93.19492
306.66        95.35354
307.11        97.37437
307.57        99.31258
308.02        101.1105
308.47        102.7932
308.93        104.3736
309.38        105.8322
309.83        107.2737
310.29         108.747
310.74        110.2123
311.19         111.658
311.65        113.0235
312.10        114.2477
312.55        115.3476
313.00        116.3618
313.46        117.3629
313.91        118.3512
314.36        119.3327
314.82        120.2411
315.27        120.9656
315.72        121.4933
316.18        121.8767
316.63        122.2226
317.08        122.7435
317.53        123.4765
317.99        124.3428
318.44        125.2094
318.89        125.8283
319.35        126.1408
319.80        126.2488
320.25         126.256
320.70        126.3409
321.16        126.5528
321.61        126.8496
322.06        127.2255
322.51        127.6856
322.97        128.1816
323.42        128.7561
323.87        129.2831
324.32        129.5729
324.78        129.5759
325.23        129.4005
325.68        129.1687
326.13        129.1294
326.59          129.33
327.04        129.7585
327.49        130.3277
327.94         130.929
328.39        131.5084
328.85         132.055
329.30        132.6059
329.75        133.0178
330.20        133.2718
330.66         133.347
331.11        133.4146
331.56        133.6309
332.01        134.0511
332.46        134.6247
332.92        135.2219
333.37         135.795
333.82        136.2344
334.27        136.5957
334.72        136.8939
335.17        137.1519
335.63        137.3719
336.08        137.6161
336.53        137.9315
336.98        138.4556
337.43        139.2037
337.88        140.1207
338.34        141.0717
338.79        141.9022
339.24        142.5198
339.69        142.9609
340.14        143.2526
340.59        143.4517
341.05        143.6097
341.50        143.7509
341.95         143.909
342.40        144.1539
342.85        144.5077
343.30        144.9441
343.75        145.4937
344.20        146.1889
344.66         147.004
345.11        147.9081
345.56        148.7147
346.01        149.1341
346.46        149.1237
346.91        148.7688
347.36        148.3433
347.81        148.2751
348.26        148.6549
348.72        149.3651
349.17        150.1328
349.62        150.5437
350.07        150.4879
350.52        150.0903
350.97        149.5778
351.42        149.3077
351.87        149.3684
352.32        149.6414
352.77        149.9125
353.22        149.8629
353.67        149.4158
354.13         148.678
354.58        147.8286
355.03        147.2168
355.48        146.9122
355.93         146.802
356.38        146.6438
356.83        146.0629
357.28        144.9992
357.73         143.612
358.18        142.1586
358.63        141.0225
359.08        140.3049
359.53        139.8846
359.98        139.5955
360.43        139.1799
360.88        138.5434
361.33        137.7414
361.78        136.8573
362.23        136.0075
362.68        135.2215
363.13          134.49
363.58        133.7105
364.03        132.5809
364.48         131.341
364.93        129.8797
365.38        128.4577
365.83        127.3522
366.28        126.6187
366.73        126.1585
367.18        125.7906
367.63        125.2268
368.08        124.3865
368.53        123.3599
368.98        122.2511
369.43        121.2309
369.88        120.3577
370.33        119.5713
370.78        118.8485
371.23        118.1573
371.68        117.4768
372.13        116.8267
372.58        116.1837
373.03         115.501
373.48        114.7725
373.93        114.0054
374.38        113.2325
374.83        112.5091
375.28        111.8453
375.72        111.2039
376.17        110.5942
376.62        109.9525
377.07        109.2661
377.52         108.545
377.97        107.8165
378.42        107.1249
378.87        106.4825
379.32        105.8839
379.77        105.2927
380.22        104.6453
380.67        103.9333
381.11        103.1881
381.56        102.4649
382.01        101.8695
382.46        101.4364
382.91        101.1371
383.36        100.9153
383.81        100.6794
384.26        100.3943
384.71        100.0748
385.15        99.72518
385.60        99.42231
386.05        99.15254
386.50        98.88892
386.95        98.59653
387.40         98.2369
387.85        97.80891
388.29        97.27653
388.74        96.78751
389.19         96.3186
389.64        95.87029
390.09        95.42194
390.54        94.96384
390.98        94.49374
391.43        94.08222
391.88        93.64809
392.33        93.19696
392.78        92.94415
393.23        92.78824
393.67        92.25088
394.12        91.44585
394.57        91.28577
395.02        91.37212
395.47        91.51321
395.91        91.50281
396.36        91.43201
396.81        91.27969
397.26        91.00251
397.71        90.64322
398.15        90.27502
398.60        90.01888
399.05        89.69494
399.50        89.38031
399.95        89.35332
400.39        89.52527
400.84        89.46268
401.29        89.12716
401.74        88.61458
402.18        88.06853
402.63        87.81832
403.08        87.84263
403.53        87.67889
403.97        87.31982
404.42        87.12341
404.87        87.05762
405.32        86.96684
405.76        86.82034
406.21        86.53442
406.66        86.21689
407.11         86.2572
407.55        86.55637
408.00        86.60889
408.45        86.31215
408.90        85.51336
409.34        84.49448
409.79        84.21132
410.24        84.59633
410.68        84.69789
411.13        84.46581
411.58        84.52294
412.03        84.81276
412.47        84.91058
412.92        84.74137
413.37         84.4561
413.81         84.1171
414.26        83.87966
414.71        83.75922
415.15        83.72594
415.60        83.72282
416.05        83.73444
416.49        83.75087
416.94        83.77016
417.39        83.78227
417.83        83.76832
418.28        83.70946
418.73        83.57116
419.17        83.39786
419.62        83.27525
420.07         83.2437
420.51        83.30214
420.96        83.34341
421.41        83.25497
421.85        83.00842
422.30        82.37333
422.74        81.65109
423.19        82.09125
423.64        83.39378
424.08        83.80241
424.53        83.18484
424.98        82.68951
425.42        83.24703
425.87        82.87212
426.31        82.03718
426.76        82.19574
427.21        83.12514
427.65        83.06155
428.10        82.11208
428.54        81.81326
428.99        82.23065
429.44        82.65507
429.88        82.86398
430.33        82.65088
430.77        82.09098
431.22        81.85667
431.66        81.98838
432.11        82.16148
432.56        82.39379
433.00        82.69875
433.45        82.75901
433.89        82.69435
434.34         82.7067
434.78        81.23421
435.23        81.78294
435.67        81.85827
436.12        82.37444
436.57        82.41461
437.01        82.16869
437.46        81.83173
437.90        81.90636
438.35        82.87727
438.79        82.32578
439.24         82.4556
439.68        82.54618
440.13        82.66572
440.57           82.77
441.02        82.93061
441.46        83.03857
441.91        82.78314
442.35        82.23979
442.80        82.10564
443.24        82.32578
443.69         82.4426
444.13        82.42563
444.58        82.62917
445.02        82.97122
445.47        83.12993
445.91         83.0779
446.36        83.07552
446.80        83.11595
447.24        82.99808
447.69        82.77821
448.13        82.78186
448.58        82.93957
449.02         82.7061
449.47        82.21748
449.91        82.12769
450.36        82.45146
450.80        82.67433
451.25        82.74321
451.69        82.83733
452.13        82.91515
452.58        82.79998
453.02         82.5463
453.47        82.33479
453.91        82.18642
454.36         82.1774
454.80        82.19652
455.24        81.81769
455.69        81.18108
456.13        80.78302
456.58        80.82712
457.02        80.64349
457.46        81.59876
457.91        81.29237
458.35        80.60858
458.79        80.27354
459.24        80.42582
459.68         80.4273
460.13        80.25181
460.57        80.09559
461.01        79.99892
461.46        79.91924
461.90        79.48231
462.34        79.85666
462.79         79.7616
463.23        79.80844
463.68        79.65814
464.12         79.4446
464.56        79.27708
465.01        79.43824
465.45        79.69879
465.89        79.74091
466.34        79.57996
466.78         79.0349
467.22        78.24306
467.67        78.66228
468.11        78.55872
468.55         78.5073
468.99        78.05471
469.44        77.94695
469.88        78.19032
470.32        78.37849
470.77        78.45599
471.21        78.50019
471.65        78.48341
472.10        78.39607
472.54        78.22282
472.98        78.01674
473.42        77.81004
473.87        77.54029
474.31        77.23151
474.75        77.24522
475.20        77.48398
475.64        77.35654
476.08        76.91505
476.52        76.88307
476.97        77.31536
477.41        77.26997
477.85        77.48623
478.29         77.6397
478.74        77.75101
479.18        76.69054
479.62         77.1905
480.06        76.99428
480.50         76.9681
480.95        76.95524
481.39        76.82342
481.83        77.18354
482.27         77.2273
482.72        76.35063
483.16        76.81481
483.60        76.53578
484.04        76.39613
484.48        76.44395
484.93        76.99787
485.37        76.44992
485.81        76.99216
486.25        77.56965
486.69        77.49803
487.14        76.42197
487.58         76.5074
488.02        76.93346
488.46        77.27716
488.90        76.08965
489.34        76.25793
489.79        75.85176
490.23        76.10504
490.67          75.986
491.11        75.65019
491.55        75.58533
491.99        75.75592
492.43        75.84447
492.88        75.81862
493.32        75.86014
493.76          75.944
494.20        76.04011
494.64        76.16266
495.08        76.17863
495.52        76.11013
495.96        76.34325
496.41        76.73223
496.85        76.43388
497.29        75.62012
497.73        75.49638
498.17        75.91536
498.61        76.07687
499.05        75.85806
499.49        75.75924
499.93        75.84235
500.37        75.79018
500.82        75.60281
501.26        75.83279
501.70        76.50933
502.14        75.68028
502.58        76.08743
503.02         75.9968
503.46        75.90716
503.90        75.81806
504.34        75.68195
504.78        75.66524
505.22        75.71249
505.66        75.73254
506.10        75.73307
506.54        75.68469
506.98        75.55035
507.42        75.82441
507.86        75.63396
508.30        75.52475
508.74        75.57582
509.18        75.52651
509.62        75.47514
510.06        75.42859
510.50        75.39989
510.94         75.3782
511.38        75.35446
511.82        75.32046
512.26        75.27415
512.70        75.21423
513.14        75.15904
513.58        75.13116
514.02        75.13556
514.46        75.13473
514.90        75.26801
515.34        75.13064
515.78        75.19293
516.22        75.11227
516.66        75.04939
517.10        75.04111
517.54        75.09481
517.98          75.187
518.42        75.27438
518.86        75.29984
519.30        75.24957
519.74        75.14866
520.18        75.02567
520.62        74.92327
521.06        74.85982
521.50        74.82543
521.93        74.82764
522.37        74.86297
522.81        74.92961
523.25        75.02056
523.69        75.11456
524.13        75.17707
524.57        75.19814
525.01        75.18588
525.45        75.14494
525.89        75.08592
526.32        75.01169
526.76        74.93593
527.20        74.87228
527.64         74.8507
528.08        74.87453
528.52        74.93298
528.96        75.00313
529.40        75.04689
529.83        75.04589
530.27        75.02425
530.71        74.98032
531.15        74.92444
531.59        74.86308
532.03         74.7928
532.46        74.71922
532.90         74.6758
533.34        74.66108
533.78        74.67009
534.22        74.68322
534.66        74.66893
535.09        74.61106
535.53        74.53921
535.97        74.45893
536.41         74.4025
536.85        74.38046
537.28        74.37951
537.72        74.38305
538.16        74.41282
538.60        74.37227
539.04         74.3596
539.47        74.34986
539.91        74.39233
540.35         74.4698
540.79        74.58067
541.22        74.67942
541.66        74.70175
542.10        74.63376
542.54        74.50042
542.97        74.34257
543.41         74.2662
543.85        74.27867
544.29        74.35529
544.72        74.44213
545.16        74.49222
545.60        74.47185
546.04        74.39446
546.47        74.29002
546.91        74.21069
547.35         74.1596
547.79        74.14957
548.22        74.13241
548.66        74.00756
549.10        73.81052
549.53         73.8031
549.97        73.97046
550.41        74.03959
550.84        73.97108
551.28        73.99607
551.72        74.13258
552.15        74.07928
552.59        73.79957
553.03        74.30686
553.46        73.86593
553.90        73.93118
554.34        73.98021
554.77        74.06248
555.21        74.11765
555.65        74.09373
556.08        73.92808
556.52        73.79153
556.96        73.69775
557.39         73.7717
557.83        73.96407
558.27        73.93725
558.70        73.71616
559.14        73.63744
559.57          73.699
560.01        73.74887
560.45        73.74915
560.88        73.71723
561.32        73.72305
561.75        73.72153
562.19        73.75401
562.63        73.92918
563.06        74.14861
563.50        74.03733
563.93        73.65678
564.37        73.53984
564.80        73.67199
565.24        73.75803
565.68        73.77067
566.11        73.80666
566.55        73.87477
566.98        73.95853
567.42        74.03384
567.85        73.90879
568.29        73.70786
568.72        73.59615
569.16        73.57729
569.60        73.70947
570.03        73.98709
570.47        73.62891
570.90        73.51384
571.34         74.4642
571.77         73.9068
572.21        73.98894
572.64        74.19852
573.08        73.79327
573.51        73.74963
573.95         73.7923
574.38        74.04592
574.82        74.11292
575.25        73.99361
575.69        73.61092
576.12        73.57364
576.56         74.0539
576.99        73.83904
577.42        73.68578
577.86        74.00787
578.29        74.25527
578.73        73.97677
579.16        73.95488
579.60         73.9456
580.03        73.96277
580.47        73.84148
580.90        74.22262
581.33        74.46172
581.77        74.20509
582.20        74.33871
582.64        74.42806
583.07        73.92909
583.51        73.67791
583.94        73.72866
584.37        73.81441
584.81        73.88977
585.24        73.99815
585.68        74.22124
586.11        73.85266
586.54        73.67966
586.98        73.78356
587.41        74.32335
587.85        73.62931
588.28        74.02502
588.71        73.74893
589.15        74.08629
589.58        73.91354
590.01        74.19505
590.45        74.14626
590.88        73.26977
591.31        73.23318
591.75        73.71901
592.18        73.76271
592.61        73.52365
593.05        73.67588
593.48        74.31828
593.91        73.82749
594.35        73.69588
594.78        73.87363
595.21        73.60865
595.65        73.54006
596.08        73.13883
596.51        73.51391
596.94        73.20885
597.38         73.4218
597.81        73.85912
598.24        72.98267
598.68        73.97741
599.11        73.42305
599.54        73.74846
599.97        73.83504
600.41        73.74796
600.84        73.80351
601.27        73.86726
601.70        73.32094
602.14        73.39607
602.57        73.32222
603.00        73.10863
603.43        73.74255
603.87         73.6537
604.30        73.34205
604.73         73.1496
605.16         73.5427
605.60        73.41045
606.03        73.66795
606.46        73.89871
606.89         73.3886
607.32        73.72926
607.76        73.53994
608.19         73.5854
608.62        73.51073
609.05        73.43463
609.48        73.47118
609.92        73.56835
610.35        73.44202
610.78        73.40601
611.21        73.11082
611.64        73.24707
612.07        73.26783
612.50         73.3035
612.94        73.33281
613.37        73.38677
613.80        73.17651
614.23        73.24396
614.66        73.24683
615.09        73.28653
615.52        73.37175
615.96        73.54092
616.39        73.09173
616.82        73.32764
617.25        73.39481
617.68        73.34409
618.11        73.25616
618.54        73.11906
618.97        73.18795
619.40        73.34914
619.84        73.45084
620.27        73.29481
620.70         72.9841
621.13        72.54115
621.56        72.88872
621.99        73.21469
622.42        73.05344
622.85        72.88875
623.28        72.90825
623.71        73.14397
624.14        72.57227
624.57        72.89573
625.00        73.30621
625.43         72.7563
625.86        72.84865
626.29        73.14307
626.72        72.90305
627.15        73.01945
627.58        72.93525
628.01        73.02267
628.44        72.85421
628.87        72.56396
629.30        73.13924
629.73        72.77426
630.16        72.11971
630.59        72.55656
631.02        72.63549
631.45        72.82866
631.88        72.95741
632.31        73.04056
632.74        72.75513
633.17        72.83988
633.60        72.75188
634.03        72.71903
634.46        72.71564
634.89         72.7446
635.32         72.7822
635.75        72.81271
636.18        72.88695
636.61        72.97827
637.04         72.9579
637.47         72.8599
637.89        72.89519
638.32        73.03214
638.75        73.09362
639.18        73.07159
639.61        73.07647
640.04        73.10161
640.47         73.1004
640.90         73.0752
641.33        73.00932
641.76        72.90955
642.18        72.96851
642.61         72.9009
643.04        72.92468
643.47        72.94186
643.90        72.93564
644.33        72.89719
644.76        72.83606
645.18        72.76449
645.61        72.68841
646.04        72.61526
646.47        72.53448
646.90        72.45821
647.33        72.42241
647.75         72.4473
648.18        72.49232
648.61         72.5164
649.04        72.62591
649.47        72.75356
649.89        72.45996
650.32        71.93802
650.75         72.0821
651.18        72.78348
651.61        73.06846
652.03         72.8174
652.46        72.54896
652.89        72.46988
653.32        72.20887
653.74        72.18314
654.17        72.76959
654.60        73.08911
655.03        72.51636
655.46         72.5622
655.88        73.40466
656.31        75.24934
656.74        76.02256
657.16        74.39275
657.59        73.34839
658.02        72.50854
658.45        72.70244
658.87        73.49477
659.30        73.19487
659.73        72.78544
660.15        73.02504
660.58        72.70106
661.01        72.83872
661.44        72.89435
661.86        72.91834
662.29        72.83601
662.72        72.53126
663.14        72.15291
663.57        72.14663
664.00        72.47684
664.42        72.59724
664.85        72.48385
665.27         72.4621
665.70        72.52693
666.13        72.52483
666.55         72.4568
666.98        72.34995
667.41        72.25829
667.83        72.27244
668.26        72.40176
668.69        72.62764
669.11        72.86581
669.54         73.0026
669.96        73.01835
670.39        72.85029
670.82        72.61796
671.24        72.69687
671.67        73.02251
672.09        73.11474
672.52        72.97312
672.94        72.82423
673.37        72.78403
673.80        72.73537
674.22        72.70753
674.65        72.63644
675.07        72.54894
675.50        72.49303
675.92        72.49688
676.35        72.55012
676.77        72.65431
677.20         72.8064
677.62        72.96864
678.05        73.05885
678.47        73.05568
678.90        72.98744
679.32        72.88302
679.75        72.80561
680.17        72.77687
680.60        72.79588
681.02        72.82173
681.45        72.80289
681.87        72.74962
682.30        72.56175
682.72        72.34939
683.15        72.54444
683.57        73.05492
684.00        73.16769
684.42        72.90922
684.85        72.90476
685.27        73.15459
685.70        73.29436
686.12         73.2848
686.54        73.27108
686.97        73.23431
687.39        73.13366
687.82         73.0102
688.24        72.82687
688.66        72.95908
689.09        72.95095
689.51        73.10699
689.94        73.13848
690.36         73.1046
690.78        73.02161
691.21         72.9234
691.63        72.85707
692.06        72.83942
692.48        72.85376
692.90        72.88459
693.33        72.89587
693.75        72.88425
694.17        72.87155
694.60        72.85192
695.02        72.85696
695.44        72.88329
695.87        72.88895
696.29        72.89872
696.71        73.03457
697.14        73.23954
697.56        73.32916
697.98        73.28555
698.41         73.2996
698.83        73.35175
699.25        73.35015
699.68        73.28627
700.10        73.26017
700.52        73.26849
700.94        73.29054
701.37        73.29301
701.79        73.26025
702.21        73.17048
702.64        73.05602
703.06        72.94009
703.48        72.87677
703.90        72.88586
704.33         72.9461
704.75         73.0486
705.17        73.14527
705.59        73.21715
706.01        73.26254
706.44        73.30411
706.86        73.39973
707.28        73.51818
707.70        73.67591
708.12        73.81777
708.55         73.8193
708.97        73.68145
709.39         73.5285
709.81        73.40985
710.23        73.33471
710.66        73.32666
711.08        73.43182
711.50        73.58617
711.92          73.685
712.34        73.70708
712.76        73.68061
713.19        73.63641
713.61        73.67742
714.03        73.79816
714.45        73.96067
714.87        74.12041
715.29        74.21413
715.71        74.22396
716.13        74.17327
716.56         74.0621
716.98        73.97198
717.40        73.90173
717.82        73.84441
718.24        73.81225
718.66        73.82381
719.08        73.87659
719.50        73.96126
719.92        74.05651
720.34         74.1246
720.76        74.15151
721.19        74.13671
721.61        74.09232
722.03        74.00815
722.45        73.89314
722.87        73.75484
723.29        73.63019
723.71        73.57565
724.13        73.60435
724.55        73.71242
724.97        73.88517
725.39        74.00439
725.81        74.03071
726.23        74.14197
726.65        74.39834
727.07        74.03302
727.49        74.43265
727.91        74.47382
728.33        74.53661
728.75        74.53835
729.17        74.48224
729.59        74.37656
730.01        74.25121
730.43        74.19323
730.85        74.21528
731.27        74.28645
731.69        74.38362
732.10         74.4796
732.52        74.56336
732.94        74.64867
733.36        74.70158
733.78        74.73604
734.20        74.76665
734.62         74.5797
735.04        74.35823
735.46        74.56909
735.88        75.07333
736.30        74.96393
736.72        74.32654
737.13        74.03538
737.55        74.13548
737.97        74.34317
738.39        74.54768
738.81        74.43531
739.23        74.09938
739.65        74.26472
740.06        74.80102
740.48        74.99675
740.90        74.78883
741.32        74.64619
741.74        74.53802
742.16        74.52167
742.57         74.6003
742.99        74.77007
743.41        74.96781
743.83        75.07714
744.25        75.06749
744.67        74.95354
745.08        74.82135
745.50        74.77108
745.92        74.84843
746.34        75.02897
746.75        75.19896
747.17        75.19087
747.59        74.97382
748.01        74.54182
748.42        74.09145
748.84        74.01713
749.26        74.30383
749.68        74.70304
750.09        75.02682
750.51         74.9286
750.93        74.52258
751.35        74.49573
751.76         74.8356
752.18        74.91515
752.60        74.72837
753.01        74.68156
753.43        74.77351
753.85        74.82775
754.27        74.83486
754.68        74.87945
755.10        74.95175
755.52        74.95627
755.93         74.9312
756.35        75.04089
756.77        75.24239
757.18        75.37258
757.60         75.4293
758.02        75.36633
758.43         75.2626
758.85        75.44126
759.26        75.81092
759.68        75.76246
760.10        76.00462
760.51        75.08749
760.93        75.16077
761.34        75.05083
761.76        74.89347
762.18        75.14329
762.59        75.58347
763.01        75.71877
763.42        75.58547
763.84          75.586
764.26        75.77723
764.67        75.91878
765.09         75.9961
765.50        75.94834
765.92        75.81403
766.33        75.65777
766.75        75.49079
767.16        75.42654
767.58        75.44165
768.00        75.61488
768.41        75.86797
768.83        75.90615
769.24        75.76009
769.66        75.61657
770.07        75.52599
770.49        75.72578
770.90        76.10923
771.32        76.06268
771.73        75.67569
772.15        75.58102
772.56        75.81732
772.97        76.07327
773.39        76.24702
773.80         76.2615
774.22        76.14876
774.63        76.33109
775.05        76.71456
775.46          76.852
775.88         76.6738
776.29        76.47646
776.70        76.33498
777.12        76.26212
777.53        76.30884
777.95        76.45853
778.36        76.63994
778.77        76.70875
779.19        76.64042
779.60        76.49046
780.02        76.33421
780.43        76.34212
780.84        76.52135
781.26        76.74381
781.67        77.02229
782.09        77.32404
782.50        77.40551
782.91        77.84425
783.33        76.71912
783.74        76.47253
784.15        76.58659
784.57        76.60186
784.98        76.52963
785.39        76.78633
785.81         77.2835
786.22        77.52268
786.63         77.4887
787.04        77.55028
787.46        77.72352
787.87        77.76736
788.28        77.68832
788.70        77.64393
789.11        77.63589
789.52        77.51963
789.93        77.35926
790.35         77.5183
790.76        77.90508
791.17        77.84666
791.58        77.39693
792.00        77.22495
792.41        77.38733
792.82        77.45142
793.23        77.44785
793.65        77.62505
794.06        77.97105
794.47        78.38216
794.88        78.71694
795.29        78.59582
795.71        78.48158
796.12         77.9214
796.53         77.2631
796.94        77.14548
797.35         77.5812
797.76        77.89896
798.18        77.98454
798.59        78.15426
799.00        78.36879
799.41        78.36811
799.82        78.19577
800.23        78.09657
800.64        78.11098
801.06        78.13982
801.47         78.2016
801.88        78.24872
802.29        78.27196
802.70        78.30199
803.11        78.34916
803.52        78.41488
803.93        78.49791
804.34        78.58381
804.75        78.67775
805.17        78.77203
805.58        78.88957
805.99        79.03014
806.40        79.14576
806.81        79.10316
807.22        78.91119
807.63        78.70508
808.04        78.55003
808.45        78.45932
808.86        78.45512
809.27        78.57042
809.68        78.72924
810.09        78.76241
810.50        78.63853
810.91         78.4184
811.32        78.18156
811.73        78.07489
812.14        78.14025
812.55        78.27458
812.96        78.44914
813.37        78.73227
813.78        79.03265
814.19        79.09995
814.60         78.9466
815.01         78.8235
815.42        78.75539
815.83        78.58846
816.24        78.38309
816.65        78.34007
817.05        78.49845
817.46        78.76382
817.87         79.0685
818.28        79.25084
818.69        79.26939
819.10        79.16889
819.51        79.00722
819.92         78.8914
820.33        78.86452
820.74        78.89323
821.14        78.94674
821.55        79.01425
821.96        79.06705
822.37        79.12148
822.78        79.17722
823.19        79.22552
823.60        79.26274
824.00        79.30328
824.41        79.30085
824.82        79.28316
825.23        79.25406
825.64        79.21703
826.04        79.19861
826.45        79.19659
826.86        79.22472
827.27         79.2812
827.68        79.35526
828.08         79.4578
828.49        79.51533
828.90        79.56829
829.31        79.61857
829.72        79.67365
830.12        79.75694
830.53        79.80668
830.94        79.84583
831.35        79.87867
831.75        79.92599
832.16        79.93826
832.57        79.91405
832.97        79.81149
833.38        79.62966
833.79        79.41199
834.20        79.21554
834.60        79.11486
835.01        79.13863
835.42         79.2469
835.82         79.4475
836.23        79.66221
836.64        79.88417
837.04        80.14568
837.45        80.33523
837.86        80.37949
838.26        80.28456
838.67        80.05743
839.08        79.82538
839.48        79.78608
839.89        79.97943
840.29        80.33839
840.70        80.75804
841.11        81.06902
841.51        81.23702
841.92         81.2795
842.33        81.22831
842.73         81.1336
843.14        80.97638
843.54        80.76915
843.95        80.57633
844.35        80.53152
844.76         80.6422
845.17         80.8812
845.57        81.14466
845.98        81.20678
846.38        81.04119
846.79         80.6834
847.19         80.2608
847.60        79.92986
848.00        79.77419
848.41        79.71657
848.81        79.74174
849.22        79.73998
849.62        79.71899
850.03        79.69357
850.43        79.69524
850.84        79.67976
851.24        79.69701
851.65        79.67413
852.05         79.7159
852.46         79.8808
852.86        80.15739
853.27        80.52424
853.67        80.78752
854.07        80.88077
854.48        80.74795
854.88        80.46455
855.29         80.0316
855.69        79.69424
856.10        79.44183
856.50        79.32085
856.90        79.26273
857.31        79.18515
857.71        79.10827
858.12        78.99774
858.52        78.92939
858.92        78.88711
859.33        78.85292
859.73        78.87185
860.13        78.86288
860.54        78.72424
860.94        78.48266
861.34        78.12482
861.75        77.77235
862.15        77.67411
862.55        77.84537
862.96        78.24878
863.36        78.66182
863.76        78.69578
864.17        78.26738
864.57        77.50008
864.97        76.72681
865.38        76.46274
865.78        76.86583
866.18        77.76011
866.58        78.74844
866.99        79.13292
867.39        78.75264
867.79        77.80698
868.19        76.69672
868.60        75.96774
869.00        75.75786
869.40        75.94239
869.80        76.32837
870.21        76.56882
870.61        76.61575
871.01        76.52624
871.41        76.42978
871.81        76.50026
872.22        76.74281
872.62         77.1063
873.02        77.48254
873.42        77.67977
873.82        77.64104
874.22        77.45664
874.63        77.24062
875.03        77.11394
875.43        77.12464
875.83        77.21466
876.23         77.3803
876.63        77.61895
877.03         77.8941
877.44        78.18618
877.84        78.39827
878.24        78.33129
878.64        77.96936
879.04        77.40852
879.44        76.80442
879.84        76.37003
880.24        76.16051
880.64        76.12046
881.04        76.22483
881.44        76.42223
881.84        76.66747
882.24        76.95676
882.65        77.20387
883.05        77.36845
883.45        77.39444
883.85        77.31541
884.25        77.16387
884.65        76.99994
885.05        76.85814
885.45        76.72166
885.85        76.67471
886.25        76.85548
886.65        77.26431
887.05        77.84241
887.45        78.39878
887.85        78.64308
888.25        78.51163
888.65        78.07989
889.04        77.50727
889.44        77.11258
889.84        76.97581
890.24        77.01817
890.64        77.13049
891.04        77.13249
891.44        76.98483
891.84        76.77413
892.24        76.57157
892.64        76.47562
893.04        76.51374
893.44        76.63136
893.83        76.83707
894.23         77.0866
894.63        77.37229
895.03        77.68858
895.43        77.95408
895.83         78.0363
896.23        77.92171
896.63        77.66056
897.02        77.35582
897.42         77.2095
897.82        77.25044
898.22        77.43303
898.62         77.6916
899.01        77.92019
899.41        78.05669
899.81        78.14704
900.21        78.20988
900.61        78.27621
901.00        78.34718
901.40        78.41358
901.80         78.4718
902.20        78.53806
902.59        78.62178
902.99        78.70889
903.39        78.78255
903.79        78.79723
904.18        78.74429
904.58        78.65568
904.98        78.56626
905.38        78.53694
905.77         78.5659
906.17        78.63168
906.57        78.70117
906.96        78.74188
907.36        78.71227
907.76        78.65755
908.15        78.56789
908.55         78.3469
908.95         78.0372
909.34        77.65168
909.74        77.35983
910.14        77.36441
910.53        77.69919
910.93        78.27066
911.33        78.89877
911.72        79.27235
912.12         79.2792
912.52        79.02129
912.91        78.61227
913.31        78.25671
913.70        78.00518
914.10        77.79779
914.49        77.63801
914.89        77.46697
915.29         77.3055
915.68        77.19244
916.08        77.15974
916.47        77.23277
916.87        77.42258
917.26         77.6796
917.66        77.97199
918.05        78.22099
918.45        78.39149
918.84        78.52384
919.24        78.59467
919.64         78.6566
920.03        78.74674
920.42        78.84977
920.82        78.97564
921.21        79.13616
921.61        79.30548
922.00        79.46729
922.40        79.63486
922.79        79.91257
923.19        80.25127
923.58        80.66822
923.98        80.91848
924.37        80.68575
924.77         79.9323
925.16        78.74838
925.55        77.54144
925.95        77.01666
926.34        77.34852
926.74        78.30958
927.13         79.4633
927.52        79.99892
927.92        79.74798
928.31        78.95754
928.70        78.00571
929.10        77.46301
929.49        77.48866
929.89        77.85506
930.28        78.43742
930.67        78.89731
931.07        79.08916
931.46        79.15814
931.85        79.10584
932.24        78.95655
932.64          78.748
933.03        78.46137
933.42        78.18975
933.82        78.09699
934.21        78.22364
934.60        78.54086
934.99        78.95217
935.39        79.25601
935.78        79.42298
936.17        79.47836
936.56        79.48297
936.96        79.53693
937.35          79.716
937.74        79.94957
938.13        80.16499
938.53        80.26962
938.92        80.24613
939.31        80.10721
939.70        79.94411
940.09        79.90944
940.49        80.00703
940.88        80.22526
941.27        80.39964
941.66         80.2821
942.05        79.84827
942.44        79.21123
942.84        78.57832
943.23        78.23412
943.62        78.28466
944.01        78.61971
944.40        79.13629
944.79        79.64005
945.18        80.01381
945.57        80.28757
945.97        80.35783
946.36        80.14507
946.75        79.63516
947.14        78.85983
947.53        77.99654
947.92        77.38142
948.31        77.12767
948.70        77.16881
949.09        77.38528
949.48        77.55331
949.87        77.61386
950.26        77.66168
950.65        77.71789
951.04        77.81475
951.43         77.9668
951.82        78.10612
952.21        78.30796
952.60        78.72558
952.99        79.32758
953.38        80.02105
953.77        80.54546
954.16        80.50993
954.55        79.85458
954.94        78.72314
955.33        77.37397
955.72        76.23974
956.11        75.49076
956.50        75.06029
956.89        74.89381
957.28         74.8525
957.66        74.91386
958.05         75.1316
958.44        75.50214
958.83        75.99293
959.22        76.55736
959.61        77.08875
960.00        77.59527
960.39        78.14071
960.78        78.69676
961.16        79.26723
961.55        79.56793
961.94        79.24961
962.33        78.29429
962.72         76.9059
963.11        75.50186
963.49        74.66384
963.88        74.53588
964.27        74.98172
964.66        75.77051
965.04        76.48048
965.43        76.84098
965.82        76.97469
966.21        76.99562
966.60        77.10696
966.98        77.36626
967.37        77.64555
967.76        77.81042
968.15        77.62108
968.53        77.07171
968.92        76.31293
969.31        75.59199
969.69         75.2308
970.08        75.30731
970.47        75.73081
970.86        76.47459
971.24        77.47483
971.63        78.54011
972.02        79.63442
972.40        80.57547
972.79        81.01173
973.17        80.99013
973.56        80.51398
973.95        79.83068
974.33        79.36748
974.72        79.25321
975.11        79.39516
975.49        79.59949
975.88        79.53802
976.26         79.1472
976.65        78.54227
977.04        77.88322
977.42         77.4109
977.81        77.15662
978.19        77.01014
978.58        77.07922
978.96        77.49899
979.35        78.20087
979.74        79.18112
980.12        80.10349
980.51        80.19514
980.89        79.43733
981.28        77.91942
981.66        76.25466
982.05        75.60445
982.43        76.26743
982.82        77.83427
983.20        79.66664
983.59        80.59335
983.97        80.41989
984.35        79.46442
984.74        78.09361
985.12        76.97706
985.51        76.39826
985.89        76.16947
986.28        76.28046
986.66        76.80714
987.04        77.64458
987.43        78.74331
987.81        79.86271
988.20        80.42892
988.58        80.34854
988.96        79.78602
989.35        78.87309
989.73        77.94007
990.12        77.07588
990.50        76.15044
990.88        75.50968
991.27        75.85979
991.65        77.26941
992.03        79.42896
992.42        81.35426
992.80        82.10454
993.18        81.45386
993.56        79.54031
993.95        76.92123
994.33        75.18221
994.71        75.16265
995.10        76.22625
995.48        77.57166
995.86          78.241
996.24        78.08951
996.63        77.36582
997.01        76.36227
997.39        75.58607
997.77        75.33238
998.15        75.43719
998.54        75.64363
998.92        75.63248
999.30        75.32735
999.68        74.87671
1000.06        74.55397
1000.45        74.75085
1000.83        75.60699
1001.21        76.85381
1001.59        78.16293
1001.97        79.10587
1002.35         79.5861
1002.73        79.75005
1003.12        79.59335
1003.50        79.06032
1003.88        78.28732
1004.26        77.28962
1004.64        76.44451
1005.02        76.20594
1005.40        76.58348
1005.78         77.5149
1006.16         78.4539
1006.54         78.4001
1006.92        77.12132
1007.30        74.89671
1007.69        72.60023
1008.07         71.5922
1008.45        72.27905
1008.83        74.21862
1009.21        76.47516
1009.59        77.70303
1009.97        77.54573
1010.35        76.24557
1010.73         74.4155
1011.11         73.6162
1011.49        74.51883
1011.86        76.63305
1012.24        78.83504
1012.62        79.87232
1013.00        79.56558
1013.38        78.50751
1013.76        77.20784
1014.14        76.47723
1014.52        76.62309
1014.90         77.2558
1015.28         78.5801
1015.66        80.90296
1016.04         83.9679
1016.41        87.67314
1016.79        90.53232
1017.17        90.79248
1017.55        88.30634
1017.93        83.65115
1018.31        78.54886
1018.69        75.74169
1019.06        76.02165
1019.44        78.86051
1019.82        82.87523
1020.20        84.98392
1020.58        84.05153
1020.95        81.05721
1021.33        77.61509
1021.71        75.69062
1022.09        75.58651
1022.46         76.5508
1022.84        77.68724
1023.22        77.33601
1023.60        74.89079
1023.97        70.56787
1024.35        65.42963
1024.73        61.66582
