SpectraSmart Spectrum 2.9.0.0
--------- Device Information -----------
Spectrum Name :  反射率_0
Saving Time :  2024/04/28 00:05:17
Spectro-Module Model Name : SE2030-DUVN
Spectro-Module Serial Number : OS361AC55029948
Wavelength Start : 200
Wavelength End : 1025
Wavelength Unit : Wavelength(nm)
Spectrum Unit : Reflectance(%)
-----------Spectrum Setting ------------
Integration Time : 20ms
Average : 10
Boxcar : 0
Background removal :  enabled
linearity correction :  enabled
SC :  disabled
Intensity correction :  disabled
DWT denoise :  enabled
savitzky-golay :  disabled
FFT :  disabled
Running average :  disabled
Kalman :  disabled
High pass :  disabled
---------------BEGIN--------------------
Wavelength(nm)             Reflectance(%)
200.29               0
200.75        39.14615
201.21        53.04362
201.67        62.75608
202.13         67.3643
202.58        69.01559
203.04        69.33098
203.50        69.40154
203.96        70.59714
204.42        72.89894
204.88        75.56849
205.34        78.34499
205.80        81.50211
206.26        85.40815
206.72         90.7035
207.18        97.18324
207.64        99.37751
208.10        94.30844
208.55        87.35269
209.01        80.84203
209.47        73.71876
209.93        62.61344
210.39        37.63877
210.85       -36.10057
211.31       -131.8312
211.77       -31.21521
212.23        39.05381
212.69        64.89323
213.14        73.92413
213.60         75.5252
214.06        73.14479
214.52        64.95876
214.98        52.93451
215.44        46.15184
215.90        43.91707
216.36        44.75231
216.81        47.69885
217.27        51.80302
217.73        57.70334
218.19        63.38552
218.65        64.79408
219.11        60.88948
219.57        52.35082
220.02        41.95674
220.48        38.28721
220.94        43.56388
221.40         53.5724
221.86        63.98192
222.32        70.80289
222.77        73.79566
223.23        74.72639
223.69        74.03862
224.15         71.8812
224.61        68.55061
225.06        63.71445
225.52        59.04502
225.98        57.61176
226.44        59.50026
226.90        62.82045
227.36        65.57609
227.81        66.10177
228.27        64.57507
228.73        61.57052
229.19        57.63425
229.65         54.1417
230.10        51.79951
230.56        50.48138
231.02        49.97461
231.48        50.05451
231.93        50.40984
232.39        51.16151
232.85        51.97564
233.31         52.3906
233.77        52.37723
234.22        52.19538
234.68        51.81389
235.14        51.31715
235.60        50.76829
236.05        49.99033
236.51        49.64452
236.97        50.96458
237.43        54.17024
237.88        58.95992
238.34        63.51629
238.80         66.2583
239.26        66.92064
239.71         65.2969
240.17        61.62962
240.63        60.37102
241.08        64.75966
241.54        71.24733
242.00        76.16354
242.46        78.27122
242.91        78.23243
243.37        75.80375
243.83        70.03561
244.28        64.14459
244.74        67.43551
245.20        77.41109
245.66        84.44783
246.11        85.81429
246.57        82.68811
247.03         74.8394
247.48        62.00602
247.94        52.30461
248.40        55.15961
248.85        66.09698
249.31        78.48278
249.77        86.82027
250.22        90.84654
250.68         92.6072
251.14        93.39721
251.59        94.44028
252.05        96.25798
252.51        98.57761
252.96        100.4997
253.42         99.9147
253.88        96.10451
254.33        91.29616
254.79        87.74385
255.25        85.32161
255.70        83.39503
256.16        82.19693
256.62        81.63626
257.07         81.7653
257.53        82.65196
257.99        83.50133
258.44        83.52148
258.90        82.57539
259.35        80.46703
259.81        78.08907
260.27        75.68662
260.72        73.64631
261.18        72.40183
261.63         71.3893
262.09        70.66644
262.55        69.79562
263.00        68.64113
263.46        67.51559
263.91        66.37116
264.37         65.5818
264.83        65.06343
265.28        64.62817
265.74        64.24634
266.19        63.60426
266.65         62.7596
267.11        61.75301
267.56        60.60586
268.02        59.47814
268.47        58.36856
268.93        57.24598
269.38        56.17296
269.84        55.28987
270.30        54.58594
270.75        54.03099
271.21        53.40687
271.66        52.30791
272.12        50.72175
272.57        48.75447
273.03         46.8048
273.48        45.39175
273.94        44.68267
274.39        44.44447
274.85          44.401
275.31        44.05136
275.76         43.2691
276.22        42.25832
276.67        41.17958
277.13        40.38704
277.58        39.87025
278.04        39.55058
278.49        39.19775
278.95        38.63029
279.40        37.76306
279.86        36.77355
280.31        35.76583
280.77        35.02108
281.22        34.54062
281.68        34.28355
282.13         34.1086
282.59        33.89286
283.04         33.5717
283.50        33.21129
283.95        32.84288
284.41        32.56543
284.86        32.37739
285.32         32.2683
285.77        32.16991
286.22        32.03765
286.68        31.87961
287.13        31.68129
287.59        31.51602
288.04        31.40709
288.50        31.39301
288.95        31.42311
289.41        31.48477
289.86        31.50262
290.32        31.49235
290.77        31.47457
291.22        31.49018
291.68        31.58939
292.13        31.78256
292.59        32.08022
293.04        32.49531
293.50        33.07351
293.95        33.80823
294.40        34.70656
294.86        35.72273
295.31        36.77249
295.77        37.84541
296.22        38.93509
296.68        40.10803
297.13        41.44141
297.58         42.9328
298.04        44.53707
298.49        46.13699
298.95        47.60975
299.40        48.93692
299.85        50.18169
300.31        51.47522
300.76        52.96275
301.21        54.67369
301.67        56.55692
302.12        58.46259
302.58        60.25804
303.03        61.88162
303.48        63.41402
303.94        64.97972
304.39        66.67529
304.84        68.55621
305.30        70.59135
305.75        72.66956
306.20        74.71613
306.66        76.72446
307.11         78.6713
307.57        80.62046
308.02        82.54361
308.47         84.4507
308.93        86.32985
309.38        88.11674
309.83        89.82809
310.29        91.49263
310.74        93.09534
311.19        94.65652
311.65        96.17463
312.10        97.60734
312.55        98.94758
313.00        100.2164
313.46        101.4638
313.91        102.6803
314.36        103.8688
314.82        104.9617
315.27        105.8425
315.72        106.4981
316.18        106.9907
316.63         107.414
317.08        107.9566
317.53        108.6674
317.99        109.4875
318.44        110.3495
318.89        111.1103
319.35        111.7237
319.80        112.2445
320.25        112.6974
320.70        113.1324
321.16        113.5568
321.61        113.9598
322.06        114.3556
322.51        114.7868
322.97        115.2355
323.42         115.736
323.87        116.2023
324.32        116.5101
324.78        116.6234
325.23        116.6268
325.68        116.6087
326.13        116.7485
326.59         117.068
327.04        117.5683
327.49        118.1488
327.94        118.6789
328.39        119.1137
328.85        119.4539
329.30        119.7959
329.75        120.1266
330.20        120.4566
330.66        120.7327
331.11        121.0446
331.56        121.4168
332.01        121.8674
332.46         122.396
332.92        122.9034
333.37        123.3817
333.82        123.7528
334.27        124.0374
334.72        124.3114
335.17        124.7045
335.63         125.222
336.08        125.8921
336.53        126.5956
336.98        127.1837
337.43        127.6162
337.88        127.9304
338.34        128.2096
338.79        128.6555
339.24        129.2859
339.69        130.0434
340.14        130.8044
340.59        131.3699
341.05        131.7007
341.50        131.8837
341.95        132.0273
342.40        132.3172
342.85        132.8045
343.30        133.4141
343.75        134.0958
344.20        134.7705
344.66        135.3943
345.11        135.9805
345.56        136.4629
346.01        136.7337
346.46        136.7884
346.91        136.6617
347.36        136.4859
347.81        136.4707
348.26        136.6617
348.72        137.0061
349.17        137.3838
349.62         137.619
350.07        137.6593
350.52        137.5621
350.97        137.3956
351.42         137.267
351.87         137.209
352.32        137.1809
352.77        137.1436
353.22        137.0453
353.67        136.8624
354.13        136.6147
354.58        136.2899
355.03        135.9348
355.48          135.55
355.93        135.1189
356.38        134.5959
356.83        133.9097
357.28        133.0651
357.73        132.1177
358.18        131.1451
358.63        130.2549
359.08         129.489
359.53        128.8291
359.98        128.2587
360.43         127.749
360.88        127.2667
361.33        126.7858
361.78        126.2882
362.23          125.74
362.68        125.1157
363.13        124.4375
363.58        123.6476
364.03        122.5566
364.48        121.3546
364.93         119.974
365.38        118.6101
365.83        117.4818
366.28        116.6388
366.73        116.0028
367.18        115.4893
367.63        114.9535
368.08        114.3389
368.53        113.6987
368.98         112.984
369.43        112.1198
369.88         111.113
370.33        109.9684
370.78        108.8555
371.23        108.0614
371.68        107.6342
372.13        107.4925
372.58        107.3995
373.03        106.9586
373.48        106.0813
373.93        104.9015
374.38        103.6422
374.83         102.653
375.28        102.0285
375.72         101.635
376.17         101.379
376.62        101.0432
377.07        100.5564
377.52        99.97418
377.97        99.34621
378.42        98.74451
378.87        98.19263
379.32        97.66868
379.77        97.12466
380.22        96.49037
380.67        95.76319
381.11        94.98563
381.56          94.251
382.01        93.71929
382.46        93.43029
382.91        93.33195
383.36        93.31433
383.81        93.20366
384.26        92.94484
384.71         92.5759
385.15         92.1372
385.60        91.76266
386.05        91.45799
386.50        91.17956
386.95        90.88423
387.40        90.51697
387.85         90.0769
388.29        89.55373
388.74         89.0795
389.19        88.62018
389.64        88.17279
390.09        87.71445
390.54        87.27268
390.98        86.87566
391.43        86.58677
391.88        86.38977
392.33        86.18519
392.78        85.91065
393.23        85.58244
393.67        85.01721
394.12        84.39715
394.57        84.60644
395.02        84.34512
395.47         84.3482
395.91        84.18479
396.36        84.00743
396.81        83.80561
397.26        83.49069
397.71        83.15636
398.15        82.93569
398.60        82.92632
399.05        82.96925
399.50        82.98912
399.95        82.96606
400.39        82.84082
400.84        82.41837
401.29        81.80238
401.74        81.27706
402.18        80.94759
402.63        80.79406
403.08        80.76063
403.53        80.64957
403.97        80.43405
404.42        80.26012
404.87        80.13034
405.32        80.05011
405.76        80.00198
406.21         79.8644
406.66        79.68893
407.11        79.74661
407.55        79.93775
408.00          79.878
408.45        79.52164
408.90        78.72272
409.34         77.7788
409.79         77.6618
410.24        78.23483
410.68        78.41532
411.13        78.13216
411.58        78.04575
412.03        78.19878
412.47        78.33885
412.92        78.42332
413.37        78.52746
413.81        78.59315
414.26        78.60179
414.71        78.53244
415.15        78.40849
415.60        78.24232
416.05        78.13676
416.49         78.1236
416.94        78.16066
417.39        78.22021
417.83        78.25376
418.28        78.23377
418.73        78.15877
419.17        78.04276
419.62        77.91261
420.07        77.79913
420.51        77.71004
420.96        77.63272
421.41        77.56291
421.85        77.48528
422.30        77.24295
422.74        76.96167
423.19        77.40886
423.64        78.35688
424.08        78.64433
424.53        78.19958
424.98        77.89829
425.42        78.21693
425.87        78.08634
426.31        77.70233
426.76        77.58417
427.21        77.70362
427.65         77.7436
428.10        77.69379
428.54        77.65356
428.99        77.68117
429.44        78.00577
429.88         78.4489
430.33        78.23331
430.77        77.51982
431.22        77.52343
431.66        78.15063
432.11        78.33887
432.56        78.11993
433.00        78.22934
433.45        78.44491
433.89        78.52702
434.34        78.60363
434.78        77.48416
435.23        77.54093
435.67        78.26539
436.12        78.60746
436.57         78.6953
437.01        78.17223
437.46        78.46201
437.90        78.27145
438.35          79.503
438.79        78.90923
439.24        79.30942
439.68        78.92444
440.13         78.5849
440.57        78.18176
441.02        78.45927
441.46        79.21407
441.91        79.26849
442.35        78.69289
442.80        78.82356
443.24        79.53326
443.69        79.71264
444.13        79.33498
444.58        79.34142
445.02         79.4187
445.47        79.49007
445.91        79.43691
446.36        79.42027
446.80        79.43104
447.24        79.37299
447.69        79.31773
448.13        79.53374
448.58        79.93825
449.02        80.00544
449.47        79.78481
449.91         79.7912
450.36         80.0212
450.80        80.00732
451.25        79.80231
451.69        79.75073
452.13        79.85908
452.58        79.91512
453.02        79.89098
453.47        79.83961
453.91        79.73991
454.36        79.67253
454.80        79.62633
455.24        79.28765
455.69        78.73103
456.13        78.52699
456.58        78.87983
457.02        78.04523
457.46        78.92872
457.91        78.90458
458.35        78.35872
458.79          78.106
459.24        78.02036
459.68        77.83173
460.13        77.59081
460.57        77.21746
461.01        77.08057
461.46        77.19636
461.90        76.96495
462.34        77.05888
462.79        77.08989
463.23        77.03037
463.68        76.86461
464.12        76.64724
464.56        76.46737
465.01        76.68686
465.45        77.03424
465.89        76.91821
466.34        76.44891
466.78        76.24245
467.22        75.62804
467.67        76.53791
468.11        76.25331
468.55        76.26011
468.99         75.8806
469.44        75.73651
469.88        75.84026
470.32        75.83537
470.77        75.71725
471.21        75.61752
471.65        75.54053
472.10        75.46935
472.54         75.3666
472.98        75.26844
473.42        75.19099
473.87        74.99952
474.31        74.74119
474.75        74.94769
475.20        75.43934
475.64        75.32315
476.08        74.69412
476.52        74.45227
476.97        74.62866
477.41        74.66238
477.85         74.7262
478.29        74.45601
478.74         74.7572
479.18        74.03751
479.62        74.65865
480.06        74.61492
480.50        74.53336
480.95        74.53441
481.39        74.56953
481.83        74.47894
482.27        74.54705
482.72        74.16421
483.16        74.38045
483.60        74.18077
484.04        74.26743
484.48        74.25126
484.93        74.50629
485.37        74.60732
485.81         74.5903
486.25        75.56078
486.69        75.96295
487.14        74.40093
487.58        73.93111
488.02         74.2991
488.46        74.39638
488.90        74.90615
489.34        73.97707
489.79        73.58022
490.23        73.94918
490.67        73.89924
491.11        73.63227
491.55         73.5162
491.99         73.5733
492.43        73.59453
492.88        73.56689
493.32        73.60419
493.76         73.6588
494.20        73.69942
494.64         73.7335
495.08        73.63535
495.52         73.4865
495.96        73.70818
496.41         74.1699
496.85        74.15108
497.29        73.68683
497.73        73.52205
498.17        73.57976
498.61        73.67622
499.05        73.69155
499.49        73.58232
499.93        73.41212
500.37        73.26353
500.82        73.15635
501.26        73.35841
501.70        73.87325
502.14        73.28473
502.58        73.56274
503.02        73.54015
503.46        73.49412
503.90        73.44939
504.34        73.33579
504.78        73.29659
505.22        73.29294
505.66        73.21318
506.10        73.10905
506.54        73.08673
506.98        73.13513
507.42        73.39979
507.86        73.59429
508.30        73.47079
508.74        73.61612
509.18        73.50954
509.62        73.38036
510.06        73.26247
510.50        73.18475
510.94        73.12419
511.38        73.09011
511.82        73.11419
512.26        73.18961
512.70        73.30967
513.14        73.43581
513.58        73.47368
514.02        73.40417
514.46        73.30689
514.90        73.23036
515.34        72.99715
515.78        73.04967
516.22        73.02678
516.66        73.05604
517.10         73.1291
517.54         73.2356
517.98        73.36777
518.42         73.4739
518.86        73.48064
519.30        73.37644
519.74        73.18822
520.18        72.97479
520.62        72.83006
521.06        72.78223
521.50        72.80812
521.93        72.88406
522.37        72.95278
522.81        72.99936
523.25        73.03563
523.69        73.06367
524.13        73.08584
524.57        73.10254
525.01        73.10709
525.45        73.09584
525.89        73.06773
526.32        73.01891
526.76        72.96705
527.20        72.91788
527.64        72.88779
528.08        72.87944
528.52        72.88583
528.96        72.89948
529.40        72.90748
529.83        72.89841
530.27        72.89104
530.71        72.87157
531.15         72.8292
531.59         72.7656
532.03        72.68375
532.46        72.60115
532.90        72.56976
533.34        72.59035
533.78        72.64835
534.22        72.71098
534.66        72.72744
535.09        72.67832
535.53        72.60195
535.97        72.51173
536.41         72.4461
536.85        72.41789
537.28        72.41838
537.72           72.44
538.16        72.46098
538.60        72.47564
539.04          72.503
539.47        72.52267
539.91        72.54388
540.35        72.54854
540.79        72.55104
541.22        72.53691
541.66        72.49499
542.10        72.42397
542.54        72.32822
542.97        72.23384
543.41         72.2215
543.85        72.28725
544.29        72.41622
544.72        72.53736
545.16        72.57627
545.60        72.50132
546.04        72.33306
546.47        72.14535
546.91        72.06764
547.35        72.11673
547.79        72.26344
548.22        72.40744
548.66        72.40808
549.10        72.26102
549.53        72.15557
549.97         72.1383
550.41        72.13674
550.84          72.163
551.28        72.28407
551.72        72.43922
552.15        72.48207
552.59        72.40823
553.03        72.24945
553.46        72.06066
553.90        71.97579
554.34        72.00393
554.77        72.12736
555.21        72.27143
555.65        72.32674
556.08        72.19872
556.52        72.08495
556.96        72.00227
557.39        72.07758
557.83        72.26939
558.27        72.24583
558.70        72.02097
559.14        71.93143
559.57        71.98186
560.01        71.96345
560.45        71.87029
560.88        71.92019
561.32        72.11113
561.75          72.039
562.19        71.80409
562.63        71.92132
563.06        72.29391
563.50        72.27209
563.93        71.89774
564.37        71.80311
564.80        71.98204
565.24          72.135
565.68        72.20597
566.11        72.25928
566.55        72.30866
566.98        72.27415
567.42        72.19658
567.85        72.20424
568.29        72.32806
568.72        72.20857
569.16         71.8988
569.60        72.04358
570.03        72.37328
570.47         72.1231
570.90        72.04318
571.34        72.77721
571.77        72.75336
572.21        72.38802
572.64        72.58173
573.08        72.78179
573.51        71.94173
573.95        72.11319
574.38        72.71709
574.82        72.60237
575.25        72.80544
575.69        72.45521
576.12        71.98079
576.56        72.54882
576.99        72.18472
577.42        72.38329
577.86        72.44505
578.29        72.85884
578.73        72.83664
579.16        72.84143
579.60        72.63503
580.03        72.43443
580.47        72.18081
580.90        72.77045
581.33        72.55611
581.77        72.93943
582.20         72.9787
582.64        73.09511
583.07        72.80106
583.51        72.51807
583.94        72.43698
584.37        72.40682
584.81         72.5036
585.24        72.64584
585.68        72.82214
586.11        72.82059
586.54        72.72336
586.98         72.5099
587.41        72.94396
587.85        72.62618
588.28        72.81413
588.71        72.22253
589.15        72.83655
589.58        72.22497
590.01        72.32897
590.45         72.5715
590.88        71.82909
591.31        71.86676
591.75        72.08991
592.18        72.07176
592.61           72.11
593.05        71.82304
593.48        72.89251
593.91        72.77882
594.35        72.32277
594.78        72.42294
595.21        72.12811
595.65         72.2159
596.08         72.2675
596.51        72.40097
596.94        72.01617
597.38        72.00282
597.81        72.32536
598.24        71.92096
598.68        72.09811
599.11        72.11349
599.54        72.42236
599.97         72.0912
600.41        72.44157
600.84         72.4273
601.27        72.43343
601.70        72.12175
602.14        71.82866
602.57        72.09483
603.00        72.18113
603.43        72.07114
603.87        72.02271
604.30        71.82299
604.73          72.148
605.16        72.33531
605.60         72.1497
606.03        72.17937
606.46        72.26238
606.89        72.41934
607.32        72.31932
607.76        72.40208
608.19        72.24785
608.62        72.07496
609.05        71.88804
609.48        71.92836
609.92        72.11636
610.35        72.22422
610.78        72.22852
611.21         71.7002
611.64        72.29815
612.07        72.21729
612.50        71.98174
612.94         71.9258
613.37        72.12119
613.80         72.0295
614.23        72.31866
614.66        72.17416
615.09        71.84074
615.52         71.8046
615.96        72.09627
616.39         71.6512
616.82        71.74123
617.25        71.66095
617.68        71.50999
618.11        71.60136
618.54          71.804
618.97        71.87466
619.40         71.7816
619.84        71.72606
620.27        71.94133
620.70        71.96045
621.13        71.74632
621.56        72.12599
621.99        71.68565
622.42        71.67051
622.85         71.7657
623.28        72.09821
623.71        72.20577
624.14        71.24283
624.57        71.53291
625.00        71.78852
625.43        71.33372
625.86        71.45644
626.29         71.7042
626.72        71.72708
627.15        71.72066
627.58         71.6486
628.01        71.65389
628.44        71.58813
628.87        71.37267
629.30        71.92248
629.73        71.61416
630.16        71.69518
630.59        71.62996
631.02        71.61698
631.45        71.63978
631.88        71.59837
632.31        71.49646
632.74        71.59557
633.17        71.50275
633.60        71.52364
634.03        71.53498
634.46        71.55589
634.89        71.57035
635.32        71.53722
635.75        71.46028
636.18        71.40405
636.61        71.37588
637.04        71.28262
637.47        71.16921
637.89        71.24516
638.32        71.44605
638.75        71.53247
639.18        71.48081
639.61        71.41743
640.04        71.36952
640.47        71.34624
640.90        71.36137
641.33        71.37791
641.76        71.36822
642.18        71.46681
642.61        71.38094
643.04         71.3438
643.47         71.2868
643.90        71.23756
644.33         71.2002
644.76         71.1684
645.18        71.14467
645.61        71.11816
646.04        71.09335
646.47         71.0732
646.90         71.0545
647.33        71.05917
647.75         71.0978
648.18        71.08575
648.61         71.0351
649.04        71.18567
649.47         71.4445
649.89        71.28301
650.32        70.81456
650.75        70.77818
651.18        71.15395
651.61        71.27945
652.03        71.07277
652.46        71.01156
652.89        71.22868
653.32        71.02837
653.74        70.74063
654.17        71.73407
654.60         71.2589
655.03         70.8024
655.46        71.33195
655.88        71.82574
656.31        73.30227
656.74        75.18246
657.16        73.59016
657.59        72.17632
658.02        71.10122
658.45        71.77914
658.87         71.8456
659.30        71.96814
659.73          71.329
660.15        71.24032
660.58         71.2744
661.01        71.46676
661.44        71.58511
661.86        71.56271
662.29        71.38847
662.72        71.11147
663.14        70.87299
663.57        70.98598
664.00        71.36842
664.42        71.49629
664.85        71.33771
665.27        71.19883
665.70        71.12502
666.13        71.05876
666.55        71.01992
666.98         71.0068
667.41        71.02687
667.83        71.09263
668.26        71.19071
668.69        71.32925
669.11        71.45642
669.54        71.50169
669.96        71.46206
670.39        71.28382
670.82        71.07204
671.24        71.13277
671.67        71.41956
672.09        71.56758
672.52        71.55435
672.94        71.50791
673.37        71.46861
673.80        71.47009
674.22        71.51247
674.65        71.46737
675.07        71.35504
675.50        71.24815
675.92        71.19143
676.35        71.18993
676.77        71.25531
677.20        71.39286
677.62        71.54431
678.05        71.59078
678.47        71.51141
678.90        71.34821
679.32         71.1832
679.75        71.16157
680.17        71.30673
680.60        71.57835
681.02        71.86008
681.45        71.95645
681.87        71.83931
682.30         71.5242
682.72        71.16173
683.15        71.07173
683.57        71.27757
684.00        71.46355
684.42        71.56877
684.85        71.70916
685.27        71.84219
685.70        71.88158
686.12        71.84865
686.54        71.83471
686.97        71.84758
687.39        71.92778
687.82        72.03761
688.24        71.91214
688.66         71.8867
689.09        71.72994
689.51        71.60002
689.94        71.52684
690.36        71.53891
690.78        71.57813
691.21        71.61936
691.63        71.71274
692.06        71.80093
692.48        71.68488
692.90        71.42947
693.33        71.30669
693.75        71.34952
694.17        71.42549
694.60        71.47879
695.02        71.52707
695.44        71.54893
695.87        71.48959
696.29        71.41196
696.71        71.54765
697.14        71.82926
697.56         71.9321
697.98         71.8389
698.41        71.85194
698.83        71.95213
699.25        71.97858
699.68        71.93143
700.10        71.95664
700.52        72.05163
700.94        72.18143
701.37        72.27998
701.79         72.2785
702.21        72.14675
702.64        71.93512
703.06        71.71347
703.48        71.60906
703.90        71.65514
704.33        71.80268
704.75        72.00002
705.17        72.13774
705.59        72.18047
706.01        72.13554
706.44        72.03524
706.86        72.06034
707.28        72.02815
707.70        72.08762
708.12        72.16572
708.55        72.18999
708.97        72.16308
709.39        72.20109
709.81        72.29353
710.23        72.33197
710.66        72.30838
711.08        72.30116
711.50        72.30093
711.92        72.29216
712.34        72.28034
712.76        72.26672
713.19        72.26163
713.61        72.33147
714.03        72.45822
714.45        72.62313
714.87        72.78076
715.29        72.86115
715.71        72.85027
716.13        72.77121
716.56        72.64492
716.98        72.58927
717.40        72.60985
717.82        72.68637
718.24        72.80185
718.66        72.92868
719.08        73.04749
719.50        73.15464
719.92        73.24341
720.34        73.30266
720.76        73.32674
721.19        73.31007
721.61         73.2496
722.03        73.11118
722.45        72.90423
722.87         72.6517
723.29        72.42431
723.71        72.33002
724.13        72.39695
724.55        72.59968
724.97        72.87101
725.39        73.09557
725.81        73.23193
726.23        73.29698
726.65        73.33146
727.07        73.40765
727.49        73.53984
727.91        73.69965
728.33        73.83092
728.75        73.84632
729.17        73.73215
729.59        73.52744
730.01        73.30668
730.43        73.18655
730.85        73.19398
731.27        73.28589
731.69        73.41792
732.10        73.52279
732.52        73.56558
732.94        73.61073
733.36        73.65035
733.78        73.60061
734.20        73.45683
734.62        73.56886
735.04         73.1351
735.46        73.39346
735.88        73.92295
736.30        73.82237
736.72        73.18354
737.13        73.00283
737.55        73.30268
737.97        73.52194
738.39        73.57393
738.81        73.52293
739.23        73.39817
739.65        73.41521
740.06        73.52866
740.48        73.53486
740.90        73.39928
741.32        73.34861
741.74        73.30643
742.16        73.35348
742.57        73.46826
742.99        73.63327
743.41        73.81591
743.83        73.94523
744.25        74.00174
744.67        73.99857
745.08        73.96538
745.50        73.91079
745.92        73.86741
746.34        73.83498
746.75         73.8144
747.17        73.81763
747.59        73.84241
748.01        73.83028
748.42        73.80865
748.84        73.89406
749.26        74.01729
749.68        74.02369
750.09        73.89671
750.51        73.57729
750.93        73.22707
751.35        73.37533
751.76        73.90797
752.18        74.09918
752.60        73.89556
753.01        73.71894
753.43        73.63391
753.85        73.59648
754.27        73.63574
754.68        73.76646
755.10        73.93277
755.52        74.04357
755.93        74.08052
756.35        74.06667
756.77         74.0379
757.18         74.1105
757.60        74.30469
758.02        74.45878
758.43        74.51342
758.85        74.84107
759.26        74.56395
759.68        74.59074
760.10        74.78809
760.51        73.78625
760.93        74.09122
761.34        73.93003
761.76        74.49055
762.18        74.76426
762.59         74.8455
763.01        74.65255
763.42        74.34998
763.84         74.2424
764.26        74.41517
764.67        74.75798
765.09        75.14064
765.50        75.19173
765.92        74.94786
766.33        74.73084
766.75        74.55998
767.16        74.38049
767.58         74.1977
768.00        74.22924
768.41        74.45544
768.83        74.56205
769.24        74.54131
769.66        74.64696
770.07        74.81637
770.49         74.8534
770.90        74.76808
771.32        74.68586
771.73        74.66917
772.15         74.6759
772.56        74.72768
772.97        74.92582
773.39        75.17513
773.80        75.19432
774.22         75.0078
774.63        75.08994
775.05        75.38629
775.46        75.51656
775.88        75.42658
776.29        75.38528
776.70        75.40734
777.12        75.41337
777.53        75.43048
777.95        75.46387
778.36        75.51302
778.77        75.55248
779.19        75.58012
779.60        75.60993
780.02        75.64121
780.43        75.71655
780.84        75.81946
781.26        75.88986
781.67        75.99136
782.09        76.15622
782.50        76.17929
782.91        76.62621
783.33        75.61291
783.74        75.47791
784.15        75.68069
784.57        75.92681
784.98        76.11589
785.39        76.16563
785.81        76.10503
786.22        76.16448
786.63        76.34429
787.04        76.45122
787.46        76.49836
787.87        76.59674
788.28        76.70957
788.70         76.7367
789.11        76.65508
789.52        76.43491
789.93        76.18064
790.35        76.21478
790.76        76.51276
791.17        76.61449
791.58        76.48431
792.00        76.43449
792.41        76.48425
792.82        76.39155
793.23         76.2478
793.65        76.31632
794.06        76.61897
794.47         77.0649
794.88        77.49965
795.29        77.49707
795.71        77.50078
796.12        77.11182
796.53        76.61306
796.94        76.47856
797.35        76.71343
797.76        76.77092
798.18        76.64672
798.59        76.73621
799.00        77.03278
799.41        77.29079
799.82        77.43456
800.23        77.47619
800.64        77.40028
801.06          77.174
801.47        76.92383
801.88        76.78947
802.29        76.81196
802.70          76.952
803.11        77.14365
803.52        77.26539
803.93        77.28387
804.34        77.24191
804.75         77.1619
805.17        77.10373
805.58        77.12743
805.99        77.07737
806.40        76.98666
806.81        77.19211
807.22        77.54668
807.63         77.4231
808.04        76.92148
808.45        76.76165
808.86         77.0061
809.27        77.25011
809.68        77.39146
810.09        77.43827
810.50        77.36069
810.91        77.16611
811.32         76.9457
811.73        76.86492
812.14        76.97018
812.55        77.17184
812.96        77.41389
813.37        77.70761
813.78        77.95473
814.19        77.92222
814.60        77.68411
815.01        77.58205
815.42        77.65269
815.83          77.715
816.24        77.74037
816.65        77.76185
817.05         77.7744
817.46        77.74783
817.87        77.71135
818.28        77.64661
818.69        77.55626
819.10         77.4445
819.51        77.35586
819.92        77.36793
820.33         77.4951
820.74        77.70934
821.14        77.93349
821.55        78.08421
821.96         78.1199
822.37        78.06736
822.78        77.97437
823.19        77.92926
823.60        77.96452
824.00         78.0759
824.41        78.18604
824.82         78.2653
825.23        78.29513
825.64        78.28867
826.04        78.29047
826.45        78.32771
826.86        78.41636
827.27        78.54084
827.68         78.6463
828.08        78.67635
828.49        78.55011
828.90        78.33554
829.31        78.10847
829.72        77.99558
830.12        78.05553
830.53        78.20247
830.94         78.3945
831.35        78.52309
831.75        78.57091
832.16        78.51235
832.57        78.39639
832.97        78.27115
833.38        78.15643
833.79        78.06066
834.20        77.97691
834.60        77.88757
835.01        77.80912
835.42        77.74193
835.82        77.76182
836.23        77.90687
836.64        78.20329
837.04        78.64053
837.45        79.06008
837.86        79.31175
838.26        79.36455
838.67        79.23936
839.08         79.0475
839.48        78.96342
839.89        79.03362
840.29        79.20225
840.70        79.40273
841.11        79.53201
841.51        79.57444
841.92        79.53009
842.33        79.42976
842.73        79.31361
843.14        79.15356
843.54        78.97404
843.95        78.79279
844.35        78.66309
844.76        78.58919
845.17        78.57151
845.57        78.60443
845.98        78.62743
846.38        78.65177
846.79        78.66434
847.19        78.68877
847.60        78.70994
848.00        78.74827
848.41        78.75809
848.81         78.7795
849.22        78.80154
849.62        78.86145
850.03        78.94596
850.43        79.03532
850.84        79.00739
851.24        78.90319
851.65         78.6887
852.05        78.55429
852.46        78.70881
852.86        79.16576
853.27        79.82421
853.67        80.39436
854.07        80.69376
854.48        80.64149
854.88        80.35133
855.29        79.82043
855.69        79.29425
856.10        78.78521
856.50         78.3434
856.90        77.98283
857.31         77.7468
857.71        77.68627
858.12        77.75658
858.52        77.93121
858.92        78.01865
859.33        77.94458
859.73        77.76543
860.13        77.52107
860.54        77.32967
860.94         77.2676
861.34        77.26962
861.75        77.23128
862.15        77.05034
862.55        76.68876
862.96        76.21957
863.36        75.75536
863.76        75.46082
864.17        75.37555
864.57        75.45021
864.97        75.63523
865.38         75.8309
865.78        76.03808
866.18        76.26125
866.58        76.41135
866.99        76.35175
867.39        76.10116
867.79        75.66483
868.19        75.21961
868.60        74.99524
869.00        75.03285
869.40        75.31937
869.80        75.70901
870.21        75.91971
870.61        75.94555
871.01        75.80833
871.41        75.66408
871.81        75.74752
872.22        76.06767
872.62        76.55614
873.02        77.08392
873.42         77.3996
873.82        77.41751
874.22        77.25558
874.63        76.98799
875.03        76.67606
875.43        76.38112
875.83        76.07024
876.23        75.87795
876.63        76.03178
877.03        76.54772
877.44        77.34373
877.84        78.15072
878.24        78.47241
878.64        78.20093
879.04        77.50307
879.44        76.67355
879.84        76.13537
880.24         75.9855
880.64        76.09791
881.04        76.33664
881.44        76.46762
881.84        76.40609
882.24        76.23001
882.65        75.97861
883.05        75.81081
883.45        75.73526
883.85         75.7226
884.25        75.73077
884.65        75.70819
885.05         75.6449
885.45        75.55157
885.85        75.51099
886.25        75.65517
886.65        75.99672
887.05        76.48647
887.45        76.94924
887.85        77.12674
888.25        76.96737
888.65        76.53262
889.04        76.02082
889.44        75.80841
889.84          75.965
890.24        76.38373
890.64        76.82955
891.04        76.92747
891.44        76.60265
891.84        75.99779
892.24        75.33414
892.64        74.95267
893.04        74.94302
893.44        75.18926
893.83        75.58049
894.23        75.87061
894.63        76.00954
895.03         76.0738
895.43        76.08768
895.83        76.08681
896.23         76.0917
896.63        76.06511
897.02        76.05203
897.42        76.17437
897.82        76.43314
898.22        76.82865
898.62        77.23409
899.01        77.44192
899.41        77.38258
899.81        77.10403
900.21        76.81478
900.61        76.86478
901.00         77.3067
901.40        78.04436
901.80        78.75984
902.20        78.96745
902.59        78.57851
902.99        77.73396
903.39        76.77822
903.79        76.26365
904.18        76.32736
904.58        76.80351
904.98        77.40076
905.38        77.69547
905.77        77.57708
906.17        77.18736
906.57        76.71187
906.96        76.48185
907.36        76.56827
907.76        76.88026
908.15        77.25661
908.55        77.36528
908.95        77.15749
909.34        76.71865
909.74         76.2773
910.14        76.11829
910.53        76.31736
910.93        76.76884
911.33        77.28603
911.72        77.55482
912.12        77.48115
912.52        77.19025
912.91        76.84998
913.31        76.73547
913.70        76.89553
914.10         77.2262
914.49        77.63528
914.89        77.88806
915.29        77.92196
915.68        77.79829
916.08        77.58048
916.47        77.36313
916.87        77.20065
917.26        77.04582
917.66        76.90316
918.05        76.74529
918.45        76.56116
918.84        76.40058
919.24        76.25656
919.64        76.18967
920.03        76.23555
920.42        76.38226
920.82        76.59425
921.21        76.80936
921.61        76.98988
922.00        77.13179
922.40         77.3056
922.79        77.72008
923.19        78.33215
923.58        79.08921
923.98        79.67983
924.37        79.69756
924.77        79.07893
925.16        77.95911
925.55        76.71511
925.95        76.00232
926.34        76.02113
926.74        76.57349
927.13        77.38953
927.52        77.91814
927.92        78.02183
928.31         77.8537
928.70        77.58142
929.10        77.44581
929.49        77.51888
929.89        77.66138
930.28         77.8674
930.67        78.02354
931.07        78.07394
931.46        78.09621
931.85        78.05595
932.24        77.92368
932.64        77.70689
933.03        77.40949
933.42        77.11397
933.82        76.95118
934.21        76.95837
934.60        77.12196
934.99        77.34181
935.39        77.41743
935.78        77.33902
936.17         77.1431
936.56        76.97261
936.96        77.06175
937.35        77.49062
937.74         78.1144
938.13        78.73636
938.53         79.0878
938.92        79.10885
939.31        78.87075
939.70         78.4855
940.09        78.15475
940.49        77.93658
940.88        77.81828
941.27        77.73618
941.66        77.59502
942.05        77.37701
942.44        77.14016
942.84        76.95265
943.23        76.85425
943.62         76.8839
944.01        77.01127
944.40        77.19624
944.79        77.37335
945.18        77.50356
945.57        77.58364
945.97        77.59354
946.36         77.5816
946.75        77.52956
947.14        77.43355
947.53        77.28483
947.92        77.07936
948.31        76.83074
948.70        76.55751
949.09        76.31631
949.48        76.17625
949.87        76.16367
950.26        76.29276
950.65        76.49413
951.04        76.65281
951.43        76.74099
951.82        76.75249
952.21        76.81981
952.60        77.17895
952.99        77.82787
953.38        78.64239
953.77        79.32037
954.16        79.41502
954.55        78.85433
954.94        77.80029
955.33        76.54264
955.72        75.56864
956.11        75.04674
956.50        74.86126
956.89        74.91202
957.28        74.98799
957.66        75.03296
958.05        75.12936
958.44         75.2401
958.83        75.28365
959.22        75.23969
959.61        75.03958
960.00        74.85133
960.39        74.97738
960.78        75.44402
961.16        76.21226
961.55        76.84283
961.94        76.68681
962.33        75.65468
962.72        74.05199
963.11        72.45856
963.49        71.70949
963.88        71.99819
964.27        73.07584
964.66        74.60896
965.04        75.98193
965.43        76.81703
965.82        77.28418
966.21        77.45882
966.60        77.49735
966.98        77.47529
967.37        77.25576
967.76        76.86507
968.15        76.38061
968.53        75.89213
968.92        75.49173
969.31         75.1925
969.69        74.93352
970.08        74.70435
970.47        74.51494
970.86        74.55977
971.24        75.17239
971.63        76.26083
972.02        77.63885
972.40        78.90646
972.79         79.4047
973.17        79.12729
973.56        78.20326
973.95         77.0059
974.33        76.18426
974.72        75.95624
975.11        76.13342
975.49        76.51644
975.88        76.77634
976.26        76.80414
976.65        76.72788
977.04        76.52419
977.42         76.1177
977.81        75.47981
978.19        74.57193
978.58        73.78577
978.96        73.77487
979.35        74.63347
979.74        76.22125
980.12        77.94568
980.51        78.61009
980.89        78.05858
981.28        76.49155
981.66         74.6347
982.05        73.86064
982.43        74.54276
982.82        76.18489
983.20        78.07396
983.59         78.9506
983.97        78.58632
984.35        77.32607
984.74        75.61054
985.12        74.21719
985.51        73.48142
985.89        73.23374
986.28         73.3371
986.66        73.67338
987.04        74.12296
987.43        74.68388
987.81        75.37645
988.20        76.09122
988.58        76.78438
988.96        77.40839
989.35        77.67769
989.73         77.2915
990.12        76.15686
990.50        74.28303
990.88         72.1806
991.27        71.09469
991.65        71.48309
992.03        72.99937
992.42        74.65837
992.80        75.47279
993.18        75.13182
993.56        73.83266
993.95        72.03748
994.33        70.87226
994.71        70.98296
995.10        71.88086
995.48        72.93009
995.86        73.34946
996.24        73.06287
996.63        72.25975
997.01        71.46548
997.39        71.65158
997.77        73.09314
998.15        75.32198
998.54        77.49224
998.92        78.55331
999.30         78.3082
999.68        77.09024
1000.06        75.39192
1000.45        74.12395
1000.83        73.74559
1001.21        73.94152
1001.59        74.51156
1001.97        75.14727
1002.35        75.73682
1002.73        76.47575
1003.12        77.18166
1003.50        77.28521
1003.88        76.73234
1004.26        75.66375
1004.64        74.63072
1005.02         74.3738
1005.40        74.96677
1005.78        76.19695
1006.16         77.5712
1006.54        78.18571
1006.92        77.74598
1007.30        76.50768
1007.69        74.97191
1008.07        73.86034
1008.45        73.51099
1008.83        73.74805
1009.21        74.17982
1009.59        74.21439
1009.97        73.67213
1010.35        72.63179
1010.73        71.53308
1011.11        71.41294
1011.49        72.62478
1011.86        74.81721
1012.24        76.87598
1012.62        77.58499
1013.00        76.80261
1013.38        75.04028
1013.76        72.97398
1014.14        71.72974
1014.52         71.7282
1014.90        72.62612
1015.28        74.40036
1015.66        76.86898
1016.04        79.65359
1016.41        82.75115
1016.79        85.21895
1017.17        86.12344
1017.55         85.3875
1017.93        83.28946
1018.31        80.73447
1018.69        79.19718
1019.06        79.15348
1019.44        80.33708
1019.82        82.15222
1020.20        83.22984
1020.58        83.00865
1020.95        81.83543
1021.33        80.40355
1021.71        79.50619
1022.09         79.2365
1022.46        79.26789
1022.84          79.058
1023.22        77.54072
1023.60        74.35977
1023.97        69.50813
1024.35        64.05421
1024.73        60.23012
