SpectraSmart Spectrum 2.9.0.0
--------- Device Information -----------
Spectrum Name :  反射率_0
Saving Time :  2024/04/28 00:01:12
Spectro-Module Model Name : SE2030-DUVN
Spectro-Module Serial Number : OS361AC55029948
Wavelength Start : 200
Wavelength End : 1025
Wavelength Unit : Wavelength(nm)
Spectrum Unit : Reflectance(%)
-----------Spectrum Setting ------------
Integration Time : 20ms
Average : 10
Boxcar : 0
Background removal :  enabled
linearity correction :  enabled
SC :  disabled
Intensity correction :  disabled
DWT denoise :  enabled
savitzky-golay :  disabled
FFT :  disabled
Running average :  disabled
Kalman :  disabled
High pass :  disabled
---------------BEGIN--------------------
Wavelength(nm)             Reflectance(%)
200.29               0
200.75        73.29939
201.21        81.29248
201.67        81.73224
202.13        77.55354
202.58        70.64694
203.04        62.06305
203.50        54.97511
203.96         54.2784
204.42        59.52303
204.88        67.66268
205.34        75.57444
205.80        81.05711
206.26        84.35295
206.72        86.29295
207.18        87.25288
207.64        87.75015
208.10        87.89102
208.55        87.83453
209.01        86.58857
209.47        83.57776
209.93        77.21649
210.39        61.20551
210.85        13.03669
211.31       -47.24301
211.77        20.52568
212.23        66.64978
212.69        82.49454
213.14        85.78806
213.60        81.80133
214.06        70.96172
214.52        51.42709
214.98        36.88288
215.44        42.52225
215.90        55.44934
216.36        65.91294
216.81          70.896
217.27          71.863
217.73        71.19971
218.19         68.8241
218.65        64.09935
219.11        57.10951
219.57        47.26465
220.02        36.86676
220.48        33.40583
220.94        38.49781
221.40        48.86401
221.86        59.22181
222.32        64.34602
222.77        64.40722
223.23        61.66487
223.69        58.04418
224.15        55.34039
224.61        53.81764
225.06        52.59359
225.52        51.83031
225.98        51.54693
226.44        51.56179
226.90         51.7143
227.36        51.70351
227.81        51.13599
228.27        49.94884
228.73        48.16675
229.19        45.62233
229.65          42.337
230.10        38.64007
230.56        35.07549
231.02        32.19497
231.48        30.70446
231.93         30.5611
232.39        31.55721
232.85        33.22408
233.31        34.90194
233.77        36.39987
234.22        37.96301
234.68         39.4272
235.14        40.81427
235.60        42.21725
236.05        43.50846
236.51        45.28238
236.97        48.36232
237.43         52.6679
237.88        57.86234
238.34        62.47445
238.80        65.60232
239.26        67.29727
239.71        67.54939
240.17        66.72273
240.63        67.52004
241.08        71.21483
241.54         75.4146
242.00        78.05623
242.46        78.38123
242.91        76.61505
243.37        71.65311
243.83        61.70628
244.28        51.88163
244.74        57.95767
245.20        75.94009
245.66        89.57996
246.11        95.21169
246.57        95.79534
247.03        91.63036
247.48        83.35526
247.94        78.73809
248.40        84.52876
248.85        96.38808
249.31        106.1541
249.77        107.0261
250.22        101.3841
250.68        93.65083
251.14        87.51482
251.59        85.98548
252.05        89.28218
252.51        96.94162
252.96        107.4808
253.42        113.1856
253.88        109.2502
254.33        100.6722
254.79        93.48104
255.25        89.83961
255.70        88.69159
256.16        89.00113
256.62        90.10167
257.07        91.53316
257.53        93.21355
257.99        94.48906
258.44        94.57806
258.90        93.38699
259.35        90.77644
259.81        87.85493
260.27        84.82739
260.72        82.07232
261.18        80.13817
261.63        78.42214
262.09        77.23587
262.55        76.38297
263.00        75.61427
263.46        75.07864
263.91        74.34772
264.37        73.32169
264.83        71.92665
265.28        70.25739
265.74        68.60341
266.19         67.0119
266.65        65.60658
267.11        64.26965
267.56        62.98104
268.02        61.84502
268.47        60.80963
268.93        59.88391
269.38         58.9739
269.84        57.96769
270.30        56.82701
270.75        55.57986
271.21        54.27727
271.66        52.94039
272.12        51.62637
272.57        50.30057
273.03        49.04851
273.48        47.90101
273.94        46.93324
274.39        46.08651
274.85        45.37221
275.31        44.68852
275.76        43.97933
276.22        43.29782
276.67        42.59759
277.13        41.95269
277.58        41.29819
278.04        40.66426
278.49        39.96738
278.95        39.23173
279.40        38.40649
279.86        37.58845
280.31        36.75999
280.77        36.03545
281.22        35.39522
281.68        34.88073
282.13        34.45912
282.59        34.14969
283.04        33.91629
283.50        33.77806
283.95        33.69581
284.41        33.66346
284.86        33.64763
285.32        33.66402
285.77        33.69249
286.22        33.76407
286.68        33.89042
287.13        34.01343
287.59        34.14044
288.04        34.19634
288.50        34.20813
288.95        34.16949
289.41        34.12924
289.86        34.09819
290.32        34.12175
290.77        34.19516
291.22        34.35666
291.68        34.64445
292.13        35.06847
292.59        35.66936
293.04        36.42824
293.50        37.34011
293.95        38.38781
294.40        39.56748
294.86        40.92524
295.31        42.52608
295.77        44.36727
296.22        46.38947
296.68        48.45699
297.13        50.32272
297.58        51.93139
298.04        53.35411
298.49        54.73001
298.95        56.33834
299.40        58.24306
299.85        60.38679
300.31        62.68657
300.76        64.93289
301.21        67.05751
301.67        69.12794
302.12        71.13391
302.58         73.1716
303.03        75.22264
303.48        77.28624
303.94        79.39602
304.39        81.50755
304.84        83.64591
305.30        85.82732
305.75        87.99424
306.20        90.16911
306.66        92.35955
307.11         94.4911
307.57        96.55702
308.02        98.40756
308.47        100.0425
308.93        101.5112
309.38        102.8224
309.83        104.1151
310.29        105.4511
310.74        106.7765
311.19        108.0842
311.65        109.3252
312.10        110.4403
312.55        111.4473
313.00        112.3676
313.46        113.2424
313.91         114.065
314.36        114.8461
314.82        115.5432
315.27        116.0848
315.72        116.4711
316.18        116.7521
316.63        117.0065
317.08        117.3984
317.53         117.961
317.99        118.6349
318.44        119.3396
318.89        119.9129
319.35        120.3057
319.80        120.5786
320.25        120.7705
320.70         120.957
321.16        121.1573
321.61        121.3624
322.06        121.5881
322.51        121.8769
322.97        122.2067
323.42        122.6097
323.87        122.9997
324.32        123.2518
324.78        123.3242
325.23        123.3038
325.68        123.2505
326.13        123.3013
326.59        123.4723
327.04        123.7776
327.49        124.1681
327.94        124.6018
328.39        125.0517
328.85        125.4892
329.30        125.9528
329.75        126.3144
330.20        126.5514
330.66        126.6435
331.11        126.7313
331.56        126.9178
332.01         127.249
332.46        127.6995
332.92        128.1571
333.37        128.6005
333.82        128.9389
334.27        129.2035
334.72         129.455
335.17        129.7941
335.63        130.2175
336.08        130.7561
336.53        131.3154
336.98        131.7941
337.43        132.1672
337.88        132.4678
338.34        132.7422
338.79        133.1333
339.24        133.6432
339.69        134.2228
340.14        134.8123
340.59         135.315
341.05         135.708
341.50        136.0506
341.95          136.34
342.40        136.5883
342.85        136.8161
343.30        137.0006
343.75        137.2399
344.20        137.6946
344.66        138.3727
345.11        139.2129
345.56        139.9932
346.01         140.354
346.46        140.2369
346.91          139.77
347.36        139.2184
347.81        138.9936
348.26        139.1905
348.72        139.6775
349.17        140.2628
349.62        140.6626
350.07        140.7809
350.52         140.711
350.97        140.5141
351.42        140.2845
351.87        140.0633
352.32        139.8074
352.77         139.529
353.22        139.2609
353.67        138.9979
354.13        138.7474
354.58         138.439
355.03        138.0198
355.48        137.4704
355.93        136.8037
356.38        136.0444
356.83        135.2325
357.28        134.3889
357.73        133.5236
358.18        132.6332
358.63        131.7034
359.08        130.7493
359.53        129.7987
359.98        128.9009
360.43        128.1266
360.88        127.4819
361.33         126.926
361.78        126.4123
362.23        125.8608
362.68        125.2279
363.13        124.5351
363.58        123.7642
364.03        122.7862
364.48         121.785
364.93        120.6579
365.38        119.4879
365.83        118.3215
366.28        117.1914
366.73        116.0928
367.18        115.0869
367.63        114.2656
368.08         113.631
368.53        113.1531
368.98        112.7014
369.43         112.061
369.88        111.1828
370.33        110.1236
370.78         109.011
371.23        108.0648
371.68        107.3413
372.13        106.7652
372.58        106.2485
373.03        105.6494
373.48        104.9226
373.93        104.1254
374.38        103.2814
374.83        102.4177
375.28        101.5572
375.72        100.6743
376.17        99.84273
376.62        99.10946
377.07        98.48217
377.52        97.93774
377.97        97.44093
378.42        96.93177
378.87         96.3927
379.32        95.84859
379.77        95.28683
380.22         94.6852
380.67        94.04497
381.11        93.36839
381.56        92.71487
382.01        92.20094
382.46        91.85288
382.91        91.64196
383.36        91.46648
383.81        91.16104
384.26         90.6892
384.71        90.09987
385.15        89.47604
385.60        89.01423
386.05         88.7295
386.50        88.55535
386.95         88.4089
387.40         88.1665
387.85        87.80674
388.29        87.34216
388.74        86.90164
389.19        86.46017
389.64        86.01825
390.09        85.53125
390.54        85.06919
390.98        84.73801
391.43        84.60374
391.88         84.6156
392.33        84.56898
392.78        84.30024
393.23        83.80939
393.67        82.84802
394.12        81.77026
394.57        81.89046
395.02         81.8815
395.47        82.04667
395.91         81.6519
396.36        81.52274
396.81        81.55534
397.26        81.42689
397.71        81.14531
398.15        80.88354
398.60         80.7454
399.05        80.45739
399.50        80.12831
399.95        80.21115
400.39        80.55516
400.84        80.45356
401.29        79.90103
401.74         79.2292
402.18        78.65833
402.63        78.57526
403.08        78.85694
403.53        78.75543
403.97          78.216
404.42        77.73094
404.87        77.41852
405.32        77.23128
405.76        77.16512
406.21        77.29945
406.66        77.50274
407.11         77.3449
407.55        76.86055
408.00        76.67155
408.45        76.77641
408.90        76.24242
409.34        75.32122
409.79        75.40424
410.24        76.29406
410.68        76.61593
411.13        76.26656
411.58        75.98254
412.03        75.85466
412.47        75.73849
412.92        75.64307
413.37        75.60696
413.81        75.59018
414.26        75.60192
414.71        75.61131
415.15        75.63522
415.60        75.62306
416.05        75.55887
416.49        75.44703
416.94        75.28121
417.39          75.104
417.83        74.98249
418.28        74.92202
418.73        74.88658
419.17        74.86169
419.62        74.82646
420.07        74.78769
420.51        74.76342
420.96        74.72689
421.41         74.6601
421.85        74.54541
422.30        74.21146
422.74        73.81902
423.19        74.17204
423.64        75.03603
424.08        75.26775
424.53        74.82262
424.98        74.27912
425.42        74.80762
425.87        74.63295
426.31         74.1881
426.76        74.35197
427.21        74.97503
427.65        74.96275
428.10        74.40005
428.54        74.25064
428.99        74.55637
429.44         74.9795
429.88        75.28741
430.33        74.92244
430.77        74.06764
431.22        73.86879
431.66        74.28069
432.11        74.37909
432.56        74.25521
433.00        74.55888
433.45        74.99236
433.89        75.44444
434.34        75.92635
434.78        74.43671
435.23        74.00841
435.67        74.91675
436.12        75.32875
436.57        75.45813
437.01         74.7468
437.46        74.51559
437.90        74.68843
438.35        75.73692
438.79        75.36051
439.24        75.48369
439.68        75.46696
440.13        75.42909
440.57        75.41553
441.02        75.47137
441.46        75.55492
441.91        75.62618
442.35        75.61409
442.80        75.52473
443.24         75.9096
443.69        75.96854
444.13        75.79919
444.58        76.23722
445.02         75.9091
445.47        75.95232
445.91         76.0158
446.36        75.90142
446.80        75.52256
447.24        76.19747
447.69        75.85498
448.13        75.80671
448.58        76.42937
449.02        76.43037
449.47        76.16558
449.91         76.0389
450.36         76.1173
450.80        76.09531
451.25        75.99225
451.69        75.96609
452.13         76.0078
452.58        76.01399
453.02        75.97546
453.47        75.91629
453.91        75.82249
454.36        75.79245
454.80         75.7455
455.24        75.39884
455.69         74.9068
456.13        74.58471
456.58        74.52494
457.02        74.70897
457.46        75.03111
457.91         74.8037
458.35        74.39466
458.79         74.1618
459.24        74.20809
459.68          74.188
460.13        74.13084
460.57        73.90705
461.01        73.85306
461.46        73.95495
461.90        73.62349
462.34        73.75183
462.79        73.61237
463.23        73.40334
463.68        73.04435
464.12        72.89789
464.56          72.978
465.01        73.07564
465.45        73.01631
465.89         73.0042
466.34        73.06975
466.78        72.68662
467.22        71.88401
467.67        72.71926
468.11        72.14617
468.55        72.29128
468.99        72.21124
469.44        72.17269
469.88        72.14561
470.32        72.02296
470.77        71.85004
471.21         71.6975
471.65        71.58762
472.10        71.52651
472.54         71.4584
472.98        71.39079
473.42        71.33482
473.87        71.15954
474.31        70.82724
474.75        71.14069
475.20        71.83596
475.64        71.62905
476.08        70.66244
476.52          70.421
476.97        71.00109
477.41        70.99378
477.85        71.01239
478.29        71.52564
478.74        71.35966
479.18        70.57266
479.62        70.89226
480.06        70.71803
480.50        70.68945
480.95         70.7313
481.39        70.73603
481.83        70.89196
482.27        70.91563
482.72        70.30426
483.16        70.55224
483.60        70.37132
484.04         70.1698
484.48        70.19742
484.93        70.76286
485.37        70.09713
485.81        71.05993
486.25        71.54496
486.69        72.42703
487.14        71.04697
487.58        70.37426
488.02        70.45155
488.46        70.75555
488.90        70.62846
489.34        70.45557
489.79        69.68311
490.23        70.20921
490.67         70.0953
491.11         69.8704
491.55        69.80576
491.99        69.88805
492.43        69.90154
492.88        69.81558
493.32        69.76886
493.76        69.75694
494.20        69.78693
494.64        69.87309
495.08        69.92304
495.52        69.94192
495.96        70.13866
496.41        70.40936
496.85        70.25919
497.29        69.77174
497.73        69.62522
498.17        69.72993
498.61        69.84007
499.05         69.8439
499.49        69.78231
499.93        69.71546
500.37        69.65797
500.82        69.58788
501.26        69.75304
501.70        70.20795
502.14        69.40135
502.58          69.858
503.02        69.82885
503.46        69.77192
503.90        69.78752
504.34        69.77289
504.78        69.77798
505.22         69.7632
505.66        69.52873
506.10        69.18129
506.54        69.26648
506.98         69.7193
507.42        69.64758
507.86         69.6124
508.30        69.41799
508.74        69.60703
509.18        69.59299
509.62        69.48235
510.06        69.38846
510.50         69.3189
510.94        69.23886
511.38        69.17429
511.82        69.17892
512.26        69.25517
512.70         69.3877
513.14         69.5078
513.58        69.54595
514.02        69.49279
514.46        69.29102
514.90        68.97437
515.34        69.08253
515.78        68.88557
516.22        68.96143
516.66        69.05946
517.10        69.15536
517.54         69.2236
517.98        69.28459
518.42        69.33385
518.86        69.33586
519.30         69.2891
519.74        69.21554
520.18        69.13897
520.62        69.05553
521.06        68.99909
521.50        69.06596
521.93        69.21161
522.37        69.25531
522.81        69.18243
523.25        69.07388
523.69        68.98071
524.13        68.95518
524.57        69.01121
525.01        69.12608
525.45        69.24812
525.89        69.29783
526.32        69.24973
526.76        69.14188
527.20        69.00996
527.64        68.91959
528.08        68.88934
528.52        68.89783
528.96        68.92269
529.40        68.92888
529.83        68.90144
530.27           68.87
530.71        68.83685
531.15        68.81253
531.59        68.80164
532.03          68.796
532.46        68.79563
532.90        68.82503
533.34        68.87502
533.78        68.93729
534.22        68.98864
534.66        68.98623
535.09          68.929
535.53          68.843
535.97        68.74002
536.41        68.64848
536.85        68.58302
537.28        68.54224
537.72        68.53574
538.16        68.56754
538.60        68.63492
539.04        68.74394
539.47        68.85397
539.91        68.94308
540.35        68.98331
540.79        68.99247
541.22        68.96454
541.66        68.90282
542.10        68.81143
542.54        68.69315
542.97        68.56622
543.41        68.49656
543.85        68.48177
544.29        68.51699
544.72        68.55504
545.16          68.547
545.60        68.46628
546.04        68.34579
546.47        68.23328
546.91        68.16138
547.35        68.16096
547.79         68.3335
548.22        68.56593
548.66        68.58751
549.10        68.39619
549.53        68.26944
549.97        68.26134
550.41        68.25258
550.84        68.23845
551.28        68.36514
551.72        68.58837
552.15        68.57687
552.59        68.27367
553.03        68.53489
553.46        68.10771
553.90        68.04532
554.34        67.92873
554.77        68.38014
555.21        68.39914
555.65        68.31664
556.08        68.32909
556.52        68.24067
556.96        68.20445
557.39        68.17474
557.83         68.1862
558.27        68.21397
558.70        68.24715
559.14        68.28793
559.57        68.30782
560.01        68.35282
560.45        68.39044
560.88         68.3066
561.32        68.18192
561.75        68.14702
562.19        68.21569
562.63        68.22894
563.06        68.18576
563.50        68.15765
563.93        68.14308
564.37        68.24519
564.80        68.39275
565.24        68.40331
565.68        68.29767
566.11        68.29391
566.55        68.42434
566.98        68.51931
567.42        68.57089
567.85        68.61945
568.29        68.69572
568.72        68.59689
569.16        68.38247
569.60         68.4308
570.03        68.78607
570.47        68.51534
570.90        68.42087
571.34        69.17043
571.77        68.94342
572.21        68.70136
572.64        68.91856
573.08          68.845
573.51        68.16698
573.95        68.45589
574.38        69.36376
574.82        68.98241
575.25        69.03824
575.69        68.92406
576.12        68.47471
576.56        68.73914
576.99        68.95784
577.42        68.94653
577.86        68.49954
578.29        69.18289
578.73          69.015
579.16        69.07986
579.60         68.8036
580.03        68.68308
580.47        68.62312
580.90        69.24192
581.33        69.18043
581.77        69.32933
582.20         69.2957
582.64        69.41334
583.07        69.19701
583.51        68.99978
583.94        68.93378
584.37         68.8368
584.81        68.81303
585.24        68.92866
585.68        69.14764
586.11        69.17976
586.54        68.92364
586.98        68.62875
587.41        69.16795
587.85        68.65485
588.28        68.89359
588.71        68.31857
589.15        68.87549
589.58        68.39307
590.01        68.74516
590.45         68.6903
590.88        68.33763
591.31        68.28046
591.75        68.38058
592.18         68.2422
592.61        68.11117
593.05        68.16524
593.48        69.07943
593.91        68.63978
594.35        68.49876
594.78        68.76508
595.21        68.68577
595.65        68.55212
596.08        68.00332
596.51        68.61712
596.94        68.07809
597.38        68.22885
597.81        68.49643
598.24        68.08158
598.68        68.34566
599.11        68.51676
599.54        68.71824
599.97         68.5442
600.41        68.73552
600.84        68.68774
601.27        68.60416
601.70        68.53541
602.14        68.25069
602.57        68.31413
603.00        68.31444
603.43        68.38529
603.87        68.79009
604.30        68.37672
604.73        68.13907
605.16        68.50092
605.60        68.17647
606.03        68.45508
606.46        68.72664
606.89        68.82182
607.32         68.8058
607.76        68.68694
608.19        68.79135
608.62        68.69765
609.05        68.55536
609.48        68.48688
609.92        68.47954
610.35        68.59808
610.78        68.70336
611.21        68.37753
611.64        68.68044
612.07        68.56712
612.50        68.40639
612.94         68.2878
613.37        68.24834
613.80        68.37955
614.23        68.31048
614.66        68.35717
615.09         68.3579
615.52        68.43481
615.96         68.6115
616.39        68.16293
616.82        68.17251
617.25        68.34527
617.68        67.89326
618.11        67.95042
618.54        68.17203
618.97        68.30356
619.40        68.23428
619.84        68.37476
620.27        68.39509
620.70        68.21663
621.13        67.75835
621.56        68.25616
621.99        67.98119
622.42        68.10674
622.85        67.97359
623.28        67.76835
623.71        67.96095
624.14        67.50311
624.57        67.89765
625.00        67.78651
625.43        67.64429
625.86        67.62756
626.29         67.7505
626.72        67.74181
627.15        67.68714
627.58        67.67879
628.01        67.81091
628.44        67.62134
628.87        67.62156
629.30        68.06896
629.73        67.67163
630.16        67.59568
630.59        67.77928
631.02        67.68308
631.45        68.01994
631.88         68.0528
632.31        67.98614
632.74        67.77666
633.17        67.70061
633.60        67.61514
634.03         67.5974
634.46        67.64229
634.89        67.70922
635.32        67.71426
635.75         67.6381
636.18        67.54413
636.61         67.4657
637.04        67.37698
637.47        67.32767
637.89        67.48051
638.32        67.75219
638.75        67.88786
639.18        67.85392
639.61        67.78443
640.04        67.70361
640.47        67.61739
640.90        67.54679
641.33        67.45792
641.76        67.36331
642.18        67.45332
642.61        67.46163
643.04        67.58836
643.47        67.70846
643.90        67.75837
644.33        67.71891
644.76        67.57937
645.18        67.39404
645.61        67.31182
646.04        67.32518
646.47        67.24854
646.90        67.09092
647.33        67.02557
647.75        67.07102
648.18        67.10651
648.61        67.11759
649.04        67.24281
649.47        67.42229
649.89        67.33231
650.32        67.08047
650.75        67.17307
651.18        67.56475
651.61        67.82111
652.03         67.7899
652.46        67.54568
652.89        67.33433
653.32        67.05252
653.74         67.0211
654.17        68.20152
654.60        67.61098
655.03        67.24512
655.46        67.58628
655.88        67.89178
656.31        69.72605
656.74        72.39045
657.16        70.23354
657.59        69.09386
658.02         68.1599
658.45        68.19367
658.87        68.09265
659.30        68.12785
659.73        67.62039
660.15        67.91659
660.58        67.67654
661.01        67.81248
661.44        67.89207
661.86        67.85338
662.29        67.69052
662.72        67.56007
663.14        67.50948
663.57        67.46008
664.00        67.42678
664.42        67.40754
664.85        67.40585
665.27        67.44482
665.70        67.50507
666.13        67.48762
666.55        67.49641
666.98        67.43656
667.41        67.38069
667.83        67.39579
668.26        67.48564
668.69        67.63898
669.11        67.79172
669.54        67.85302
669.96        67.81537
670.39        67.65041
670.82        67.45676
671.24        67.51637
671.67        67.80205
672.09        67.95316
672.52         67.9519
672.94        68.02576
673.37        68.14247
673.80        68.04043
674.22        67.78564
674.65        67.64034
675.07        67.66049
675.50        67.71149
675.92        67.77164
676.35        67.83292
676.77        67.88432
677.20        67.92999
677.62        67.97592
678.05        68.01014
678.47        68.03043
678.90        68.04504
679.32        68.05222
679.75        68.06536
680.17         68.0886
680.60        68.13029
681.02        68.16515
681.45        68.16608
681.87        68.14653
682.30        68.00049
682.72        67.80595
683.15        67.95279
683.57        68.35641
684.00        68.32289
684.42        67.89886
684.85        67.91864
685.27        68.03751
685.70        68.19885
686.12        68.24318
686.54        68.27051
686.97        68.28172
687.39        68.25101
687.82          68.181
688.24        68.10988
688.66        68.42451
689.09        67.94405
689.51        68.35739
689.94        68.34269
690.36        68.37284
690.78        68.41213
691.21        68.45927
691.63        68.47597
692.06         68.4471
692.48        68.39462
692.90        68.33392
693.33         68.2816
693.75        68.25103
694.17        68.24453
694.60        68.24342
695.02        68.26372
695.44        68.29791
695.87        68.29026
696.29        68.26249
696.71        68.40007
697.14        68.62615
697.56        68.59576
697.98        68.34621
698.41        68.39265
698.83        68.51628
699.25        68.69755
699.68        68.80752
700.10        68.88947
700.52        68.91353
700.94        68.88087
701.37        68.79218
701.79        68.68301
702.21        68.55371
702.64        68.41697
703.06        68.30054
703.48        68.26395
703.90        68.32219
704.33        68.45827
704.75        68.62697
705.17        68.72775
705.59        68.73354
706.01        68.64046
706.44        68.51835
706.86         68.5984
707.28        68.70811
707.70        68.98917
708.12        69.28784
708.55        69.35927
708.97        69.20684
709.39        69.08625
709.81        69.05215
710.23        69.01289
710.66        68.98885
711.08        69.08379
711.50        69.22707
711.92        69.27311
712.34        69.20205
712.76        69.06184
713.19        68.90569
713.61         68.8679
714.03        68.95659
714.45        69.12534
714.87        69.31873
715.29        69.45583
715.71        69.51096
716.13        69.51101
716.56         69.4532
716.98        69.40868
717.40        69.37556
717.82         69.3457
718.24        69.33603
718.66        69.37675
719.08        69.46688
719.50        69.59062
719.92        69.72479
720.34        69.82799
720.76        69.88372
721.19        69.89729
721.61        69.87144
722.03        69.76868
722.45        69.59394
722.87        69.38596
723.29        69.21967
723.71        69.07112
724.13        69.17849
724.55        69.36743
724.97        69.63605
725.39        69.77233
725.81        69.72164
726.23        69.84121
726.65        69.68777
727.07         69.6635
727.49        69.87239
727.91        70.09174
728.33        70.30429
728.75        70.37294
729.17        70.27325
729.59        70.05013
730.01        69.78029
730.43         69.5918
730.85        69.52126
731.27        69.52535
731.69        69.58151
732.10         69.6599
732.52        69.74168
732.94        69.86025
733.36        69.97411
733.78        70.02546
734.20        70.01347
734.62        69.92843
735.04        69.68562
735.46        69.92269
735.88        70.45463
736.30        70.53754
736.72        70.20065
737.13        70.06528
737.55        70.14365
737.97        70.31435
738.39        70.48346
738.81        70.19128
739.23        69.60493
739.65        69.76804
740.06        70.49445
740.48        70.71152
740.90        70.33752
741.32        70.02625
741.74        69.81071
742.16        69.74562
742.57        69.85324
742.99        70.12452
743.41         70.4397
743.83        70.59677
744.25        70.54846
744.67        70.33787
745.08        70.09727
745.50        70.00913
745.92        70.14165
746.34        70.43969
746.75        70.76569
747.17        70.91714
747.59        70.84418
748.01        70.54729
748.42        70.20604
748.84        70.19534
749.26        70.50153
749.68        70.85571
750.09        71.08628
750.51        70.95347
750.93        70.53989
751.35        70.33854
751.76        70.39247
752.18        70.33999
752.60        70.20164
753.01        70.24873
753.43        70.43044
753.85        70.54736
754.27        70.57118
754.68        70.56589
755.10        70.55889
755.52        70.58596
755.93        70.66046
756.35         70.7641
756.77        70.87249
757.18        70.97214
757.60        71.05874
758.02        71.07242
758.43        71.03105
758.85        71.10633
759.26        71.24638
759.68        71.23259
760.10        71.07529
760.51        70.65535
760.93        71.15923
761.34        70.33674
761.76        71.07317
762.18        71.23035
762.59        71.49915
763.01        71.36843
763.42        71.02995
763.84        71.05834
764.26          71.462
764.67        71.89928
765.09        72.20853
765.50        72.06943
765.92        71.58983
766.33        71.26783
766.75        71.16795
767.16        71.05788
767.58        70.91147
768.00         71.1804
768.41        71.70773
768.83        71.57646
769.24        70.93179
769.66         70.8364
770.07        71.24516
770.49        71.41924
770.90        71.32193
771.32        71.29962
771.73        71.37299
772.15        71.39323
772.56        71.36594
772.97        71.36184
773.39        71.36379
773.80        71.28015
774.22        71.17161
774.63        71.42838
775.05         71.9307
775.46        72.20657
775.88        72.16639
776.29        72.09951
776.70        72.06049
777.12        72.04107
777.53        72.08695
777.95        72.17439
778.36         72.2822
778.77        72.35699
779.19        72.38772
779.60         72.4054
780.02        72.40858
780.43        72.43646
780.84        72.47485
781.26        72.45505
781.67        72.46803
782.09        72.60637
782.50        72.68434
782.91        73.21888
783.33         72.3506
783.74        72.25503
784.15        72.40491
784.57        72.41991
784.98        72.31894
785.39        72.49614
785.81        72.88187
786.22        73.00394
786.63        72.88268
787.04         72.9199
787.46        73.13425
787.87        73.28551
788.28         73.3387
788.70        73.34603
789.11        73.28549
789.52         73.1302
789.93         72.9658
790.35         72.9655
790.76        73.15841
791.17        73.38154
791.58        73.53783
792.00        73.61452
792.41        73.60642
792.82        73.36098
793.23        73.04758
793.65        73.17119
794.06        73.69695
794.47        74.11123
794.88        74.30156
795.29        74.24795
795.71        74.37847
796.12        74.08855
796.53        73.62094
796.94        73.47848
797.35         73.6653
797.76        73.68187
798.18        73.50772
798.59        73.46355
799.00        73.54796
799.41        73.56077
799.82        73.51205
800.23        73.53246
800.64        73.62592
801.06        73.72045
801.47         73.8255
801.88        73.87823
802.29        73.87063
802.70        73.83887
803.11        73.78792
803.52        73.71928
803.93         73.6396
804.34        73.53857
804.75        73.49296
805.17        73.57446
805.58        73.81013
805.99        74.27562
806.40        74.79626
806.81        74.76609
807.22        74.27338
807.63          74.081
808.04        74.24377
808.45        74.24454
808.86        74.08765
809.27        74.13643
809.68        74.35168
810.09        74.45972
810.50         74.4268
810.91        74.33728
811.32        74.23464
811.73        74.20166
812.14        74.26118
812.55        74.32542
812.96        74.37034
813.37         74.4781
813.78        74.58347
814.19        74.45712
814.60        74.15509
815.01        73.97316
815.42        73.94485
815.83        73.91581
816.24        73.90243
816.65        74.00916
817.05        74.23634
817.46        74.50523
817.87        74.78168
818.28         74.9659
818.69        75.03474
819.10        75.01716
819.51        74.93776
819.92        74.84739
820.33        74.77596
820.74        74.70876
821.14        74.66983
821.55        74.73115
821.96        74.87715
822.37         75.0971
822.78        75.32088
823.19        75.41355
823.60        75.34072
824.00        75.16679
824.41         74.9182
824.82        74.73534
825.23        74.66439
825.64        74.67526
826.04        74.78849
826.45        74.99395
826.86        75.27798
827.27        75.62936
827.68        75.97398
828.08        76.21729
828.49        76.25985
828.90        76.16331
829.31        75.97899
829.72        75.80863
830.12        75.71468
830.53        75.62446
830.94        75.56375
831.35        75.53419
831.75        75.55135
832.16        75.58022
832.57        75.60222
832.97        75.53882
833.38        75.37601
833.79        75.15574
834.20         74.9454
834.60        74.84121
835.01        74.87801
835.42        75.01378
835.82        75.24122
836.23        75.46432
836.64        75.66828
837.04        75.88226
837.45        76.03128
837.86        76.09662
838.26        76.09048
838.67        76.01031
839.08         75.9053
839.48        75.84492
839.89        75.85372
840.29        75.91149
840.70        76.03246
841.11        76.23672
841.51        76.52931
841.92        76.86428
842.33        77.16571
842.73        77.30196
843.14        77.19476
843.54        76.90781
843.95        76.55427
844.35        76.34704
844.76        76.33109
845.17        76.45725
845.57        76.63535
845.98        76.66475
846.38        76.52837
846.79         76.2812
847.19        76.02474
847.60        75.86807
848.00         75.8701
848.41         75.9356
848.81        76.08894
849.22        76.29613
849.62        76.56253
850.03        76.87698
850.43        77.13657
850.84        77.09177
851.24        76.75356
851.65        76.10226
852.05        75.44942
852.46        75.25882
852.86        75.63035
853.27        76.40932
853.67        77.15055
854.07        77.43797
854.48        77.15287
854.88          76.468
855.29        75.53853
855.69        74.89603
856.10        74.64449
856.50        74.73315
856.90        74.96877
857.31        75.06839
857.71        74.99202
858.12        74.77982
858.52        74.57787
858.92         74.4812
859.33        74.50431
859.73        74.63174
860.13        74.75497
860.54        74.72799
860.94        74.55392
861.34        74.25744
861.75        73.91963
862.15        73.72402
862.55        73.68536
862.96         73.7676
863.36        73.88834
863.76        73.89494
864.17        73.74484
864.57        73.50531
864.97        73.26594
865.38        73.14931
865.78        73.22775
866.18        73.42149
866.58        73.63831
866.99        73.73352
867.39        73.68777
867.79        73.52287
868.19        73.28004
868.60         72.9765
869.00        72.62326
869.40        72.24371
869.80        71.90193
870.21        71.73058
870.61        71.84039
871.01        72.13588
871.41          72.516
871.81        72.83241
872.22        73.02126
872.62        73.14216
873.02        73.23931
873.42        73.38617
873.82        73.59449
874.22        73.82658
874.63        74.05561
875.03        74.22378
875.43        74.33611
875.83        74.41393
876.23         74.4836
876.63        74.58733
877.03        74.72351
877.44        74.84716
877.84         74.9459
878.24         74.9672
878.64        74.89587
879.04        74.76929
879.44        74.56869
879.84        74.25462
880.24        73.84264
880.64        73.35326
881.04        72.90925
881.44        72.72382
881.84        72.83936
882.24        73.18051
882.65        73.56928
883.05         73.7998
883.45        73.76558
883.85        73.56569
884.25         73.2708
884.65        72.98938
885.05        72.76817
885.45        72.55257
885.85        72.43842
886.25        72.59306
886.65        73.02276
887.05        73.68368
887.45        74.32189
887.85        74.54455
888.25        74.27787
888.65        73.61762
889.04        72.85728
889.44        72.54002
889.84        72.77965
890.24        73.42129
890.64         74.1424
891.04        74.42868
891.44        74.16348
891.84        73.52596
892.24          72.804
892.64        72.43959
893.04        72.55074
893.44        72.99609
893.83        73.58436
894.23          73.952
894.63        74.01522
895.03        73.86143
895.43        73.64207
895.83        73.59387
896.23        73.77197
896.63        74.09596
897.02        74.38158
897.42         74.4048
897.82        74.12373
898.22        73.63858
898.62        73.16451
899.01        73.06416
899.41        73.39635
899.81        74.03703
900.21        74.76866
900.61        75.23648
901.00        75.31306
901.40        75.11811
901.80        74.74243
902.20        74.34313
902.59        74.01228
902.99         73.7131
903.39        73.48919
903.79        73.40165
904.18        73.45833
904.58        73.65427
904.98        73.96536
905.38        74.35701
905.77        74.77789
906.17         75.2026
906.57         75.5454
906.96        75.69248
907.36        75.59186
907.76        75.31626
908.15        74.91173
908.55        74.39406
908.95        73.85356
909.34        73.28003
909.74        72.88635
910.14        72.92596
910.53        73.42432
910.93        74.28924
911.33        75.20318
911.72        75.61579
912.12        75.38657
912.52        74.71145
912.91         73.9084
913.31         73.4696
913.70        73.50225
914.10        73.85407
914.49        74.38457
914.89         74.7701
915.29        74.90883
915.68        74.89069
916.08        74.80216
916.47        74.76659
916.87        74.83638
917.26        74.93458
917.66        75.01148
918.05        74.97182
918.45        74.78846
918.84        74.52496
919.24        74.23471
919.64        74.07888
920.03        74.11603
920.42        74.30746
920.82        74.54462
921.21        74.64775
921.61        74.55577
922.00        74.30495
922.40        74.05747
922.79         74.1727
923.19        74.67081
923.58        75.48019
923.98        76.20923
924.37        76.32577
924.77        75.73373
925.16        74.58595
925.55        73.36124
925.95         72.8871
926.34        73.37228
926.74        74.53571
927.13        75.90073
927.52        76.60644
927.92        76.46235
928.31        75.73551
928.70        74.80965
929.10        74.25805
929.49        74.24823
929.89        74.56135
930.28        75.07405
930.67        75.45927
931.07        75.58341
931.46        75.59134
931.85         75.5162
932.24        75.42599
932.64        75.35361
933.03        75.25639
933.42        75.16089
933.82        75.12605
934.21         75.1666
934.60        75.28621
934.99        75.44275
935.39        75.52883
935.78        75.55271
936.17        75.52549
936.56        75.49782
936.96        75.55145
937.35        75.73979
937.74        75.97822
938.13        76.19801
938.53        76.30809
938.92        76.28884
939.31        76.16997
939.70        75.96461
940.09        75.69862
940.49        75.38488
940.88        75.06918
941.27        74.80608
941.66        74.67563
942.05        74.69738
942.44         74.8717
942.84        75.14281
943.23        75.35554
943.62        75.48331
944.01        75.52116
944.40        75.54415
944.79        75.69352
945.18        75.97674
945.57        76.33012
945.97        76.54691
946.36        76.39555
946.75        75.81924
947.14        74.91421
947.53        73.93045
947.92        73.30703
948.31        73.18157
948.70        73.43989
949.09        73.87151
949.48        74.12569
949.87        74.11325
950.26        73.96054
950.65        73.77727
951.04        73.74043
951.43        73.89353
951.82        74.12325
952.21        74.41541
952.60        74.76263
952.99        75.11677
953.38        75.49004
953.77        75.71198
954.16        75.51471
954.55        74.88473
954.94        73.90858
955.33        72.89111
955.72        72.35082
956.11        72.41673
956.50        72.95052
956.89        73.66159
957.28        74.00437
957.66        73.84419
958.05        73.36101
958.44        72.74257
958.83        72.28849
959.22        72.09724
959.61        72.00163
960.00        72.08385
960.39        72.49387
960.78        73.19617
961.16        74.20991
961.55        75.04679
961.94        74.96369
962.33        73.84398
962.72        71.97015
963.11        70.04139
963.49         69.0881
963.88        69.33736
964.27        70.52184
964.66        72.12761
965.04        73.21181
965.43         73.3665
965.82        72.90945
966.21        72.24319
966.60        72.00172
966.98        72.35145
967.37        73.01363
967.76        73.74136
968.15        74.07665
968.53        73.88994
968.92        73.41401
969.31        72.80377
969.69        72.23795
970.08        71.80885
970.47        71.44995
970.86        71.41325
971.24        72.13724
971.63        73.53332
972.02        75.39759
972.40        77.20022
972.79         78.0938
973.17        78.02856
973.56        77.14211
973.95        75.90016
974.33        75.12316
974.72        75.06895
975.11        75.51797
975.49         76.0811
975.88        76.11542
976.26         75.4647
976.65        74.36263
977.04        73.13889
977.42        72.30753
977.81        71.99686
978.19        72.00761
978.58        72.34448
978.96        72.94535
979.35        73.67699
979.74         74.6056
980.12         75.4456
980.51        75.50201
980.89        74.78526
981.28        73.35054
981.66         71.8214
982.05        71.39596
982.43        72.35641
982.82         74.2796
983.20        76.44676
983.59        77.57629
983.97        77.43871
984.35        76.34698
984.74        74.74726
985.12        73.45226
985.51        72.79741
985.89        72.60165
986.28        72.71307
986.66        72.98862
987.04        73.30981
987.43        73.69855
987.81        74.19584
988.20        74.72388
988.58        75.27021
988.96        75.80524
989.35        76.05198
989.73         75.7203
990.12        74.71609
990.50        73.02261
990.88        71.18479
991.27        70.47391
991.65        71.29488
992.03        73.26662
992.42        75.24577
992.80        76.07079
993.18        75.43552
993.56        73.55373
993.95        71.12715
994.33         69.8919
994.71        70.64378
995.10        72.54298
995.48        74.52204
995.86        75.41174
996.24        75.08608
996.63        73.81629
997.01        72.14311
997.39        71.16383
997.77        71.38606
998.15        72.49427
998.54        73.71299
998.92        73.99095
999.30        73.13177
999.68        71.46815
1000.06        69.79874
1000.45        69.51833
1000.83        71.02118
1001.21        73.66393
1001.59        76.47884
1001.97        78.11706
1002.35        78.25234
1002.73        77.30566
1003.12        75.59429
1003.50        73.79733
1003.88        72.46778
1004.26        71.41764
1004.64        70.93072
1005.02        71.35149
1005.40        72.60244
1005.78        74.66537
1006.16        76.79504
1006.54        77.57085
1006.92        76.59428
1007.30        74.17921
1007.69        71.34923
1008.07        69.79446
1008.45        70.05429
1008.83        71.63636
1009.21        73.54776
1009.59        74.30503
1009.97        73.51747
1010.35        71.50893
1010.73        69.01601
1011.11        67.89442
1011.49        68.97231
1011.86        71.62204
1012.24        74.58877
1012.62        76.49431
1013.00        77.03557
1013.38        76.73849
1013.76        75.90993
1014.14        75.02072
1014.52         74.3252
1014.90        73.60687
1015.28        73.20636
1015.66        73.79977
1016.04        75.44276
1016.41        78.01003
1016.79         80.4704
1017.17        81.64984
1017.55        81.34068
1017.93        79.92608
1018.31        78.11622
1018.69        77.04973
1019.06        77.12876
1019.44         78.0858
1019.82        79.57977
1020.20        80.82537
1020.58        81.38258
1020.95        81.34399
1021.33        81.01012
1021.71        80.70142
1022.09          80.464
1022.46        80.15516
1022.84        79.45671
1023.22        77.68443
1023.60        74.64501
1023.97        70.25488
1024.35        65.48804
1024.73        62.31578
