SpectraSmart Spectrum 2.9.0.0
--------- Device Information -----------
Spectrum Name :  反射率_0
Saving Time :  2024/04/27 23:50:38
Spectro-Module Model Name : SE2030-DUVN
Spectro-Module Serial Number : OS361AC55029948
Wavelength Start : 200
Wavelength End : 1025
Wavelength Unit : Wavelength(nm)
Spectrum Unit : Reflectance(%)
-----------Spectrum Setting ------------
Integration Time : 20ms
Average : 10
Boxcar : 0
Background removal :  enabled
linearity correction :  enabled
SC :  disabled
Intensity correction :  disabled
DWT denoise :  enabled
savitzky-golay :  disabled
FFT :  disabled
Running average :  disabled
Kalman :  disabled
High pass :  disabled
---------------BEGIN--------------------
Wavelength(nm)             Reflectance(%)
200.29               0
200.75        41.39229
201.21         35.5674
201.67        33.11902
202.13        31.24582
202.58        29.35758
203.04        28.02102
203.50        30.41825
203.96        40.06779
204.42        54.33816
204.88        69.33292
205.34        81.55907
205.80        88.84502
206.26        91.68102
206.72        90.65531
207.18        83.85724
207.64        71.72556
208.10        61.75224
208.55        57.76194
209.01        55.63806
209.47         51.6239
209.93        42.92444
210.39        21.30609
210.85       -39.64381
211.31       -94.83879
211.77        7.195238
212.23        63.55508
212.69        80.32306
213.14        81.89882
213.60        74.19301
214.06        55.84217
214.52        24.24811
214.98        2.978979
215.44        15.81301
215.90        40.54029
216.36        59.84309
216.81        68.59022
217.27        69.75111
217.73        67.04568
218.19        61.80875
218.65        55.57284
219.11        49.22047
219.57        42.04736
220.02        34.62364
220.48        30.63638
220.94        31.15891
221.40        35.01849
221.86        41.09933
222.32        48.08838
222.77        54.99451
223.23        61.31481
223.69        65.59406
224.15        66.23564
224.61        63.44555
225.06        57.68708
225.52        51.00232
225.98        47.39686
226.44         47.7188
226.90        49.90654
227.36         51.9945
227.81        52.33215
228.27        50.87148
228.73        48.16129
229.19        44.54913
229.65        40.93977
230.10        37.99976
230.56        35.96704
231.02        34.74113
231.48         34.2245
231.93        34.26468
232.39        34.87423
232.85         36.2606
233.31        38.70383
233.77        41.97047
234.22        45.81997
234.68        49.25184
235.14        51.12508
235.60          51.335
236.05        50.06555
236.51        48.43734
236.97        48.84633
237.43        52.07305
237.88        57.43972
238.34        62.90703
238.80        66.66804
239.26        68.48064
239.71        68.70218
240.17        67.49647
240.63        67.14694
241.08        69.38212
241.54        72.24731
242.00        74.34612
242.46        75.33962
242.91        75.60559
243.37        75.05978
243.83        74.21933
244.28        76.54283
244.74        84.55949
245.20        92.90056
245.66        96.07493
246.11        94.36727
246.57        88.54867
247.03        76.58174
247.48         58.2774
247.94        46.20248
248.40        53.26328
248.85        72.21158
249.31        91.40279
249.77        101.1259
250.22        102.4789
250.68        100.2853
251.14        97.24416
251.59         95.4613
252.05        95.28176
252.51        95.54505
252.96        96.21031
253.42        97.90794
253.88        99.63324
254.33        100.8822
254.79        101.0384
255.25        98.74066
255.70        94.54435
256.16        90.15411
256.62        86.77312
257.07        85.84176
257.53        87.21089
257.99        89.10303
258.44         90.2484
258.90        90.21466
259.35        88.69709
259.81        86.78029
260.27        84.53878
260.72        82.14742
261.18        80.19441
261.63        78.24258
262.09        76.67027
262.55        75.33923
263.00        74.08654
263.46        73.09785
263.91        72.10758
264.37        71.23049
264.83        70.35963
265.28        69.43166
265.74        68.56836
266.19        67.61652
266.65        66.65556
267.11        65.63882
267.56        64.51843
268.02        63.36104
268.47         62.1356
268.93         60.8601
269.38        59.60295
269.84        58.50809
270.30         57.5881
270.75        56.82121
271.21        56.04609
271.66        54.94571
272.12        53.50929
272.57        51.78661
273.03        50.11173
273.48        48.90096
273.94         48.2798
274.39        48.03457
274.85        47.87509
275.31        47.27346
275.76        46.13523
276.22          44.713
276.67        43.24864
277.13        42.21901
277.58        41.63055
278.04         41.3581
278.49        41.13591
278.95        40.73174
279.40        40.02454
279.86         39.2015
280.31        38.30808
280.77        37.54902
281.22        36.92712
281.68        36.44029
282.13        36.03719
282.59         35.7294
283.04        35.47157
283.50        35.29261
283.95        35.15158
284.41        35.03632
284.86        34.91642
285.32        34.81914
285.77        34.72162
286.22        34.65265
286.68        34.62786
287.13        34.58853
287.59        34.56981
288.04        34.53795
288.50         34.5195
288.95        34.48917
289.41         34.4465
289.86        34.32627
290.32        34.16487
290.77        33.98918
291.22        33.88084
291.68        33.94565
292.13        34.20619
292.59        34.66823
293.04        35.30281
293.50        36.08829
293.95        36.99642
294.40        38.03914
294.86        39.21459
295.31        40.51131
295.77        41.92324
296.22        43.41074
296.68        44.95113
297.13        46.48269
297.58        47.98004
298.04        49.45131
298.49        50.88526
298.95        52.32485
299.40         53.7863
299.85        55.28336
300.31         56.8666
300.76         58.5481
301.21        60.31937
301.67        62.17416
302.12        64.00805
302.58        65.76443
303.03        67.39554
303.48        68.95607
303.94        70.54483
304.39        72.21602
304.84        74.02115
305.30          75.951
305.75        77.90774
306.20        79.84367
306.66        81.75186
307.11        83.57966
307.57        85.38661
308.02        87.13698
308.47        88.83303
308.93        90.47174
309.38         91.9487
309.83        93.22004
310.29        94.31972
310.74        95.26561
311.19        96.16911
311.65         97.1748
312.10        98.27981
312.55        99.43829
313.00        100.5982
313.46        101.6882
313.91        102.6588
314.36        103.5419
314.82        104.3015
315.27        104.8754
315.72        105.2682
316.18         105.521
316.63        105.7038
317.08        105.9739
317.53        106.3732
317.99        106.8557
318.44        107.3903
318.89        107.8866
319.35        108.3135
319.80        108.7195
320.25        109.0816
320.70        109.3702
321.16        109.5808
321.61        109.7257
322.06        109.8936
322.51        110.2491
322.97        110.7933
323.42        111.5078
323.87         112.215
324.32        112.6398
324.78        112.7031
325.23        112.5375
325.68        112.2804
326.13        112.1964
326.59        112.3456
327.04        112.6978
327.49        113.1778
327.94        113.6954
328.39        114.2029
328.85        114.7015
329.30        115.2033
329.75        115.5483
330.20        115.7135
330.66        115.6863
331.11         115.657
331.56        115.8273
332.01        116.2625
332.46        116.9097
332.92        117.5997
333.37        118.1896
333.82        118.5562
334.27        118.7639
334.72        118.9087
335.17        119.1536
335.63        119.5242
336.08        120.0255
336.53        120.5738
336.98        121.0823
337.43        121.5224
337.88        121.9285
338.34        122.3149
338.79        122.7582
339.24        123.2524
339.69        123.7716
340.14        124.2902
340.59        124.7737
341.05        125.2122
341.50        125.6298
341.95        126.0245
342.40        126.4081
342.85        126.7903
343.30        127.1613
343.75        127.5427
344.20        127.9702
344.66        128.4443
345.11        128.9417
345.56        129.4014
346.01        129.7221
346.46        129.8869
346.91        129.9343
347.36        129.9343
347.81        129.9968
348.26        130.1481
348.72         130.351
349.17        130.5647
349.62        130.7474
350.07        130.8713
350.52        130.9509
350.97        130.9618
351.42          130.86
351.87        130.6554
352.32         130.378
352.77        130.0803
353.22        129.8472
353.67        129.6937
354.13        129.5878
354.58        129.4917
355.03        129.4097
355.48        129.3079
355.93         129.175
356.38        128.9065
356.83        128.3415
357.28        127.4752
357.73        126.3863
358.18        125.2354
358.63        124.2674
359.08        123.5564
359.53        123.0461
359.98         122.656
360.43        122.2516
360.88        121.7713
361.33        121.2268
361.78        120.6417
362.23        120.0464
362.68        119.4421
363.13        118.8335
363.58        118.1407
364.03        117.1679
364.48        116.0531
364.93         114.759
365.38         113.506
365.83        112.5691
366.28        111.9991
366.73        111.7017
367.18        111.4924
367.63        111.0725
368.08        110.3574
368.53        109.4365
368.98        108.4177
369.43        107.4783
369.88        106.6828
370.33        105.9791
370.78         105.338
371.23        104.7187
371.68        104.0996
372.13        103.4967
372.58        102.9211
373.03        102.3793
373.48         101.869
373.93        101.3841
374.38        100.8758
374.83        100.2732
375.28        99.56837
375.72        98.76292
376.17        97.98199
376.62        97.35009
377.07        96.88835
377.52        96.54498
377.97        96.21938
378.42        95.75285
378.87        95.11819
379.32        94.38858
379.77         93.6345
380.22        92.95409
380.67        92.37868
381.11        91.87493
381.56        91.44973
382.01        91.12981
382.46        90.90834
382.91        90.77811
383.36        90.65829
383.81        90.41885
384.26        90.03023
384.71        89.52012
385.15        88.95771
385.60        88.52132
386.05          88.228
386.50         88.0337
386.95        87.85981
387.40        87.58826
387.85        87.20047
388.29        86.69517
388.74        86.23805
389.19        85.85624
389.64        85.55122
390.09        85.27527
390.54        84.99753
390.98         84.6582
391.43        84.30856
391.88        83.96772
392.33        83.60641
392.78        83.28542
393.23        83.04446
393.67        82.59579
394.12        82.07716
394.57        82.47038
395.02        82.41343
395.47        82.23426
395.91        81.65741
396.36        81.42271
396.81        81.56783
397.26        81.70919
397.71        81.73942
398.15        81.60867
398.60        81.38007
399.05        80.97453
399.50        80.52146
399.95        80.27595
400.39        80.22211
400.84         80.1262
401.29        79.93978
401.74        79.54688
402.18         79.0604
402.63        78.91407
403.08        79.05853
403.53        78.96026
403.97        78.59287
404.42        78.29803
404.87        78.12646
405.32        78.02405
405.76        77.97658
406.21        78.00792
406.66        78.07773
407.11        78.03864
407.55        77.89922
408.00        77.91129
408.45        78.00526
408.90        77.51073
409.34        76.62112
409.79        76.39203
410.24        76.76339
410.68        76.85207
411.13        76.61549
411.58         76.5763
412.03        76.71288
412.47        76.74549
412.92         76.6237
413.37        76.43849
413.81        76.22637
414.26        76.10441
414.71        76.07382
415.15        76.12007
415.60        76.16431
416.05        76.14452
416.49        76.05035
416.94         75.8968
417.39        75.74734
417.83        75.69412
418.28        75.74605
418.73         75.8511
419.17         75.9629
419.62        76.01342
420.07        75.98948
420.51         75.9181
420.96        75.80077
421.41        75.63387
421.85        75.40791
422.30        75.03692
422.74        74.62952
423.19        74.76291
423.64        75.30293
424.08        75.49994
424.53        75.21299
424.98        75.07642
425.42        75.12561
425.87        74.76952
426.31        74.19182
426.76        74.28878
427.21        74.91634
427.65         74.9548
428.10        74.44847
428.54        74.33797
428.99        74.66151
429.44        75.00795
429.88        75.21403
430.33        74.99939
430.77        74.47069
431.22        74.39787
431.66        74.73618
432.11        74.87863
432.56        74.85513
433.00        74.91002
433.45        74.84771
433.89        74.88401
434.34        75.11952
434.78        73.69576
435.23        74.14548
435.67        73.94996
436.12        75.73743
436.57        75.66077
437.01        74.60339
437.46        74.12746
437.90        74.61234
438.35         75.8136
438.79        75.49981
439.24        75.61924
439.68        75.55122
440.13        75.21105
440.57        74.81148
441.02        75.09327
441.46        75.84453
441.91        76.02734
442.35        75.58657
442.80        75.39087
443.24        75.42105
443.69        75.36757
444.13        75.24009
444.58        75.16862
445.02        75.14277
445.47        75.21597
445.91        75.33457
446.36        75.41125
446.80        75.41457
447.24        75.31384
447.69        75.18731
448.13        75.30437
448.58        75.59567
449.02        75.58282
449.47         75.3251
449.91        75.25847
450.36        75.41949
450.80        75.53096
451.25        75.57225
451.69        75.61051
452.13        75.62362
452.58           75.53
453.02        75.36803
453.47        75.23953
453.91        75.15221
454.36        75.18303
454.80        75.21127
455.24        74.89994
455.69        74.38818
456.13        73.99081
456.58        73.83234
457.02        74.03618
457.46        74.33807
457.91         74.2045
458.35        73.89026
458.79        73.64783
459.24        73.58344
459.68        73.39858
460.13        73.16376
460.57        72.90353
461.01        72.98101
461.46        73.02059
461.90        72.78339
462.34        73.28912
462.79        73.25168
463.23        73.25591
463.68        72.96503
464.12        72.60577
464.56        72.31203
465.01         72.2498
465.45        72.27179
465.89        72.38994
466.34        72.56557
466.78        72.19199
467.22        71.31332
467.67        72.13898
468.11        71.65392
468.55        71.83435
468.99        71.73314
469.44        71.67519
469.88        71.63835
470.32        71.50536
470.77        71.33337
471.21        71.21298
471.65        71.15752
472.10        71.15224
472.54        71.14279
472.98        71.09221
473.42        70.99646
473.87        70.85548
474.31        70.66912
474.75         70.6404
475.20        70.72579
475.64        70.61243
476.08        70.32314
476.52         70.2819
476.97        70.51546
477.41        70.37154
477.85          70.573
478.29         70.5915
478.74        70.45491
479.18        69.97523
479.62        70.21539
480.06        70.14725
480.50        70.09882
480.95        70.13718
481.39        70.19109
481.83        70.26255
482.27        70.15217
482.72         69.8238
483.16        70.13163
483.60        69.49428
484.04        69.80341
484.48        69.78295
484.93        70.04188
485.37        69.85633
485.81        70.50821
486.25        70.41335
486.69        70.73527
487.14        70.20726
487.58        70.10121
488.02        70.17804
488.46        69.82555
488.90        70.32897
489.34        69.86623
489.79        69.03503
490.23        69.94008
490.67        69.75911
491.11        69.34052
491.55        69.23165
491.99        69.45408
492.43        69.53139
492.88         69.4139
493.32        69.36945
493.76        69.40251
494.20        69.47134
494.64        69.58999
495.08        69.71516
495.52        69.80903
495.96        69.95559
496.41        70.09007
496.85        69.84894
497.29        69.35472
497.73        69.35252
498.17        69.67995
498.61        69.74696
499.05        69.47844
499.49        69.34479
499.93        69.41293
500.37        69.37706
500.82        69.21294
501.26        69.38308
501.70        69.91129
502.14        69.06298
502.58        69.37721
503.02        69.21397
503.46        69.19459
503.90        69.18535
504.34        69.16128
504.78        69.22215
505.22        69.30864
505.66        69.33112
506.10        69.29818
506.54        69.26724
506.98         69.2261
507.42        69.35195
507.86        69.22492
508.30        69.21442
508.74        69.19864
509.18         69.1845
509.62          69.159
510.06        69.10844
510.50        69.03751
510.94        68.94966
511.38        68.87366
511.82        68.85252
512.26        68.89149
512.70         68.9761
513.14        69.07122
513.58           69.11
514.02        69.07687
514.46         69.0107
514.90        68.94286
515.34        68.83836
515.78        68.85806
516.22        68.86865
516.66        68.90622
517.10        68.95467
517.54        69.00574
517.98        69.06015
518.42        69.10329
518.86        69.11516
519.30        69.09087
519.74         69.0336
520.18        68.95911
520.62        68.89301
521.06        68.84622
521.50        68.82044
521.93        68.80919
522.37        68.78529
522.81        68.75145
523.25         68.7119
523.69        68.69193
524.13        68.73022
524.57        68.82693
525.01        68.96272
525.45        69.08949
525.89        69.13281
526.32        69.07257
526.76        68.94781
527.20        68.79836
527.64        68.69824
528.08        68.66766
528.52        68.68042
528.96         68.7209
529.40        68.76205
529.83         68.7872
530.27        68.82598
530.71        68.85033
531.15        68.82407
531.59        68.74598
532.03        68.61891
532.46        68.49722
532.90        68.49367
533.34        68.61464
533.78        68.82377
534.22         69.0266
534.66        69.07758
535.09        68.94481
535.53        68.70274
535.97         68.4301
536.41        68.26642
536.85         68.2487
537.28         68.3359
537.72        68.48296
538.16        68.58665
538.60        68.61582
539.04        68.67169
539.47        68.73464
539.91         68.6784
540.35        68.55557
540.79        68.66911
541.22        68.94667
541.66        69.02357
542.10        68.87273
542.54        68.69576
542.97        68.54192
543.41         68.4451
543.85        68.41576
544.29         68.4516
544.72        68.50182
545.16        68.52035
545.60        68.47861
546.04        68.39144
546.47        68.29592
546.91        68.25326
547.35        68.27085
547.79        68.35107
548.22        68.42576
548.66        68.39321
549.10        68.25755
549.53        68.18766
549.97        68.20858
550.41        68.21735
550.84        68.20675
551.28        68.28755
551.72        68.44096
552.15        68.46136
552.59        68.32479
553.03        68.55756
553.46        68.29055
553.90        68.30696
554.34        68.34215
554.77        68.42057
555.21        68.48882
555.65        68.47759
556.08        68.31404
556.52        68.19827
556.96        68.14225
557.39        68.16633
557.83        68.26337
558.27        68.34638
558.70        68.36391
559.14        68.27925
559.57        68.12173
560.01         68.0244
560.45        68.00154
560.88        68.06178
561.32        68.19732
561.75        68.15524
562.19        67.98967
562.63        68.01608
563.06        68.19965
563.50        68.12424
563.93        67.83757
564.37         67.9062
564.80        68.23012
565.24        68.26355
565.68        68.03963
566.11        67.99021
566.55        68.14468
566.98        68.30033
567.42        68.41483
567.85        68.34127
568.29        68.19275
568.72        68.16771
569.16        68.28566
569.60        68.43619
570.03        68.63502
570.47        68.36523
570.90        68.48493
571.34        68.75224
571.77        68.91447
572.21        68.50055
572.64         68.7578
573.08        68.63732
573.51        68.05689
573.95        68.20726
574.38        68.77202
574.82        68.71623
575.25        68.68571
575.69        68.46002
576.12         68.2004
576.56         68.6545
576.99         68.6167
577.42        68.75321
577.86        68.81371
578.29        68.89063
578.73        68.68118
579.16        68.64641
579.60        68.66001
580.03        68.54057
580.47        68.15548
580.90        68.93787
581.33        69.15665
581.77        68.99508
582.20        68.93235
582.64        69.05278
583.07        68.53973
583.51         68.4239
583.94        68.63624
584.37        68.66865
584.81        68.51818
585.24        68.58627
585.68        68.89696
586.11        68.69717
586.54        68.43696
586.98        68.32869
587.41        68.48478
587.85        68.08406
588.28        68.53506
588.71        68.72178
589.15         68.6906
589.58         68.5621
590.01        68.63255
590.45        68.83008
590.88        68.22854
591.31        68.24522
591.75        68.51832
592.18        68.46471
592.61        68.24079
593.05        68.58147
593.48        68.71634
593.91        68.59361
594.35        68.49968
594.78        68.69714
595.21        68.19918
595.65        68.07491
596.08         67.9488
596.51        68.54641
596.94        68.05621
597.38        68.15704
597.81        68.43059
598.24        67.91651
598.68        67.85215
599.11        68.15182
599.54        68.58006
599.97        68.52831
600.41        68.54913
600.84        68.46671
601.27        68.46152
601.70         68.3507
602.14        67.72828
602.57        68.09068
603.00        68.44841
603.43        68.53278
603.87        68.39697
604.30        68.06372
604.73        68.03412
605.16        68.34141
605.60        68.16886
606.03        68.41595
606.46        68.73935
606.89        68.39593
607.32        68.09666
607.76        68.53426
608.19        68.15793
608.62        68.25288
609.05        68.28734
609.48        68.28891
609.92        68.22511
610.35        68.24515
610.78        68.24984
611.21         68.0817
611.64        68.33086
612.07        68.19553
612.50        67.89854
612.94        67.84652
613.37        68.13239
613.80        67.87582
614.23        68.23054
614.66          68.272
615.09        68.27766
615.52        68.24496
615.96        68.26726
616.39        67.75533
616.82        67.92155
617.25        68.08253
617.68        68.00282
618.11        67.96781
618.54        67.88185
618.97         67.9937
619.40        68.20925
619.84        68.43775
620.27        68.26227
620.70        68.14793
621.13        67.94294
621.56        67.95377
621.99        67.73983
622.42        67.48096
622.85        67.50386
623.28        68.09221
623.71        67.81264
624.14        67.33712
624.57          68.131
625.00        68.02953
625.43        67.85257
625.86         67.7283
626.29        67.82362
626.72        67.62593
627.15        67.64704
627.58        67.73108
628.01        68.07512
628.44        67.68962
628.87        67.54917
629.30        68.01197
629.73        67.63753
630.16        67.14366
630.59        67.75497
631.02         67.8141
631.45        67.79298
631.88        67.87032
632.31        68.08036
632.74        67.91971
633.17          68.043
633.60        67.97487
634.03        67.91628
634.46        67.85508
634.89        67.80845
635.32        67.73257
635.75        67.64719
636.18        67.70339
636.61        67.85587
637.04        67.85466
637.47        67.71931
637.89        67.71604
638.32        67.82501
638.75        67.86643
639.18        67.83542
639.61        67.83694
640.04        67.85683
640.47        67.84084
640.90        67.78998
641.33        67.69249
641.76        67.56654
642.18        67.61047
642.61        67.56339
643.04        67.61976
643.47        67.67725
643.90        67.69994
644.33        67.67566
644.76        67.62546
645.18        67.56285
645.61        67.49398
646.04        67.42873
646.47        67.35633
646.90        67.30397
647.33        67.31702
647.75        67.40132
648.18        67.55248
648.61        67.69885
649.04        67.75253
649.47        67.64381
649.89        67.46741
650.32        67.28802
650.75         67.3065
651.18        67.50129
651.61        67.60602
652.03        67.57423
652.46        67.57249
652.89        67.67084
653.32        67.53236
653.74        67.44376
654.17        67.66023
654.60        68.26876
655.03        67.54191
655.46        67.25235
655.88         67.5779
656.31        69.90519
656.74        70.76656
657.16        69.86301
657.59        68.75647
658.02        67.76788
658.45        68.02895
658.87        68.08912
659.30        68.08054
659.73        67.75553
660.15        67.96251
660.58        67.69145
661.01        67.77324
661.44         67.8234
661.86        67.78857
662.29        67.64706
662.72        67.37712
663.14        67.12706
663.57        67.29133
664.00        67.78329
664.42        68.00918
664.85        67.92339
665.27        67.85089
665.70        67.82379
666.13        67.75842
666.55        67.67393
666.98        67.58073
667.41        67.49946
667.83        67.46655
668.26        67.48125
668.69        67.54749
669.11        67.63045
669.54        67.67698
669.96        67.68134
670.39        67.60382
670.82        67.50755
671.24        67.58362
671.67        67.79642
672.09        67.90362
672.52        67.89603
672.94        67.85104
673.37        67.80613
673.80        67.80125
674.22        67.84716
674.65        67.84258
675.07        67.80556
675.50        67.79127
675.92        67.81257
676.35        67.83459
676.77         67.8609
677.20        67.90546
677.62        67.95278
678.05        67.95763
678.47        67.91202
678.90         67.8336
679.32        67.76104
679.75        67.75687
680.17        67.82922
680.60        68.00571
681.02        68.19947
681.45        68.18306
681.87        67.98985
682.30        67.78522
682.72        67.66717
683.15        67.77337
683.57        68.05704
684.00        68.15402
684.42        68.06303
684.85        68.10458
685.27        68.26443
685.70        68.32903
686.12        68.28432
686.54        68.26575
686.97         68.2788
687.39        68.22044
687.82        68.08282
688.24        67.99693
688.66        68.24069
689.09        67.78318
689.51        68.13213
689.94        68.10063
690.36        68.11749
690.78        68.14078
691.21        68.18754
691.63        68.25127
692.06        68.31529
692.48        68.38565
692.90        68.42829
693.33        68.38168
693.75        68.24723
694.17         68.0578
694.60        67.85075
695.02        67.72983
695.44        67.71641
695.87        67.74754
696.29        67.81718
696.71        68.01172
697.14        68.24654
697.56        68.29655
697.98        68.17056
698.41        68.14621
698.83        68.21515
699.25        68.23716
699.68        68.20193
700.10        68.22187
700.52        68.29125
700.94        68.38915
701.37        68.46517
701.79        68.47144
702.21        68.38074
702.64        68.22861
703.06        68.06881
703.48        68.00436
703.90        68.06185
704.33        68.20321
704.75        68.37653
705.17        68.47478
705.59        68.46958
706.01        68.36685
706.44         68.2244
706.86        68.26727
707.28        68.32854
707.70         68.5037
708.12        68.67901
708.55         68.7867
708.97        68.78392
709.39        68.64506
709.81        68.44109
710.23        68.35681
710.66        68.42882
711.08         68.5955
711.50        68.77476
711.92        68.88123
712.34        68.88939
712.76        68.82513
713.19        68.73056
713.61        68.72305
714.03         68.8062
714.45        68.94221
714.87        69.08434
715.29        69.16309
715.71        69.15961
716.13        69.10081
716.56         68.9922
716.98        68.91666
717.40        68.87521
717.82         68.8586
718.24        68.87186
718.66        68.92303
719.08        69.00677
719.50        69.11501
719.92        69.23356
720.34         69.3373
720.76         69.4138
721.19        69.45712
721.61         69.4675
722.03        69.41872
722.45         69.3136
722.87         69.1624
723.29         69.0099
723.71        68.92645
724.13        68.93408
724.55        69.02448
724.97        69.15562
725.39        69.25294
725.81        69.29424
726.23        69.29144
726.65        69.28859
727.07        69.35951
727.49        69.51041
727.91        69.70827
728.33        69.88138
728.75        69.90385
729.17        69.75204
729.59        69.50815
730.01        69.24335
730.43        68.99996
730.85        68.84844
731.27        68.90869
731.69         69.1349
732.10        69.31178
732.52        69.39169
732.94        69.54192
733.36        69.72733
733.78        69.72543
734.20        69.50758
734.62        69.61526
735.04        69.05312
735.46        69.27284
735.88        69.82266
736.30        69.92246
736.72        69.58058
737.13        69.51296
737.55        69.72948
737.97        69.86681
738.39        69.88181
738.81        69.78648
739.23        69.62659
739.65        69.65589
740.06        69.80611
740.48        69.82101
740.90        69.65362
741.32        69.52762
741.74        69.40782
742.16        69.41877
742.57        69.55104
742.99        69.81453
743.41        70.09321
743.83        70.10989
744.25        69.86818
744.67        69.59476
745.08        69.41914
745.50        69.35768
745.92        69.46358
746.34        69.77615
746.75        70.15477
747.17         70.3272
747.59        70.23958
748.01         69.9521
748.42        69.60796
748.84        69.47823
749.26        69.59184
749.68        69.77809
750.09        69.94453
750.51        69.99842
750.93        69.93518
751.35        69.94169
751.76        70.03088
752.18        69.99839
752.60        69.83877
753.01        69.94043
753.43        69.80468
753.85        69.84282
754.27        69.90751
754.68        70.01292
755.10        70.12566
755.52        70.19642
755.93        70.22721
756.35        70.22871
756.77        70.18816
757.18        70.22629
757.60        70.37571
758.02        70.31773
758.43        70.04797
758.85        70.73282
759.26        70.46587
759.68        70.63975
760.10        70.81492
760.51        69.77542
760.93        69.86031
761.34        69.99738
761.76        70.32256
762.18        70.42757
762.59        70.22984
763.01        70.28178
763.42        70.61893
763.84        70.76485
764.26        70.74094
764.67        70.81496
765.09        70.97329
765.50        70.96735
765.92        70.81413
766.33        70.55871
766.75         70.2507
767.16         70.1337
767.58        70.20785
768.00        70.48915
768.41        70.85101
768.83        70.90035
769.24        70.66616
769.66        70.47542
770.07        70.38882
770.49         70.4959
770.90        70.73587
771.32        70.74511
771.73        70.56149
772.15        70.53159
772.56        70.67254
772.97        70.81587
773.39        70.89713
773.80        70.84703
774.22        70.70984
774.63        70.87034
775.05        71.24364
775.46        71.41807
775.88        71.32422
776.29        71.24035
776.70         71.2021
777.12        71.16206
777.53        71.16064
777.95        71.20023
778.36        71.27024
778.77        71.33037
779.19        71.36751
779.60        71.39273
780.02        71.42427
780.43        71.50507
780.84        71.61102
781.26        71.76495
781.67        71.97246
782.09        71.95699
782.50        71.63429
782.91        72.04252
783.33        71.36246
783.74        71.33182
784.15        71.41938
784.57        71.51155
784.98        71.59045
785.39        71.84597
785.81        72.18636
786.22        72.20554
786.63        71.95639
787.04        71.88667
787.46        72.03542
787.87         72.1448
788.28        72.18447
788.70        72.22359
789.11        72.23622
789.52        72.17019
789.93        72.08383
790.35        72.15446
790.76        72.37675
791.17        72.48501
791.58        72.43845
792.00        72.41639
792.41        72.44126
792.82         72.2776
793.23        72.05056
793.65        72.22346
794.06        72.73571
794.47        73.06962
794.88        73.13364
795.29        72.97965
795.71        73.04836
796.12        72.65525
796.53        72.07149
796.94        72.04199
797.35        72.50746
797.76        72.52776
798.18        72.14676
798.59        72.16853
799.00        72.60919
799.41         72.9972
799.82        73.20693
800.23        73.27173
800.64        73.15888
801.06        72.83723
801.47         72.4586
801.88        72.20253
802.29        72.13785
802.70         72.2409
803.11        72.44048
803.52        72.59869
803.93        72.66659
804.34        72.67141
804.75        72.68653
805.17        72.79487
805.58        73.03294
805.99        73.40689
806.40        73.77018
806.81        73.71782
807.22        73.29131
807.63        72.93983
808.04         72.7748
808.45        72.66415
808.86         72.6506
809.27         72.8846
809.68        73.26437
810.09         73.4972
810.50        73.51878
810.91        73.41747
811.32         73.2644
811.73        73.19541
812.14        73.25028
812.55        73.31908
812.96        73.38481
813.37        73.53907
813.78        73.71281
814.19        73.68612
814.60        73.46573
815.01        73.26521
815.42        73.10915
815.83        72.86404
816.24        72.62767
816.65        72.65938
817.05        72.99984
817.46        73.51624
817.87        74.07497
818.28        74.42625
818.69        74.50615
819.10         74.3886
819.51        74.13915
819.92        73.88638
820.33        73.70261
820.74        73.55626
821.14        73.48222
821.55         73.5694
821.96        73.80036
822.37        74.16442
822.78        74.56905
823.19        74.82854
823.60        74.88158
824.00        74.79005
824.41        74.57345
824.82        74.37267
825.23         74.2364
825.64        74.13072
826.04        74.09273
826.45        74.14287
826.86        74.28178
827.27        74.50497
827.68        74.73135
828.08        74.84701
828.49          74.753
828.90        74.52088
829.31        74.22941
829.72        74.02082
830.12        73.96647
830.53        73.98599
830.94        74.06264
831.35        74.12913
831.75        74.18014
832.16        74.18987
832.57        74.18877
832.97        74.18761
833.38        74.18398
833.79        74.17899
834.20        74.16263
834.60         74.1208
835.01        74.06754
835.42        73.99987
835.82        73.97552
836.23        74.01088
836.64        74.13705
837.04        74.36446
837.45         74.5835
837.86        74.71342
838.26        74.74345
838.67        74.68102
839.08        74.60831
839.48        74.64701
839.89        74.82023
840.29        75.07711
840.70        75.34978
841.11        75.53647
841.51        75.62241
841.92        75.60497
842.33        75.51227
842.73        75.38541
843.14        75.20234
843.54        74.98873
843.95        74.78147
844.35        74.66105
844.76        74.63304
845.17        74.68276
845.57        74.77422
845.98        74.79896
846.38        74.75357
846.79        74.64709
847.19        74.51741
847.60        74.37517
848.00        74.26413
848.41         74.1498
848.81         74.0953
849.22        74.13059
849.62        74.28857
850.03        74.51958
850.43        74.78735
850.84        74.95034
851.24        75.02186
851.65        74.97655
852.05        74.89971
852.46        74.83646
852.86        74.81369
853.27        74.83681
853.67        74.82765
854.07        74.84919
854.48        74.85624
854.88         74.8849
855.29        74.83124
855.69        74.70934
856.10        74.42953
856.50        74.08436
856.90        73.70787
857.31        73.38727
857.71        73.20161
858.12        73.08578
858.52        73.05499
858.92        72.99902
859.33        72.87587
859.73        72.74766
860.13         72.6282
860.54        72.56727
860.94        72.60844
861.34        72.68519
861.75        72.72971
862.15        72.70812
862.55        72.57906
862.96        72.38132
863.36        72.12012
863.76        71.79154
864.17        71.41773
864.57          71.031
864.97        70.72569
865.38        70.62715
865.78        70.80106
866.18        71.18917
866.58         71.6611
866.99        71.98212
867.39        72.10431
867.79        72.05927
868.19        71.93944
868.60         71.8632
869.00        71.85895
869.40        71.90318
869.80         71.9948
870.21        72.14071
870.61        72.38615
871.01        72.65997
871.41        72.88313
871.81        72.93614
872.22        72.77708
872.62        72.47189
873.02        72.09844
873.42        71.81125
873.82         71.6803
874.22        71.67383
874.63        71.77811
875.03        71.93796
875.43        72.12944
875.83        72.35302
876.23        72.56789
876.63        72.70277
877.03        72.73137
877.44        72.65305
877.84        72.49117
878.24        72.27048
878.64        72.01965
879.04        71.75154
879.44        71.51606
879.84        71.36989
880.24        71.32403
880.64        71.37873
881.04        71.48994
881.44        71.57465
881.84        71.60167
882.24        71.56505
882.65            71.5
883.05        71.57658
883.45        71.77175
883.85        72.04524
884.25        72.26292
884.65        72.22619
885.05        71.91673
885.45        71.41057
885.85        70.89374
886.25        70.68655
886.65        70.87212
887.05         71.3418
887.45        71.91203
887.85        72.30469
888.25         72.4278
888.65        72.34223
889.04        72.11756
889.44        71.91717
889.84        71.77592
890.24        71.65286
890.64        71.48849
891.04        71.20031
891.44        70.79004
891.84         70.3178
892.24        69.89856
892.64        69.68976
893.04        69.73048
893.44        69.98338
893.83        70.35381
894.23        70.62157
894.63        70.74847
895.03        70.76002
895.43        70.76196
895.83        70.93063
896.23        71.28893
896.63        71.76685
897.02        72.18732
897.42        72.33601
897.82        72.17008
898.22        71.77479
898.62        71.34412
899.01        71.21042
899.41        71.43417
899.81        71.91912
900.21        72.48045
900.61        72.80755
901.00        72.80476
901.40        72.60045
901.80        72.29663
902.20        72.06596
902.59        71.98203
902.99        71.96288
903.39         72.0312
903.79        72.21679
904.18        72.48945
904.58        72.84468
904.98        73.16798
905.38        73.29033
905.77          73.175
906.17        72.86967
906.57        72.48507
906.96        72.24303
907.36        72.19194
907.76        72.30895
908.15        72.49886
908.55         72.5205
908.95        72.35252
909.34        72.04105
909.74        71.78088
910.14         71.8117
910.53        72.17937
910.93        72.77982
911.33        73.39587
911.72        73.66785
912.12        73.49764
912.52        73.03316
912.91        72.48799
913.31        72.18871
913.70         72.2112
914.10        72.46098
914.49        72.84825
914.89        73.14466
915.29        73.28274
915.68        73.30685
916.08        73.30038
916.47        73.38935
916.87        73.60619
917.26        73.87015
917.66        74.06789
918.05        73.99957
918.45        73.62897
918.84        73.06345
919.24        72.43797
919.64         72.0528
920.03        72.01259
920.42        72.24017
920.82        72.60242
921.21        72.87434
921.61        72.97066
922.00        72.94317
922.40        72.90331
922.79        73.11983
923.19        73.58875
923.58        74.24095
923.98        74.77509
924.37        74.80704
924.77        74.27119
925.16        73.29488
925.55        72.23969
925.95        71.72549
926.34        71.92442
926.74         72.6342
927.13         73.5591
927.52         74.1176
927.92        74.17256
928.31        73.89002
928.70        73.47552
929.10        73.23309
929.49        73.25002
929.89        73.37272
930.28        73.57716
930.67        73.72094
931.07        73.73594
931.46        73.71401
931.85        73.61344
932.24        73.38459
932.64        73.04517
933.03        72.61836
933.42        72.21832
933.82        72.03253
934.21        72.10458
934.60        72.38336
934.99        72.76762
935.39        73.05537
935.78        73.21162
936.17        73.27719
936.56        73.28665
936.96        73.29475
937.35        73.37498
937.74        73.46596
938.13        73.57543
938.53        73.73112
938.92        73.93219
939.31        74.15949
939.70        74.37262
940.09        74.49152
940.49        74.45809
940.88        74.32085
941.27        74.08812
941.66        73.78023
942.05        73.42682
942.44        73.06327
942.84        72.72884
943.23        72.42084
943.62        72.18428
944.01         72.0183
944.40        71.99741
944.79        72.23429
945.18        72.71279
945.57        73.35423
945.97        73.93898
946.36        74.23238
946.75        74.14438
947.14        73.72732
947.53        73.12798
947.92        72.62385
948.31         72.3219
948.70        72.18002
949.09         72.0922
949.48        71.87447
949.87        71.50041
950.26        71.05672
950.65        70.69402
951.04        70.63286
951.43        70.91639
951.82        71.45938
952.21        72.08837
952.60        72.51303
952.99        72.62461
953.38        72.47897
953.77        72.20291
954.16        72.00121
954.55        71.93093
954.94        71.94196
955.33        71.92757
955.72        71.71774
956.11        71.28015
956.50        70.67942
956.89        70.09874
957.28        69.83093
957.66        69.99071
958.05        70.50198
958.44        71.12726
958.83        71.48296
959.22        71.45762
959.61        71.08981
960.00         70.6813
960.39        70.72445
960.78        71.29216
961.16        72.27148
961.55        73.09028
961.94        72.88424
962.33        71.51345
962.72        69.36447
963.11        67.18304
963.49        66.02955
963.88        66.14825
964.27        67.24462
964.66         68.8543
965.04        70.12669
965.43        70.64377
965.82        70.66766
966.21        70.45562
966.60        70.43158
966.98         70.7187
967.37        71.09054
967.76        71.40549
968.15        71.42828
968.53        71.11211
968.92        70.62425
969.31        70.07615
969.69        69.56425
970.08        69.15598
970.47        68.85004
970.86         68.8323
971.24        69.42763
971.63        70.54257
972.02        71.97614
972.40        73.41163
972.79        74.29993
973.17        74.61847
973.56        74.44339
973.95        73.90004
974.33        73.19839
974.72        72.45956
975.11        71.63978
975.49        70.85808
975.88         70.3368
976.26        70.14887
976.65         70.3044
977.04        70.62441
977.42        70.73862
977.81        70.49055
978.19        69.90717
978.58        69.36527
978.96         69.4725
979.35        70.32315
979.74        71.75421
980.12        73.21107
980.51        73.59483
980.89        72.78901
981.28        70.99962
981.66        69.00226
982.05        68.24828
982.43        69.12201
982.82        71.12364
983.20        73.43439
983.59        74.63396
983.97        74.45315
984.35         73.2514
984.74        71.57137
985.12        70.36615
985.51        70.00083
985.89        70.24238
986.28        70.78813
986.66        71.30058
987.04        71.62329
987.43        71.81207
987.81        72.08542
988.20        72.67108
988.58        73.61903
988.96        74.81658
989.35        75.69447
989.73        75.51404
990.12        74.05709
990.50        71.34451
990.88        68.25855
991.27         66.8861
991.65        67.92068
992.03        70.73903
992.42        73.57871
992.80        74.48946
993.18        73.02073
993.56        69.54583
993.95        65.22987
994.33        63.07083
994.71        64.40015
995.10        67.76241
995.48        71.38374
995.86        73.42715
996.24        73.72452
996.63         72.8194
997.01         71.2826
997.39        70.23747
997.77        70.23493
998.15        70.86724
998.54        71.61109
998.92        71.81419
999.30        71.31047
999.68        70.37163
1000.06        69.36931
1000.45        68.88221
1000.83        69.12761
1001.21        69.76913
1001.59        70.43696
1001.97        70.59353
1002.35        70.11516
1002.73        69.27209
1003.12        68.09125
1003.50        66.58865
1003.88        65.08949
1004.26        63.59325
1004.64         62.7522
1005.02        63.38527
1005.40        65.46737
1005.78        68.82611
1006.16        72.27652
1006.54        73.61576
1006.92        72.25414
1007.30        68.77072
1007.69        64.80005
1008.07        63.06768
1008.45        64.33781
1008.83        67.67894
1009.21        71.56181
1009.59        73.79978
1009.97        73.79436
1010.35        72.07327
1010.73        69.29738
1011.11        67.22253
1011.49        66.84438
1011.86        67.71236
1012.24        69.04143
1012.62        70.02377
1013.00        70.42329
1013.38        70.60751
1013.76        70.73872
1014.14        70.98835
1014.52        71.42799
1014.90        71.90138
1015.28        72.37697
1015.66        72.85355
1016.04        73.28903
1016.41        73.80632
1016.79         74.1113
1017.17        74.13517
1017.55        73.89444
1017.93        73.44433
1018.31        73.05991
1018.69        73.16376
1019.06        73.89148
1019.44         75.1748
1019.82        76.63052
1020.20        77.42932
1020.58        77.23805
1020.95        76.20232
1021.33        74.89546
1021.71        74.00666
1022.09        73.61862
1022.46        73.50272
1022.84        73.25274
1023.22        71.96575
1023.60        69.38171
1023.97        65.54344
1024.35        61.36611
1024.73        58.58355
