SpectraSmart Spectrum 2.9.0.0
--------- Device Information -----------
Spectrum Name :  反射率_0
Saving Time :  2024/05/01 16:12:29
Spectro-Module Model Name : SE2030-DUVN
Spectro-Module Serial Number : OS361AC55029948
Wavelength Start : 200
Wavelength End : 1025
Wavelength Unit : Wavelength(nm)
Spectrum Unit : Reflectance(%)
-----------Spectrum Setting ------------
Integration Time : 20ms
Average : 10
Boxcar : 0
Background removal :  enabled
linearity correction :  enabled
SC :  disabled
Intensity correction :  disabled
DWT denoise :  enabled
savitzky-golay :  disabled
FFT :  disabled
Running average :  disabled
Kalman :  disabled
High pass :  disabled
---------------BEGIN--------------------
Wavelength(nm)             Reflectance(%)
200.29               0
200.75        36.80138
201.21        117.3188
201.67       -11.43525
202.13         20.2953
202.58        34.30819
203.04        44.77956
203.50        52.38411
203.96        57.23089
204.42        61.45796
204.88        70.47718
205.34        321.7305
205.80       -2.952921
206.26       -13.96632
206.72       -69.37529
207.18        -389.238
207.64        565.4966
208.10        243.9329
208.55        171.5747
209.01        137.6334
209.47        117.1794
209.93        103.1714
210.39        90.70878
210.85        84.17837
211.31        96.32005
211.77        176.4774
212.23       -538.2541
212.69       -112.1705
213.14       -86.60851
213.60       -118.9808
214.06        393.5328
214.52        49.17846
214.98        33.70411
215.44        43.85739
215.90        93.85493
216.36         925.877
216.81       -379.9782
217.27       -518.5909
217.73          1156.6
218.19        251.1867
218.65        176.6856
219.11        179.2338
219.57        252.4901
220.02        549.7702
220.48        264.0237
220.94        104.9137
221.40        69.57221
221.86        59.83622
222.32        59.21164
222.77        63.74989
223.23        73.57494
223.69        86.99114
224.15        92.41588
224.61        86.09883
225.06        75.90058
225.52        69.51714
225.98        69.61121
226.44        75.60622
226.90         87.1549
227.36        102.4538
227.81        110.7563
228.27        107.1577
228.73        98.46822
229.19        90.81874
229.65        87.47192
230.10        87.82908
230.56         90.5906
231.02         94.7459
231.48        97.38056
231.93         96.9043
232.39         95.3804
232.85        93.48742
233.31        91.70711
233.77        90.35663
234.22        89.19079
234.68        88.96509
235.14        90.74924
235.60        95.02052
236.05        102.7646
236.51        114.0872
236.97         125.906
237.43        133.6538
237.88        135.5277
238.34        133.0787
238.80        132.4207
239.26        135.9988
239.71        144.7074
240.17          157.16
240.63        164.4631
241.08        157.8845
241.54        141.8115
242.00        128.3398
242.46        126.5398
242.91          138.59
243.37        167.2453
243.83        214.6337
244.28        241.3949
244.74         216.213
245.20        176.0764
245.66        145.7658
246.11         128.928
246.57        119.9887
247.03        113.2483
247.48        105.2296
247.94        90.99003
248.40        72.44176
248.85        56.67409
249.31        51.56636
249.77        58.17861
250.22        70.43272
250.68        83.60786
251.14        94.85417
251.59        104.4853
252.05        115.6794
252.51        134.9067
252.96        180.8291
253.42        272.2578
253.88         318.013
254.33        271.0034
254.79        224.4618
255.25        195.7665
255.70        176.1425
256.16        163.0757
256.62        153.4001
257.07        145.7938
257.53        141.3585
257.99        138.7976
258.44        137.7947
258.90        139.4648
259.35        142.4262
259.81        146.4593
260.27        150.0961
260.72        151.5111
261.18        151.0595
261.63        148.8094
262.09        146.0617
262.55        143.1381
263.00        140.0022
263.46        137.0674
263.91        133.9149
264.37        130.9384
264.83        128.0428
265.28        125.2439
265.74        122.8952
266.19        120.8173
266.65        119.1894
267.11        117.8069
267.56        116.6679
268.02        115.9627
268.47         115.558
268.93        115.3494
269.38        114.9806
269.84        113.8882
270.30        111.9937
270.75        109.4503
271.21        106.7134
271.66        104.2751
272.12        102.3503
272.57        100.6712
273.03        99.14388
273.48        97.45448
273.94        95.64449
274.39        93.79321
274.85        91.99844
275.31        90.15141
275.76        88.24478
276.22        86.42469
276.67        84.75388
277.13        83.63158
277.58        82.90124
278.04        82.49593
278.49         82.0461
278.95        81.25385
279.40        79.95806
279.86         78.4241
280.31        76.70554
280.77        75.13966
281.22        73.67985
281.68        72.37726
282.13        71.13413
282.59        70.03824
283.04        69.00852
283.50        68.16989
283.95        67.41647
284.41        66.71624
284.86        66.03576
285.32        65.43835
285.77        65.01685
286.22        65.03979
286.68        65.49091
287.13        66.20556
287.59        66.90311
288.04        67.06879
288.50        66.64758
288.95        65.74675
289.41        64.72322
289.86        63.90248
290.32        63.46122
290.77        63.27658
291.22        63.26033
291.68        63.23772
292.13        63.16747
292.59        63.18895
293.04         63.4135
293.50        64.07633
293.95        65.17434
294.40        66.60321
294.86        68.20243
295.31        69.73043
295.77        71.09786
296.22        72.32496
296.68        73.45399
297.13         74.5059
297.58        75.55373
298.04        76.63165
298.49         77.7652
298.95        79.06059
299.40        80.49308
299.85        82.02859
300.31        83.70995
300.76        85.54083
301.21        87.52596
301.67        89.65554
302.12        91.70041
302.58        93.36024
303.03         94.5269
303.48        95.34611
303.94         96.1627
304.39        97.31732
304.84        98.97212
305.30         100.999
305.75        103.1684
306.20         105.179
306.66        106.9329
307.11        108.4335
307.57        109.7868
308.02        110.9892
308.47        112.1152
308.93        113.1575
309.38        114.0652
309.83        114.8905
310.29        115.6786
310.74        116.4293
311.19        117.1846
311.65        117.9673
312.10         118.753
312.55        119.5325
313.00        120.3501
313.46        121.2757
313.91        122.2838
314.36        123.3399
314.82        124.2574
315.27        124.7638
315.72        124.7967
316.18        124.4887
316.63        124.0304
317.08         123.806
317.53        123.9167
317.99        124.2669
318.44        124.7284
318.89        125.0452
319.35        125.1496
319.80        125.1534
320.25        125.1479
320.70        125.2813
321.16        125.5728
321.61        125.9624
322.06        126.4126
322.51        126.8975
322.97        127.3495
323.42        127.8193
323.87        128.1716
324.32         128.218
324.78        127.9299
325.23        127.4169
325.68        126.8546
326.13        126.5556
326.59        126.5907
327.04        126.9535
327.49        127.5108
327.94        128.0547
328.39        128.4961
328.85        128.8149
329.30        129.1604
329.75        129.5925
330.20         130.125
330.66        130.6829
331.11        131.1863
331.56        131.3589
332.01        131.1784
332.46         130.739
332.92        130.3034
333.37        130.4366
333.82        131.2342
334.27        132.5788
334.72        134.1448
335.17          135.34
335.63        135.9273
336.08        136.0989
336.53        136.0694
336.98        136.2847
337.43        136.8728
337.88        137.6929
338.34        138.4934
338.79        138.9783
339.24          139.02
339.69        138.7523
340.14        138.4275
340.59        138.4189
341.05         138.814
341.50        139.5262
341.95        140.3195
342.40        140.8165
342.85        140.9321
343.30        140.7967
343.75        140.6563
344.20        140.8897
344.66        141.5616
345.11        142.5164
345.56        143.5378
346.01        144.2619
346.46         144.584
346.91        144.6573
347.36        144.5757
347.81        144.4775
348.26        144.4375
348.72        144.4047
349.17        144.4664
349.62         144.848
350.07        145.5197
350.52        146.3626
350.97        147.0806
351.42        147.1801
351.87        146.5734
352.32        145.4842
352.77        144.1046
353.22        142.7407
353.67        141.5378
354.13        140.4403
354.58        139.5863
355.03        139.3121
355.48         139.612
355.93        140.4217
356.38        141.2246
356.83        141.1448
357.28        140.0146
357.73        138.0992
358.18        136.0672
358.63        134.9224
359.08        134.8468
359.53        135.5155
359.98        136.3459
360.43        136.3712
360.88        135.3357
361.33        133.5802
361.78        131.5908
362.23        130.0449
362.68        129.1141
363.13        128.5893
363.58        128.1747
364.03        127.4317
364.48        126.2442
364.93        124.7473
365.38         123.243
365.83        122.1579
366.28        121.5603
366.73        121.3185
367.18        121.0198
367.63         120.024
368.08        118.2515
368.53         115.962
368.98        113.7146
369.43        112.3101
369.88        111.8935
370.33        112.2106
370.78        112.7779
371.23        112.7501
371.68        111.8824
372.13        110.4585
372.58        108.8675
373.03        107.6845
373.48        107.0442
373.93        106.7174
374.38        106.5164
374.83        106.1634
375.28        105.5605
375.72        104.8178
376.17        103.9835
376.62         103.038
377.07        102.0179
377.52        100.9202
377.97         99.8798
378.42        99.12317
378.87        98.68468
379.32        98.49863
379.77        98.39215
380.22        98.08607
380.67         97.5127
381.11        96.75679
381.56         95.9403
382.01        95.29475
382.46         94.8928
382.91         94.6624
383.36        94.51121
383.81        94.29889
384.26        93.97883
384.71        93.59269
385.15        93.17641
385.60        92.83556
386.05        92.57224
386.50         92.3499
386.95        92.10567
387.40        91.76157
387.85        91.30272
388.29        90.70033
388.74        90.13252
389.19        89.64027
389.64        89.23717
390.09        88.89726
390.54        88.53912
390.98        88.04918
391.43        87.49294
391.88        86.81948
392.33        86.16182
392.78         85.9325
393.23        86.04307
393.67        85.84505
394.12        85.42027
394.57        85.33849
395.02        85.46615
395.47        85.00257
395.91        84.10768
396.36        83.66206
396.81        83.73113
397.26        83.89701
397.71        84.00235
398.15        83.91718
398.60        83.68579
399.05        83.30379
399.50        82.89274
399.95        82.65689
400.39         82.6366
400.84        82.59354
401.29        82.46731
401.74        82.38749
402.18        82.24078
402.63        81.57066
403.08         80.5869
403.53        79.99277
403.97         79.8457
404.42        79.81905
404.87        79.81998
405.32        79.78712
405.76        79.64896
406.21        79.59873
406.66        79.61331
407.11        79.27988
407.55        78.74628
408.00        79.01787
408.45        79.30428
408.90        79.50391
409.34        79.23911
409.79        78.60599
410.24        77.80737
410.68        77.31759
411.13        77.22201
411.58        77.23853
412.03        77.28737
412.47        77.36143
412.92         77.3898
413.37        77.39573
413.81        77.37073
414.26        77.36776
414.71        77.37232
415.15         77.3698
415.60          77.351
416.05         77.3734
416.49        77.44062
416.94        77.53037
417.39        77.58289
417.83        77.48701
418.28        77.23837
418.73        76.88837
419.17        76.52276
419.62        76.29767
420.07        76.24227
420.51        76.24426
420.96        76.31825
421.41         76.4374
421.85        76.48602
422.30         76.5162
422.74        76.49715
423.19        76.14687
423.64        75.82491
424.08        76.20562
424.53         77.1652
424.98         77.6008
425.42        77.36351
425.87        77.27536
426.31        77.38333
426.76        76.79562
427.21        75.87691
427.65        76.32772
428.10        77.71594
428.54        77.96037
428.99        77.11627
429.44        76.08346
429.88        75.28617
430.33        75.95264
430.77         77.4604
431.22        77.30936
431.66        75.71694
432.11        75.07572
432.56        75.50498
433.00        76.06944
433.45        76.59889
433.89        76.26738
434.34        75.36377
434.78        77.33248
435.23        76.87064
435.67        77.05341
436.12        76.53654
436.57        76.85479
437.01        77.77998
437.46        78.71159
437.90         77.9635
438.35        77.68952
438.79        77.65816
439.24        77.27852
439.68        76.73608
440.13        76.70109
440.57        77.20116
441.02         77.5117
441.46        77.50919
441.91        77.99448
442.35        78.75377
442.80        78.01188
443.24        77.98874
443.69        77.66113
444.13        77.72487
444.58        77.73581
445.02        77.69008
445.47        77.87742
445.91        78.22908
446.36        78.48107
446.80        78.56276
447.24        78.88998
447.69        78.84748
448.13        78.92984
448.58        78.97342
449.02        78.95348
449.47        78.90096
449.91        78.83815
450.36          78.798
450.80        78.75051
451.25        78.69335
451.69        78.57018
452.13        78.38974
452.58        78.18048
453.02        77.96243
453.47        77.82426
453.91         77.7632
454.36        77.73065
454.80         77.7345
455.24        77.72476
455.69        77.58411
456.13        77.41106
456.58        77.46565
457.02         76.1927
457.46        76.91361
457.91        77.19556
458.35        77.73188
458.79        77.72772
459.24        77.14934
459.68        76.49776
460.13        76.08907
460.57        74.91894
461.01        75.21255
461.46         75.2494
461.90        75.47101
462.34        75.52829
462.79        74.96281
463.23        75.04547
463.68        75.51287
464.12        75.61372
464.56        75.30545
465.01        75.08308
465.45        74.95728
465.89        74.94635
466.34        74.89943
466.78        75.03721
467.22          74.126
467.67        73.84185
468.11        73.92422
468.55        74.01249
468.99         74.0405
469.44        74.03397
469.88        73.98911
470.32        73.89169
470.77        73.77237
471.21        73.69353
471.65         73.6512
472.10        73.65594
472.54        73.67343
472.98         73.6217
473.42         73.4748
473.87        73.50793
474.31        73.35583
474.75         73.1843
475.20        72.96278
475.64        73.02312
476.08        73.26859
476.52        73.23441
476.97        72.87553
477.41        72.99896
477.85        71.84077
478.29        72.73829
478.74        72.85433
479.18        72.85268
479.62        72.18669
480.06        72.02727
480.50        72.38587
480.95        71.80371
481.39        72.81841
481.83         71.6458
482.27        71.74377
482.72         72.4938
483.16        71.81847
483.60        71.98068
484.04        72.26578
484.48        72.30089
484.93        72.42679
485.37        73.01667
485.81        72.49585
486.25        73.84169
486.69        73.84178
487.14         71.0443
487.58        69.93858
488.02        72.26616
488.46        71.69496
488.90         70.7666
489.34        71.73801
489.79         71.5313
490.23        71.57556
490.67         71.2785
491.11        70.90469
491.55        70.93726
491.99        71.26868
492.43         71.3269
492.88        71.06918
493.32        70.88277
493.76        70.81205
494.20        70.77431
494.64        70.76041
495.08        70.78366
495.52        70.87743
495.96        70.94918
496.41        70.86144
496.85        71.34245
497.29        70.90527
497.73        70.47361
498.17         70.4748
498.61        70.35786
499.05        69.86265
499.49         70.0418
499.93        70.58927
500.37        70.77411
500.82        70.58231
501.26        70.47828
501.70        70.61776
502.14        70.76205
502.58        70.50141
503.02        70.38279
503.46        70.29074
503.90        70.17477
504.34        70.09158
504.78        70.14462
505.22        70.33464
505.66        70.65603
506.10        70.98336
506.54        71.02219
506.98         70.7164
507.42        70.46436
507.86        69.87952
508.30        69.63665
508.74         69.6374
509.18        69.82056
509.62        70.09466
510.06        70.31712
510.50        70.43531
510.94        70.48396
511.38        70.47387
511.82        70.42165
512.26        70.33648
512.70        70.19917
513.14        70.03092
513.58        69.87586
514.02        69.74894
514.46        69.65542
514.90        69.57104
515.34        69.46173
515.78        69.30455
516.22        69.13864
516.66        69.01336
517.10        69.01257
517.54        69.14629
517.98        69.38026
518.42        69.64237
518.86          69.815
519.30        69.86337
519.74        69.81648
520.18        69.72186
520.62        69.66079
521.06        69.65379
521.50         69.6685
521.93        69.68533
522.37        69.66301
522.81        69.59883
523.25        69.52343
523.69        69.43289
524.13        69.31373
524.57        69.17741
525.01        69.02926
525.45        68.92764
525.89        68.96529
526.32        69.14927
526.76        69.44138
527.20        69.74763
527.64        69.93079
528.08        69.96191
528.52        69.84045
528.96         69.6232
529.40        69.53483
529.83        69.59364
530.27        69.34383
530.71        69.37035
531.15        69.35405
531.59        69.46563
532.03         69.6233
532.46        69.76659
532.90        69.83515
533.34         69.8052
533.78        69.64302
534.22         69.4184
534.66        69.36314
535.09        69.43376
535.53        69.35006
535.97        69.11285
536.41        68.97145
536.85        68.93473
537.28        68.86245
537.72        68.76997
538.16        68.74215
538.60        68.77859
539.04        68.85069
539.47         68.9277
539.91        68.99223
540.35        69.02254
540.79        69.07472
541.22        69.13372
541.66        69.06061
542.10        69.03106
542.54        68.91975
542.97        68.81573
543.41        68.80711
543.85        68.89249
544.29        69.04681
544.72        69.19128
545.16        69.24032
545.60        69.15993
546.04        68.97754
546.47        68.75652
546.91        68.61643
547.35         68.5978
547.79        68.63972
548.22        68.65433
548.66        68.68037
549.10        68.69585
549.53        68.32343
549.97        68.29604
550.41        68.27327
550.84        68.46133
551.28        68.77821
551.72         69.1395
552.15        69.33327
552.59        69.28957
553.03        69.39268
553.46        68.95222
553.90        68.85406
554.34        68.91687
554.77        68.85793
555.21        68.62663
555.65        69.05538
556.08        68.79182
556.52        68.70811
556.96        68.44284
557.39        68.25803
557.83        68.20576
558.27         68.1227
558.70        68.02991
559.14        68.29036
559.57        68.28783
560.01        68.61813
560.45        68.93224
560.88        68.89354
561.32         68.6117
561.75        68.20693
562.19         67.8949
562.63          68.208
563.06        68.91006
563.50        68.75459
563.93        67.87882
564.37        67.62235
564.80        67.99277
565.24        68.27249
565.68        68.34972
566.11         68.3917
566.55        68.40895
566.98        68.30788
567.42        68.19855
567.85        68.26695
568.29        68.49738
568.72        68.62564
569.16         68.7383
569.60        68.78886
570.03        68.65572
570.47        68.99919
570.90        69.27531
571.34        68.18366
571.77        68.84909
572.21        68.78352
572.64        69.02341
573.08        68.65644
573.51        68.58335
573.95        69.46732
574.38        68.79742
574.82        68.72602
575.25        69.34737
575.69        69.44809
576.12        69.20012
576.56        68.71736
576.99        68.93126
577.42        69.41499
577.86        69.39264
578.29         69.7508
578.73        70.34846
579.16        68.96166
579.60        68.60172
580.03        68.40926
580.47        69.26183
580.90        68.39838
581.33        69.37404
581.77        69.75608
582.20        70.15166
582.64        69.48205
583.07        69.62832
583.51        69.05279
583.94        68.64466
584.37        68.73947
584.81        69.38023
585.24        69.50362
585.68         69.1885
586.11        69.34798
586.54        69.32204
586.98        68.41809
587.41        67.96989
587.85        69.13377
588.28        69.31844
588.71         68.0145
589.15        69.09952
589.58        68.51986
590.01        68.31532
590.45         68.3054
590.88         68.6778
591.31        68.79762
591.75        68.53242
592.18        68.44104
592.61        67.97425
593.05        68.28527
593.48        68.51296
593.91        68.86227
594.35        68.59031
594.78        68.39477
595.21        68.02757
595.65         68.6831
596.08        68.55433
596.51        68.10587
596.94        67.88759
597.38        67.72874
597.81        68.02164
598.24        67.62803
598.68         68.3703
599.11        67.70521
599.54        68.66193
599.97        68.53927
600.41         68.2254
600.84        68.50918
601.27        68.34837
601.70         68.8035
602.14        68.95269
602.57        68.52817
603.00        68.11642
603.43        67.72368
603.87        67.99249
604.30        68.38931
604.73        67.93954
605.16        67.73074
605.60        67.79279
606.03        67.99586
606.46        68.20467
606.89        68.20135
607.32        67.62888
607.76        67.44339
608.19        67.57643
608.62        68.08019
609.05        67.96052
609.48        68.19351
609.92        67.68307
610.35        67.30917
610.78        68.31794
611.21        68.49677
611.64        68.02017
612.07        68.04379
612.50        68.50845
612.94        68.22451
613.37        68.04556
613.80        67.89109
614.23        67.66605
614.66        68.01549
615.09        67.76073
615.52        67.84102
615.96        67.85312
616.39        68.16006
616.82        67.89481
617.25        67.97428
617.68        68.10303
618.11        68.06818
618.54        67.84703
618.97         67.5376
619.40        67.28656
619.84        67.11636
620.27        67.11781
620.70        67.57907
621.13        68.38767
621.56        67.68989
621.99        67.14857
622.42        67.33272
622.85        67.67876
623.28        67.63299
623.71        67.29308
624.14        67.57609
624.57         67.5488
625.00        67.72828
625.43        67.77213
625.86        67.65596
626.29        67.60734
626.72        67.26244
627.15        67.31766
627.58        67.04187
628.01         66.6722
628.44        66.93723
628.87        67.25845
629.30        67.25752
629.73        67.04688
630.16        67.20208
630.59        67.21745
631.02        67.28505
631.45        67.22884
631.88        67.18262
632.31        67.14796
632.74        67.09858
633.17        67.05544
633.60        67.03578
634.03        67.04622
634.46        67.09323
634.89        67.15258
635.32        67.17819
635.75        67.15944
636.18        67.10288
636.61        67.04456
637.04        67.04888
637.47        67.13109
637.89        67.25365
638.32        67.33234
638.75        67.34926
639.18        67.29674
639.61        66.89523
640.04        66.73232
640.47        66.55923
640.90        66.55969
641.33         66.6544
641.76        66.77493
642.18        66.90485
642.61        67.01254
643.04        66.96686
643.47        66.72319
643.90         67.1551
644.33        66.82543
644.76        66.78475
645.18        66.67255
645.61        66.85738
646.04        67.23553
646.47        67.25827
646.90        66.96232
647.33        66.85619
647.75        66.95941
648.18        66.95832
648.61        66.86961
649.04        66.82857
649.47        66.83441
649.89        66.96207
650.32        67.12496
650.75        66.98122
651.18        66.62202
651.61        66.61262
652.03        66.95461
652.46        67.00759
652.89        66.74327
653.32        66.69512
653.74         67.0502
654.17        66.59011
654.60        66.99897
655.03            67.4
655.46        66.57648
655.88        67.04845
656.31        75.28806
656.74        74.32242
657.16        67.80568
657.59        65.70377
658.02          66.727
658.45         66.6154
658.87        67.10943
659.30         66.0571
659.73        66.35925
660.15        67.11965
660.58         66.9417
661.01        66.84959
661.44        66.37233
661.86        66.34218
662.29        66.72363
662.72        67.00037
663.14        67.12049
663.57        67.19449
664.00        67.22241
664.42        67.19499
664.85        67.11835
665.27        66.90798
665.70        66.64315
666.13        66.52161
666.55        66.58419
666.98        66.75515
667.41         66.9715
667.83        67.13756
668.26        67.20242
668.69        67.19428
669.11        67.15556
669.54        67.17861
669.96        67.27213
670.39        67.34056
670.82        67.37174
671.24        67.39628
671.67        67.40958
672.09        67.38018
672.52        67.32874
672.94        67.25474
673.37        67.16871
673.80        67.06751
674.22        66.97523
674.65        66.89774
675.07        66.85806
675.50        66.84461
675.92        66.85387
676.35        66.86633
676.77        66.87994
677.20         66.8924
677.62        66.91193
678.05        66.93987
678.47        66.97304
678.90        67.00999
679.32        67.03757
679.75        67.05931
680.17        67.06677
680.60         67.0649
681.02        67.05279
681.45        67.00618
681.87        66.93916
682.30        66.87415
682.72        66.84164
683.15        66.79865
683.57        66.78229
684.00        66.90497
684.42        67.12151
684.85        67.24352
685.27        67.22794
685.70        67.22363
686.12        67.22346
686.54        67.06208
686.97        66.80045
687.39        66.81949
687.82         67.0462
688.24        66.95081
688.66        66.59518
689.09        66.58782
689.51        66.93123
689.94        67.10475
690.36        67.09045
690.78        67.19209
691.21        67.41386
691.63        67.52126
692.06        67.56879
692.48        67.88568
692.90        68.35966
693.33         68.5306
693.75        68.35849
694.17        68.00526
694.60        67.62968
695.02        67.44017
695.44        67.42316
695.87        67.47571
696.29        67.52691
696.71        67.20484
697.14        66.72333
697.56        67.04456
697.98        67.98354
698.41         68.3736
698.83        68.13195
699.25        67.90031
699.68         67.7654
700.10        67.65483
700.52        67.60396
700.94        67.58231
701.37        67.58949
701.79         67.7488
702.21        67.97478
702.64        68.08062
703.06        68.04767
703.48        67.91719
703.90        67.67802
704.33        67.72744
704.75        67.28131
705.17        67.21133
705.59        67.29612
706.01        67.49692
706.44        67.75786
706.86        68.01559
707.28        68.22128
707.70         68.4064
708.12        68.54676
708.55        68.53858
708.97        68.40607
709.39        68.29702
709.81        68.23751
710.23        68.16722
710.66        68.10176
711.08        68.11648
711.50        68.19211
711.92        68.27148
712.34        68.34306
712.76         68.4248
713.19        68.48635
713.61         68.5266
714.03        68.52189
714.45         68.4694
714.87        68.41136
715.29        68.41648
715.71        68.49523
716.13        68.63282
716.56        68.74718
716.98        68.78514
717.40        68.69972
717.82        68.52284
718.24        68.33901
718.66        68.28159
719.08        68.37762
719.50        68.58201
719.92        68.81227
720.34         68.9344
720.76        68.91101
721.19        68.78456
721.61        68.61562
722.03        68.49205
722.45        68.44974
722.87        68.47034
723.29        68.52929
723.71        68.58898
724.13        68.63123
724.55        68.65408
724.97        68.69044
725.39        68.78965
725.81        68.95097
726.23        69.15878
726.65        69.31361
727.07        69.25976
727.49        68.98277
727.91        68.54266
728.33        68.10211
728.75        67.91863
729.17        68.04636
729.59        68.40212
730.01        68.83996
730.43        69.10578
730.85        69.12227
731.27        68.97733
731.69        68.74698
732.10        68.54894
732.52        68.43649
732.94        68.36475
733.36        68.36046
733.78        68.47679
734.20        68.70383
734.62        69.02164
735.04        69.35033
735.46        69.54684
735.88        69.58405
736.30        69.52515
736.72         69.3947
737.13        69.24556
737.55        69.08538
737.97        68.90101
738.39        68.75488
738.81        68.81042
739.23        69.04134
739.65        69.24886
740.06        69.33659
740.48        69.42107
740.90        69.45903
741.32        69.38385
741.74         69.2151
742.16        69.06522
742.57         68.9692
742.99        68.85751
743.41        68.78052
743.83         68.8728
744.25        69.09713
744.67        69.27726
745.08        69.36684
745.50        69.36011
745.92        69.25785
746.34        69.01171
746.75        68.68587
747.17        68.46236
747.59        68.36443
748.01        68.35466
748.42        68.42158
748.84        68.50718
749.26        68.60295
749.68        68.72275
750.09        68.84867
750.51        68.97112
750.93        69.07571
751.35        69.15094
751.76        69.21437
752.18        69.29202
752.60        69.39249
753.01        69.52967
753.43        69.64198
753.85        69.67275
754.27        69.61933
754.68        69.50616
755.10        69.41647
755.52        69.47498
755.93        69.68449
756.35        69.98639
756.77        70.29379
757.18        70.40856
757.60        70.30554
758.02        70.21069
758.43        70.07741
758.85        69.67159
759.26        69.19489
759.68        69.12717
760.10         69.4019
760.51        70.34988
760.93        70.13376
761.34        70.24178
761.76         70.1771
762.18        69.73006
762.59        69.14701
763.01        69.12833
763.42          69.811
763.84        70.06382
764.26         69.8869
764.67         69.7508
765.09        69.73322
765.50        69.80709
765.92        69.92788
766.33        69.64259
766.75        68.96847
767.16        69.01112
767.58        69.19909
768.00         69.4924
768.41        69.74193
768.83        70.45859
769.24        71.39651
769.66        71.80265
770.07        71.63532
770.49        71.12378
770.90        70.53943
771.32        70.56113
771.73        71.08994
772.15        71.16369
772.56        70.75227
772.97        70.49989
773.39        70.46469
773.80        70.46211
774.22         70.4688
774.63        70.58091
775.05        70.73917
775.46        70.91188
775.88        71.04853
776.29        71.17797
776.70        71.26575
777.12         71.2877
777.53        71.25418
777.95        71.14219
778.36        71.01151
778.77        70.89243
779.19        70.79466
779.60        70.85521
780.02        70.99707
780.43        70.77013
780.84        70.32584
781.26        70.41014
781.67        70.94509
782.09        71.21127
782.50        71.09856
782.91        70.75866
783.33        70.36422
783.74         70.3215
784.15        70.69788
784.57         71.2063
784.98        71.78799
785.39        72.41259
785.81        73.00396
786.22        73.32213
786.63        73.69823
787.04        73.66325
787.46        73.38248
787.87        72.85491
788.28        72.31013
788.70        72.07375
789.11         72.1805
789.52        72.55939
789.93        73.01613
790.35        73.21046
790.76         73.0801
791.17         72.7234
791.58         72.2737
792.00        71.96503
792.41        71.88985
792.82        71.84484
793.23        71.81872
793.65        72.14515
794.06        72.65027
794.47        72.53352
794.88        71.98316
795.29        71.91075
795.71        72.29031
796.12        72.73579
796.53        73.05357
796.94         73.1291
797.35        72.88039
797.76        72.37053
798.18        71.81911
798.59         71.5174
799.00        71.55215
799.41        71.83972
799.82        72.26858
800.23        72.63972
800.64        72.87222
801.06        72.99815
801.47        73.06313
801.88        73.04512
802.29        72.95914
802.70         72.7909
803.11          72.603
803.52        72.51222
803.93         72.5622
804.34        72.73501
804.75        72.97185
805.17        73.24363
805.58        73.56966
805.99        73.61939
806.40        73.45113
806.81        73.89711
807.22        74.63351
807.63        73.98901
808.04        72.27761
808.45         71.5241
808.86         71.9206
809.27        72.39275
809.68        72.72172
810.09         73.0071
810.50        73.15112
810.91         73.1452
811.32        73.04269
811.73        72.93214
812.14        72.85858
812.55        72.79058
812.96        72.79513
813.37        72.98554
813.78         73.3628
814.19        73.88808
814.60        74.41507
815.01        74.71531
815.42        74.73584
815.83        74.52681
816.24        74.18637
816.65        73.91901
817.05        73.81158
817.46        73.79167
817.87        73.82466
818.28        73.80609
818.69        73.70473
819.10        73.55745
819.51        73.41058
819.92        73.33827
820.33        73.36117
820.74        73.44715
821.14        73.52918
821.55        73.54066
821.96        73.45722
822.37         73.3215
822.78        73.19537
823.19        73.18364
823.60        73.32536
824.00        73.60618
824.41        73.95227
824.82        74.35532
825.23        74.76895
825.64        75.15902
826.04         75.4923
826.45        75.63748
826.86        75.59723
827.27         75.4202
827.68        75.08963
828.08        74.60647
828.49        73.98257
828.90        73.25314
829.31        72.64167
829.72        72.48532
830.12         72.8773
830.53         73.7063
830.94        74.64432
831.35        75.03792
831.75        74.73322
832.16        73.87126
832.57        72.92924
832.97        72.63761
833.38        73.13623
833.79        74.18233
834.20        75.37687
834.60        76.03979
835.01         75.9389
835.42        75.33379
835.82         74.4856
836.23        73.78106
836.64        73.37062
837.04        73.15285
837.45         73.0979
837.86        73.23418
838.26        73.53809
838.67        73.96873
839.08        74.43715
839.48        74.74644
839.89        74.82533
840.29        74.72399
840.70          74.478
841.11        74.12656
841.51        73.73368
841.92        73.27506
842.33         72.9167
842.73        72.93195
843.14        73.31863
843.54        74.06474
843.95        74.89405
844.35        75.40171
844.76        75.43361
845.17        75.08397
845.57        74.60146
845.98        74.38292
846.38        74.54416
846.79        74.94749
847.19        75.37445
847.60        75.36783
848.00        74.86037
848.41        74.01553
848.81        73.14526
849.22        72.68539
849.62        72.76031
850.03        73.20667
850.43        73.83979
850.84        74.19078
851.24        74.18763
851.65        73.93356
852.05        73.63828
852.46        73.59579
852.86        73.85835
853.27        74.29633
853.67        74.76814
854.07         75.2942
854.48        75.78123
854.88        76.34201
855.29        76.69833
855.69        76.61462
856.10        75.93539
856.50        74.85833
856.90        73.71655
857.31        72.99463
857.71        72.80016
858.12        72.96168
858.52        73.38892
858.92        73.67818
859.33        73.67608
859.73         73.5421
860.13        73.28336
860.54        72.94982
860.94        72.58121
861.34        72.12005
861.75        71.68306
862.15        71.54198
862.55        71.73056
862.96        72.18795
863.36        72.69843
863.76        72.81094
864.17        72.43325
864.57        71.70956
864.97        70.94287
865.38        70.64005
865.78        70.94633
866.18        71.67725
866.58        72.52334
866.99        72.92787
867.39        72.75971
867.79        72.21412
868.19        71.49013
868.60        70.83819
869.00        70.34528
869.40         69.9173
869.80        69.67575
870.21        69.84447
870.61        70.47252
871.01        71.43357
871.41        72.34078
871.81        72.60048
872.22        72.10406
872.62        71.03126
873.02        69.76614
873.42        68.96435
873.82        68.83666
874.22        69.21954
874.63        69.87573
875.03        70.40897
875.43        70.69779
875.83        70.86323
876.23        71.03812
876.63        71.42521
877.03        72.04977
877.44        72.76666
877.84        73.43701
878.24        73.80382
878.64        73.79256
879.04        73.49888
879.44        73.03532
879.84        72.56362
880.24        72.15527
880.64        71.79018
881.04        71.49633
881.44         71.3013
881.84         71.2179
882.24        71.27216
882.65        71.40275
883.05         71.5932
883.45        71.76637
883.85        71.89285
884.25        72.02924
884.65        72.28058
885.05        72.65717
885.45        73.13319
885.85        73.53693
886.25        73.58581
886.65        73.22279
887.05        72.52596
887.45        71.78898
887.85        71.46503
888.25        71.65565
888.65        72.25355
889.04        72.92113
889.44        73.08131
889.84        72.62244
890.24        71.71316
890.64         70.7664
891.04        70.37521
891.44        70.66107
891.84        71.47992
892.24        72.38444
892.64        72.62039
893.04        72.02657
893.44        70.83898
893.83        69.66394
894.23        69.42662
894.63        70.26525
895.03        71.88743
895.43        73.61947
895.83        74.24599
896.23        73.47256
896.63        71.79391
897.02        69.86446
897.42        68.69172
897.82        68.45207
898.22        68.88477
898.62        69.73673
899.01        70.60901
899.41        71.26202
899.81        71.81863
900.21        72.36523
900.61        73.02847
901.00        73.79675
901.40        74.52934
901.80          74.999
902.20        74.90585
902.59        74.24618
902.99        73.18204
903.39        72.04662
903.79        71.36459
904.18        71.26137
904.58        71.58343
904.98        72.14252
905.38         72.6467
905.77        72.97741
906.17        73.25528
906.57        73.36521
906.96        73.13548
907.36        72.56403
907.76        71.70187
908.15        70.90884
908.55        70.73683
908.95        71.31445
909.34        72.49716
909.74        73.83524
910.14        74.65137
910.53        74.73797
910.93        74.27467
911.33        73.57495
911.72        73.14498
912.12        73.14484
912.52        73.40612
912.91        73.68926
913.31        73.60783
913.70        73.08853
914.10        72.30334
914.49        71.52238
914.89        71.11353
915.29        71.17622
915.68        71.59234
916.08        72.16329
916.47         72.5806
916.87        72.73145
917.26        72.69479
917.66        72.59224
918.05        72.60712
918.45        72.77741
918.84        73.07832
919.24        73.37274
919.64        73.51383
920.03        73.48225
920.42        73.31667
920.82        73.16819
921.21         73.2809
921.61        73.65466
922.00        74.20615
922.40        74.72681
922.79        74.91913
923.19         74.6841
923.58        74.16439
923.98        73.47285
924.37        72.68982
924.77        71.91554
925.16        71.12004
925.55        70.49733
925.95        70.35165
926.34        70.75578
926.74        71.57498
927.13        72.60576
927.52        73.40533
927.92        73.81994
928.31        73.96394
928.70        73.89011
929.10        73.73837
929.49        73.60235
929.89        73.42777
930.28        73.28546
930.67        73.25787
931.07        73.34491
931.46         73.5207
931.85        73.75213
932.24        73.97135
932.64        74.13356
933.03        74.29236
933.42        74.30025
933.82         73.9525
934.21        73.25937
934.60        72.29546
934.99        71.41933
935.39        71.14685
935.78        71.60014
936.17        72.64749
936.56        73.86241
936.96        74.44049
937.35        74.18728
937.74        73.31644
938.13        72.25955
938.53        71.58602
938.92        71.39607
939.31         71.5533
939.70        71.90242
940.09        72.17297
940.49        72.26842
940.88         72.2934
941.27        72.32057
941.66        72.46195
942.05        72.74573
942.44         73.1105
942.84        73.44957
943.23          73.692
943.62         73.7627
944.01        73.71352
944.40        73.61726
944.79        73.59072
945.18          73.661
945.57        73.76662
945.97        73.88093
946.36        74.05656
946.75        74.25122
947.14        74.47985
947.53        74.61526
947.92        74.43403
948.31        73.91389
948.70        73.14215
949.09        72.38708
949.48        72.04179
949.87        72.19955
950.26         72.7855
950.65        73.55551
951.04        74.06498
951.43        74.17168
951.82        73.96401
952.21        73.70441
952.60        73.81786
952.99        74.35921
953.38         75.1552
953.77        75.86876
954.16        75.91632
954.55         75.1967
954.94         74.0213
955.33        72.71088
955.72        71.73362
956.11        71.25069
956.50        71.07561
956.89        71.30654
957.28        72.11092
957.66        73.46571
958.05        75.20826
958.44        76.77185
958.83        77.05878
959.22         75.8636
959.61        73.61895
960.00        71.11835
960.39          69.495
960.78        69.01909
961.16        69.39451
961.55        70.31194
961.94        71.34063
962.33        72.25163
962.72        73.19777
963.11         73.9547
963.49        74.11338
963.88        73.57603
964.27        72.47404
964.66        71.24995
965.04        70.56598
965.43        70.53046
965.82        70.95387
966.21        71.58788
966.60         71.9304
966.98        71.81402
967.37          71.412
967.76        70.80173
968.15        70.07961
968.53        69.35398
968.92        68.57762
969.31        67.98609
969.69        67.97112
970.08        68.53567
970.47        69.57657
970.86        70.71761
971.24        71.25635
971.63        70.92197
972.02        69.97028
972.40        68.70263
972.79        67.63401
973.17        66.96651
973.56        66.56665
973.95        66.44063
974.33        66.60195
974.72        66.96375
975.11        67.52328
975.49         68.2521
975.88        69.00081
976.26        69.72739
976.65        70.35555
977.04        70.68018
977.42        70.38243
977.81        69.45264
978.19        67.98367
978.58        66.74413
978.96        66.66026
979.35        67.88117
979.74        70.23949
980.12        73.12135
980.51        74.66889
980.89        74.49077
981.28        72.94875
981.66        70.95683
982.05        70.11522
982.43        70.79442
982.82        72.44915
983.20        74.65826
983.59        76.50983
983.97        77.72878
984.35        78.54748
984.74        78.70519
985.12        77.92075
985.51        76.24129
985.89        73.72602
986.28         71.2152
986.66        69.91344
987.04        70.21635
987.43        71.83595
987.81        73.96821
988.20        74.97684
988.58        74.44792
988.96        72.67899
989.35        70.64983
989.73        69.92463
990.12        70.81731
990.50        72.90636
990.88        75.01823
991.27        75.27225
991.65        73.38616
992.03        70.07788
992.42        66.72941
992.80        65.18542
993.18        65.99499
993.56         68.4979
993.95         71.7207
994.33        74.26014
994.71        75.31924
995.10        75.31612
995.48        74.42951
995.86        72.97436
996.24        71.26756
996.63        69.26765
997.01         67.3419
997.39        66.03806
997.77        65.45886
998.15         65.5465
998.54        66.13164
998.92        66.81257
999.30        67.41191
999.68        68.01453
1000.06        68.53047
1000.45        68.80221
1000.83        68.91988
1001.21        68.76356
1001.59        68.52273
1001.97        68.59072
1002.35        69.05972
1002.73        69.84486
1003.12        70.67787
1003.50        71.04158
1003.88        70.85992
1004.26        70.32673
1004.64        69.72053
1005.02         69.4255
1005.40        69.55126
1005.78        69.99635
1006.16        70.61309
1006.54        71.14015
1006.92        71.41999
1007.30        71.42142
1007.69        71.20992
1008.07        71.13416
1008.45        71.17805
1008.83        71.36515
1009.21        71.30836
1009.59        70.36433
1009.97        68.49406
1010.35        65.90967
1010.73        63.58475
1011.11        63.18712
1011.49        65.20972
1011.86        69.50017
1012.24        74.60501
1012.62        78.12371
1013.00        79.07373
1013.38        77.75146
1013.76        75.49332
1014.14        74.96259
1014.52         76.9499
1014.90        80.64923
1015.28        84.33288
1015.66        84.93785
1016.04        82.06342
1016.41        77.42976
1016.79        72.88811
1017.17        69.86551
1017.55        68.35595
1017.93        67.66528
1018.31        67.71233
1018.69        68.30491
1019.06        69.06004
1019.44        70.06674
1019.82        70.66911
1020.20         70.2069
1020.58        68.71198
1020.95        66.04096
1021.33        62.97297
1021.71        61.73554
1022.09        63.46579
1022.46        67.47475
1022.84        72.06595
1023.22        75.01617
1023.60        75.71647
1023.97        74.87769
1024.35         72.7031
1024.73        69.71905
