SpectraSmart Spectrum 2.9.0.0
--------- Device Information -----------
Spectrum Name :  反射率_0
Saving Time :  2024/05/01 16:40:21
Spectro-Module Model Name : SE2030-DUVN
Spectro-Module Serial Number : OS361AC55029948
Wavelength Start : 200
Wavelength End : 1025
Wavelength Unit : Wavelength(nm)
Spectrum Unit : Reflectance(%)
-----------Spectrum Setting ------------
Integration Time : 20ms
Average : 10
Boxcar : 0
Background removal :  enabled
linearity correction :  enabled
SC :  disabled
Intensity correction :  disabled
DWT denoise :  enabled
savitzky-golay :  disabled
FFT :  disabled
Running average :  disabled
Kalman :  disabled
High pass :  disabled
---------------BEGIN--------------------
Wavelength(nm)             Reflectance(%)
200.29               0
200.75       -77.07424
201.21        249.3089
201.67       -254.4543
202.13       -105.6559
202.58       -29.75597
203.04        25.38026
203.50        63.92366
203.96        85.90683
204.42        98.31578
204.88        112.7984
205.34        410.1991
205.80        25.42434
206.26        8.309852
206.72       -62.20282
207.18       -449.7242
207.64        677.2001
208.10        284.6158
208.55         190.031
209.01        145.5809
209.47         124.098
209.93         115.602
210.39        112.8201
210.85        116.1528
211.31        131.6941
211.77        195.9914
212.23       -345.2181
212.69       -17.52609
213.14        8.972609
213.60        10.53229
214.06        105.3132
214.52        46.51844
214.98        46.23205
215.44        52.59549
215.90        76.76128
216.36        460.1227
216.81       -135.5672
217.27       -180.1827
217.73        448.1707
218.19        110.8363
218.65        84.43556
219.11        88.28477
219.57        129.6388
220.02        294.2483
220.48        137.7501
220.94        50.32855
221.40        30.38073
221.86        25.76576
222.32         28.3914
222.77        36.31798
223.23         50.5099
223.69        69.06951
224.15        76.53489
224.61        67.61762
225.06        53.32101
225.52        43.21618
225.98        40.37825
226.44        43.56932
226.90         51.8135
227.36        63.02835
227.81        67.84779
228.27        62.88655
228.73        54.34292
229.19        47.47127
229.65        44.90604
230.10         46.0537
230.56        50.03946
231.02        55.58641
231.48        58.81512
231.93        57.87569
232.39        54.97947
232.85        52.11273
233.31        51.06806
233.77        51.81317
234.22        53.45379
234.68         55.4809
235.14        57.55742
235.60        59.77747
236.05        62.79987
236.51        66.92157
236.97        71.76138
237.43        76.02773
237.88        78.60468
238.34        79.22063
238.80        79.66714
239.26        80.71644
239.71        82.72747
240.17        84.64184
240.63        83.19402
241.08        77.06675
241.54        69.62594
242.00        65.54604
242.46        68.01806
242.91        78.67981
243.37        99.91747
243.83        136.6382
244.28        168.4526
244.74        166.4035
245.20        148.1561
245.66        130.2443
246.11        116.4703
246.57        103.6085
247.03        85.53051
247.48        58.02851
247.94        27.02367
248.40        8.539627
248.85        6.818124
249.31        19.87934
249.77        36.52342
250.22        50.26876
250.68        61.39799
251.14        69.46846
251.59        75.46497
252.05        81.63521
252.51        90.81947
252.96        112.2034
253.42        160.7039
253.88        194.1033
254.33         176.134
254.79        152.9246
255.25        136.4967
255.70        123.6776
256.16        114.1689
256.62        106.3528
257.07        99.70621
257.53        95.11429
257.99        91.70594
258.44         89.2103
258.90         88.1737
259.35        87.70211
259.81        87.78973
260.27        87.74362
260.72        86.79943
261.18        85.35641
261.63        83.43051
262.09        81.60317
262.55        79.89748
263.00        78.20702
263.46        76.65576
263.91        75.13193
264.37        73.99766
264.83        73.11684
265.28        72.38988
265.74        71.64422
266.19        70.25851
266.65        68.35574
267.11        66.04906
267.56        63.83021
268.02        62.58455
268.47        62.39919
268.93        62.95068
269.38        63.66794
269.84        63.58225
270.30        62.47066
270.75         60.6355
271.21         58.5181
271.66        56.63763
272.12        55.22912
272.57          54.041
273.03        53.05214
273.48        52.15844
273.94        51.35691
274.39        50.67408
274.85        50.04799
275.31        49.25461
275.76        48.25937
276.22        47.18447
276.67        46.12831
277.13        45.40005
277.58        44.93827
278.04        44.68265
278.49        44.41167
278.95        43.95232
279.40        43.20245
279.86        42.30956
280.31        41.31508
280.77        40.40857
281.22        39.57029
281.68         38.8389
282.13        38.12413
282.59        37.41858
283.04        36.68578
283.50         36.0139
283.95        35.44546
284.41          35.115
284.86        35.01384
285.32        35.10075
285.77        35.29202
286.22        35.53619
286.68        35.79753
287.13        36.05181
287.59        36.24658
288.04         36.2534
288.50         36.0912
288.95        35.75451
289.41        35.40107
289.86        35.15602
290.32        35.09543
290.77        35.18413
291.22        35.35418
291.68        35.47506
292.13        35.53436
292.59         35.6317
293.04        35.87717
293.50         36.4935
293.95        37.49382
294.40        38.79631
294.86        40.27386
295.31         41.7334
295.77        43.09619
296.22        44.39045
296.68        45.63074
297.13        46.82264
297.58        48.01916
298.04        49.24929
298.49        50.55648
298.95        52.05495
299.40        53.72373
299.85        55.51347
300.31        57.41816
300.76        59.40585
301.21        61.47384
301.67        63.63992
302.12        65.74053
302.58        67.55183
303.03        68.99197
303.48         70.1598
303.94        71.34189
304.39        72.85143
304.84        74.81561
305.30        77.11564
305.75        79.52153
306.20        81.70608
306.66        83.56673
307.11        85.13558
307.57        86.53397
308.02        87.82152
308.47        89.08191
308.93        90.29732
309.38        91.42529
309.83        92.50568
310.29        93.56856
310.74         94.6144
311.19        95.66241
311.65        96.70618
312.10        97.71453
312.55        98.67333
313.00        99.62653
313.46        100.6481
313.91        101.7226
314.36        102.8251
314.82        103.7792
315.27        104.3221
315.72        104.4032
316.18         104.148
316.63        103.7772
317.08        103.7016
317.53        104.0176
317.99        104.6148
318.44         105.312
318.89        105.7707
319.35        105.9037
319.80        105.8506
320.25        105.7419
320.70         105.788
321.16        106.0392
321.61        106.4189
322.06        106.9043
322.51        107.4882
322.97        108.1009
323.42        108.7765
323.87         109.344
324.32        109.5454
324.78        109.3315
325.23        108.8227
325.68        108.2112
326.13        107.8409
326.59        107.8007
327.04        108.0628
327.49        108.5231
327.94        109.0162
328.39        109.4637
328.85        109.8603
329.30        110.2799
329.75        110.6772
330.20        111.0462
330.66        111.3442
331.11        111.5956
331.56        111.7277
332.01        111.7566
332.46        111.7107
332.92        111.7078
333.37        112.0505
333.82        112.7702
334.27        113.8282
334.72         115.015
335.17        115.9486
335.63        116.4741
336.08        116.7093
336.53        116.8442
336.98        117.2738
337.43        118.0923
337.88        119.1838
338.34        120.2375
338.79        120.8337
339.24        120.8294
339.69        120.3801
340.14        119.8424
340.59        119.7686
341.05        120.2894
341.50         121.269
341.95        122.3751
342.40        123.0672
342.85         123.217
343.30        123.0077
343.75        122.7639
344.20         122.983
344.66        123.7682
345.11        124.9318
345.56        126.1956
346.01        127.0999
346.46        127.5072
346.91        127.5803
347.36        127.4924
347.81        127.5029
348.26        127.7015
348.72        128.0061
349.17        128.3613
349.62        128.7597
350.07        129.1489
350.52        129.5065
350.97        129.7641
351.42        129.7932
351.87        129.5817
352.32        129.2168
352.77        128.6856
353.22        127.9788
353.67        127.1488
354.13        126.2336
354.58        125.4491
355.03        125.2409
355.48        125.6534
355.93        126.5824
356.38        127.5372
356.83        127.6912
357.28         126.873
357.73        125.3346
358.18        123.6909
358.63        122.8617
359.08        123.0136
359.53        123.8464
359.98        124.7989
360.43        124.9392
360.88        124.0291
361.33        122.4019
361.78        120.5525
362.23        119.1795
362.68        118.4527
363.13        118.1478
363.58        117.9632
364.03        117.4427
364.48        116.4595
364.93        115.1658
365.38        113.8185
365.83        112.7761
366.28        112.1152
366.73        111.7302
367.18        111.3371
367.63        110.5017
368.08        109.1725
368.53        107.5306
368.98        105.9668
369.43        105.0365
369.88         104.826
370.33        105.1421
370.78        105.6077
371.23        105.5715
371.68        104.8455
372.13        103.6475
372.58        102.2801
373.03        101.1913
373.48        100.4951
373.93        100.0287
374.38         99.6758
374.83        99.26453
375.28        98.73241
375.72        98.15073
376.17        97.53986
376.62        96.84639
377.07        96.08127
377.52        95.24222
377.97        94.42977
378.42        93.81765
378.87        93.43064
379.32        93.21472
379.77         93.0363
380.22        92.68071
380.67        92.10242
381.11        91.37949
381.56        90.61486
382.01        90.00325
382.46        89.60885
382.91        89.37033
383.36         89.2253
383.81        89.07774
384.26         88.8822
384.71        88.65736
385.15        88.38536
385.60        88.08958
386.05        87.75736
386.50        87.38156
386.95        86.95774
387.40         86.4954
387.85        86.00793
388.29         85.4541
388.74        84.96534
389.19         84.5245
389.64        84.13194
390.09        83.77439
390.54        83.42066
390.98        83.03008
391.43        82.66095
391.88        82.23978
392.33        81.80856
392.78        81.61572
393.23        81.58739
393.67        81.22139
394.12        80.65578
394.57        80.47835
395.02        80.57677
395.47        80.16703
395.91        79.39658
396.36        79.07413
396.81        79.25731
397.26         79.5853
397.71        79.78801
398.15          79.631
398.60        79.17537
399.05        78.26105
399.50        77.28934
399.95        77.30633
400.39        78.18796
400.84         78.5462
401.29        78.22021
401.74        78.14217
402.18        78.21455
402.63        77.51337
403.08        76.30278
403.53        75.58744
403.97        75.45565
404.42        75.51834
404.87        75.64133
405.32        75.64667
405.76        75.44556
406.21        75.34956
406.66        75.32144
407.11        74.79743
407.55        74.05203
408.00        74.16405
408.45        74.99635
408.90        75.36181
409.34         75.0439
409.79        74.40795
410.24        73.66927
410.68        73.19598
411.13        73.07338
411.58        73.03899
412.03        73.05458
412.47        73.19546
412.92         73.3969
413.37        73.63869
413.81        73.83136
414.26        73.90868
414.71        73.83584
415.15        73.64069
415.60        73.37328
416.05         73.1925
416.49        73.14642
416.94        73.19022
417.39        73.26295
417.83        73.24931
418.28        73.12599
418.73        72.93839
419.17        72.73895
419.62        72.61235
420.07        72.57588
420.51        72.58006
420.96        72.63557
421.41        72.66523
421.85        72.63302
422.30         72.6689
422.74        72.71961
423.19         72.6685
423.64        72.54298
424.08        72.61351
424.53        72.84457
424.98        72.95146
425.42        72.88846
425.87        73.04581
426.31        73.35386
426.76        72.93192
427.21         72.1049
427.65        72.54088
428.10        73.88498
428.54        74.22699
428.99         73.5608
429.44         72.6445
429.88        71.86553
430.33        72.27732
430.77        73.42386
431.22        73.42191
431.66        72.35901
432.11        71.88717
432.56        72.12171
433.00        72.50271
433.45        72.89499
433.89        73.03543
434.34        72.17353
434.78        73.92564
435.23        73.40822
435.67        73.46857
436.12        73.05057
436.57         73.0788
437.01        74.62283
437.46        75.18533
437.90        74.61404
438.35        74.18368
438.79        74.08069
439.24        73.70242
439.68        73.23025
440.13         73.3197
440.57        73.92722
441.02        74.22754
441.46        74.07515
441.91        74.50693
442.35        74.87438
442.80        74.21407
443.24        74.14173
443.69        73.88756
444.13        73.97695
444.58        74.01979
445.02        74.01674
445.47        74.20259
445.91        74.52952
446.36         74.8541
446.80        75.12848
447.24        75.39008
447.69        75.60532
448.13         75.7048
448.58        75.69958
449.02        75.57927
449.47         75.4206
449.91        75.30577
450.36        75.27859
450.80        75.29481
451.25        75.33229
451.69         75.3033
452.13        75.20437
452.58        75.07738
453.02        74.92567
453.47         74.8131
453.91        74.73608
454.36        74.62415
454.80        74.48714
455.24        74.46308
455.69        74.46346
456.13        74.28235
456.58        74.02287
457.02        73.56974
457.46        73.13313
457.91        73.76482
458.35        74.47856
458.79        74.63428
459.24        73.96158
459.68        73.24374
460.13        72.83854
460.57        71.83274
461.01        72.00891
461.46        72.15001
461.90        72.57946
462.34        72.34916
462.79        71.95287
463.23        71.98693
463.68        72.47215
464.12        72.54433
464.56        72.15759
465.01        71.90208
465.45        71.79037
465.89        71.70145
466.34        71.47502
466.78        71.91013
467.22        70.78219
467.67        70.73814
468.11        70.85629
468.55         71.0717
468.99        71.18257
469.44        71.21387
469.88        71.16377
470.32        71.00392
470.77        70.79846
471.21        70.66808
471.65        70.62671
472.10        70.65199
472.54        70.68952
472.98        70.65779
473.42        70.53452
473.87        70.45684
474.31        70.39497
474.75        70.14654
475.20        69.81087
475.64        69.89544
476.08        70.31181
476.52        70.35392
476.97        69.93787
477.41        70.31679
477.85        69.33751
478.29         70.0203
478.74        69.69864
479.18        69.81101
479.62        69.71524
480.06        69.71244
480.50        69.81988
480.95        68.94083
481.39        69.62965
481.83        68.50347
482.27        69.39023
482.72        69.28194
483.16        69.12063
483.60        69.05325
484.04        69.38908
484.48        69.31455
484.93        69.31676
485.37        69.97729
485.81        69.63718
486.25        71.39277
486.69        71.73449
487.14        68.90073
487.58        67.73979
488.02         69.7192
488.46        69.02342
488.90          68.383
489.34        69.18517
489.79        69.09128
490.23        68.84965
490.67        68.64522
491.11        68.54432
491.55        68.60844
491.99        68.74553
492.43        68.73014
492.88        68.54788
493.32        68.39687
493.76        68.31752
494.20        68.30177
494.64        68.34064
495.08        68.41474
495.52        68.55895
495.96        68.69307
496.41        68.69511
496.85        69.16645
497.29         68.9706
497.73        68.40376
498.17         68.1885
498.61        67.88171
499.05        67.68188
499.49        67.87785
499.93        68.26273
500.37        68.49519
500.82        68.61244
501.26        68.09261
501.70          68.704
502.14        68.67513
502.58        68.52249
503.02        68.37672
503.46        68.26556
503.90        68.11873
504.34        67.98251
504.78        67.94617
505.22        67.99941
505.66        68.22696
506.10        68.58265
506.54        68.43716
506.98        68.23536
507.42         68.2448
507.86        68.02673
508.30        67.39375
508.74         67.7672
509.18        67.83511
509.62        67.98994
510.06        68.08737
510.50        68.10811
510.94         68.0583
511.38        67.97523
511.82        67.96236
512.26        68.02837
512.70        68.12888
513.14        68.20447
513.58        68.16568
514.02        67.99708
514.46        67.74495
514.90        67.45499
515.34        67.19835
515.78        67.01093
516.22         66.8793
516.66        66.82495
517.10        66.87597
517.54         67.0245
517.98        67.25906
518.42        67.51529
518.86        67.68385
519.30        67.73505
519.74        67.68996
520.18        67.60055
520.62        67.56028
521.06        67.58907
521.50        67.64882
521.93         67.7101
522.37        67.71449
522.81        67.65392
523.25        67.56558
523.69        67.44576
524.13        67.28156
524.57        67.08919
525.01        66.87578
525.45        66.71485
525.89         66.7221
526.32        66.90669
526.76        67.22426
527.20        67.56325
527.64        67.74452
528.08        67.72244
528.52        67.55476
528.96        67.31927
529.40        67.14129
529.83        67.05554
530.27        67.04121
530.71        67.07819
531.15        67.15134
531.59        67.24628
532.03        67.36666
532.46        67.47919
532.90        67.54782
533.34        67.56183
533.78        67.47558
534.22        67.31729
534.66        67.25295
535.09        67.23345
535.53        67.00926
535.97        66.63696
536.41        66.44317
536.85        66.45453
537.28        66.50868
537.72        66.56661
538.16        66.62519
538.60        66.66182
539.04        66.67152
539.47        66.66505
539.91        66.69768
540.35        66.75852
540.79        66.85712
541.22        66.95722
541.66        66.91029
542.10        66.87693
542.54        66.73897
542.97         66.5944
543.41        66.54794
543.85        66.60831
544.29        66.75207
544.72        66.90121
545.16        66.97092
545.60        66.92647
546.04        66.78891
546.47        66.63443
546.91        66.59752
547.35        66.70944
547.79        66.90853
548.22        67.05739
548.66        67.09289
549.10        66.99023
549.53        66.48254
549.97        66.27651
550.41         66.1469
550.84        66.31026
551.28         66.6881
551.72        67.13499
552.15          67.367
552.59        67.34465
553.03        67.20035
553.46        66.99615
553.90        66.89751
554.34        66.94128
554.77        66.95632
555.21        66.85396
555.65        67.22115
556.08        66.77011
556.52        66.62639
556.96         66.4722
557.39        66.28144
557.83         66.3405
558.27        66.37053
558.70         66.4172
559.14        66.59016
559.57        66.42609
560.01        66.64738
560.45        66.96145
560.88        66.87171
561.32         66.4865
561.75        66.13902
562.19        65.86938
562.63        66.16147
563.06         66.7738
563.50        66.71016
563.93        66.06004
564.37        65.90006
564.80        66.22951
565.24        66.46195
565.68        66.51178
566.11        66.53942
566.55        66.56001
566.98        66.46696
567.42        66.37284
567.85        66.47478
568.29        66.76857
568.72        66.99036
569.16        67.17313
569.60         67.2815
570.03        67.22444
570.47        67.33346
570.90        67.58193
571.34        66.73632
571.77        67.11397
572.21         67.1162
572.64        67.47904
573.08        66.96188
573.51        66.91356
573.95        67.85631
574.38        67.04366
574.82        67.46542
575.25         68.0707
575.69        68.15445
576.12        67.76655
576.56        67.13061
576.99        67.74858
577.42        67.68743
577.86        67.85894
578.29        68.00337
578.73        69.11529
579.16        67.49957
579.60        66.66946
580.03        66.85916
580.47        67.38648
580.90        66.71184
581.33        67.85595
581.77        68.23394
582.20        68.64521
582.64        68.29738
583.07        67.95366
583.51        67.44518
583.94        67.29418
584.37        67.40002
584.81        67.76559
585.24        67.84912
585.68        67.57342
586.11        67.76064
586.54        67.89312
586.98        67.09354
587.41         66.5295
587.85        67.53591
588.28        68.29974
588.71        66.63967
589.15        67.48732
589.58        66.80044
590.01        66.78436
590.45        66.85413
590.88        67.16843
591.31         67.0563
591.75        67.09498
592.18        66.77651
592.61        66.47541
593.05        66.58282
593.48        67.08345
593.91        67.44115
594.35        66.67242
594.78        66.55436
595.21        66.73256
595.65        67.08407
596.08         66.7841
596.51        66.70889
596.94        66.68972
597.38         66.6058
597.81        66.47668
598.24          66.441
598.68        66.77752
599.11        66.14319
599.54        67.47038
599.97        67.57956
600.41        66.59232
600.84        67.13203
601.27        66.95387
601.70        67.44184
602.14        67.52679
602.57        67.24368
603.00        66.69853
603.43        66.31693
603.87        66.55898
604.30         67.1801
604.73        66.64779
605.16        66.47019
605.60        66.65375
606.03        66.86695
606.46        67.03172
606.89        67.03385
607.32        66.54273
607.76        66.35322
608.19        66.39062
608.62        66.81425
609.05        66.81548
609.48        66.72431
609.92        66.54958
610.35        66.22181
610.78        67.38235
611.21        67.60258
611.64        66.83186
612.07        66.96057
612.50        67.44419
612.94        67.44039
613.37        66.83688
613.80        66.81655
614.23        66.39265
614.66        66.73862
615.09        66.51646
615.52        66.53146
615.96        66.56963
616.39        66.99074
616.82        66.79166
617.25        66.84171
617.68        66.84075
618.11        66.84511
618.54        66.81184
618.97        66.63069
619.40        66.42341
619.84        66.26752
620.27        66.16402
620.70        66.69964
621.13        67.29206
621.56        66.48024
621.99        65.86949
622.42        66.03748
622.85        66.36161
623.28        66.76128
623.71         66.1301
624.14        66.54763
624.57        66.49062
625.00        66.62453
625.43        66.54704
625.86        66.48389
626.29        66.45226
626.72        66.15845
627.15        66.16508
627.58        65.97878
628.01        65.79544
628.44        65.85236
628.87        65.90714
629.30        65.98407
629.73        65.99729
630.16         66.0518
630.59         66.1216
631.02        66.10558
631.45        66.01572
631.88        65.93836
632.31        65.88682
632.74         65.8268
633.17        65.76645
633.60         65.7307
634.03        65.72229
634.46        65.73679
634.89        65.76775
635.32        65.80035
635.75        65.82633
636.18        65.84652
636.61        65.85058
637.04        65.82794
637.47         65.7851
637.89        65.71397
638.32        65.60777
638.75        65.56142
639.18        65.59718
639.61        65.42942
640.04        65.55232
640.47        65.52667
640.90        65.48653
641.33        65.50133
641.76        65.58379
642.18        65.38815
642.61        65.63708
643.04        65.58835
643.47        65.39668
643.90        65.87477
644.33          65.605
644.76        65.62714
645.18        65.56068
645.61        65.73943
646.04        66.05786
646.47        65.98359
646.90        65.59882
647.33        65.47672
647.75        65.64725
648.18        65.78047
648.61        65.83971
649.04        65.84914
649.47        65.77936
649.89        65.80605
650.32        65.88082
650.75        65.53754
651.18        64.97165
651.61        65.15919
652.03        65.97843
652.46        66.14713
652.89         65.6701
653.32        65.53412
653.74        65.93891
654.17        65.81977
654.60        66.27543
655.03        66.30957
655.46        65.76081
655.88        65.93397
656.31        74.87678
656.74        74.10749
657.16        67.72482
657.59        66.02015
658.02        66.39426
658.45        66.13504
658.87        66.32894
659.30        64.94234
659.73        65.57142
660.15        66.55331
660.58        65.69223
661.01        65.56693
661.44        65.35721
661.86        65.50129
662.29        65.88174
662.72        66.04365
663.14        65.99124
663.57        66.01263
664.00        66.12671
664.42         66.1435
664.85        66.06789
665.27        65.94881
665.70        65.83295
666.13        65.78916
666.55        65.84116
666.98        65.95061
667.41        66.08487
667.83        66.19736
668.26        66.24966
668.69        66.25124
669.11        66.22439
669.54        66.21445
669.96        66.22051
670.39        66.21809
670.82        66.20462
671.24        66.10408
671.67        65.97668
672.09        66.04771
672.52        66.27779
672.94        66.34479
673.37        66.23338
673.80        66.11321
674.22        66.02966
674.65        65.95203
675.07         65.9138
675.50        65.90702
675.92        65.94062
676.35        66.01876
676.77        66.13607
677.20        66.27792
677.62        66.41595
678.05        66.48739
678.47        66.47292
678.90        66.41797
679.32        66.34673
679.75        66.25732
680.17        66.14431
680.60        66.26185
681.02        66.15412
681.45        66.18584
681.87        66.22388
682.30        66.31068
682.72        66.41031
683.15          66.355
683.57        66.18697
684.00        66.10349
684.42        66.13725
684.85          66.194
685.27        66.25941
685.70        66.41076
686.12        66.58192
686.54        66.62333
686.97        66.50365
687.39        66.35886
687.82         66.1965
688.24        65.87482
688.66        65.50662
689.09        65.49897
689.51        65.82346
689.94        65.99669
690.36        65.98891
690.78        66.09863
691.21        66.33764
691.63        66.48376
692.06        66.58697
692.48        66.95665
692.90        67.47651
693.33        67.68819
693.75        67.55336
694.17        67.23718
694.60        66.87853
695.02        66.69167
695.44        66.67394
695.87        66.61697
696.29        66.50846
696.71        66.34466
697.14        66.22073
697.56        66.44972
697.98          66.943
698.41        67.22787
698.83        67.25537
699.25        67.28162
699.68        67.30588
700.10         67.2821
700.52         67.2163
700.94        67.07757
701.37        66.92093
701.79        66.96085
702.21        67.14323
702.64        67.26197
703.06        67.28468
703.48        67.22496
703.90        67.05722
704.33        67.18523
704.75        66.81519
705.17        66.78174
705.59        66.86056
706.01        67.01753
706.44        67.21438
706.86        67.43006
707.28        67.62962
707.70        67.81182
708.12        67.94804
708.55        67.98239
708.97        67.90719
709.39         67.7458
709.81        67.55195
710.23        67.42739
710.66        67.40456
711.08        67.47494
711.50        67.58633
711.92         67.6669
712.34        67.69522
712.76        67.69091
713.19        67.66534
713.61        67.68588
714.03        67.74275
714.45        67.81413
714.87        67.88266
715.29        67.92464
715.71         67.9348
716.13        67.92766
716.56        67.88854
716.98        67.88048
717.40        67.88441
717.82        67.88708
718.24        67.90683
718.66        67.97425
719.08        68.08636
719.50        68.23367
719.92        68.35562
720.34        68.35506
720.76        68.21655
721.19         67.9708
721.61        67.70661
722.03        67.55749
722.45        67.56519
722.87        67.70667
723.29        67.90681
723.71        68.03711
724.13        68.05775
724.55        67.98881
724.97        67.92039
725.39        67.99966
725.81        68.24597
726.23        68.60628
726.65        68.92645
727.07        68.96345
727.49        68.67954
727.91        68.16914
728.33         67.6252
728.75        67.35035
729.17        67.41994
729.59        67.73876
730.01        68.17194
730.43        68.48437
730.85        68.59437
731.27         68.5797
731.69         68.4858
732.10        68.38297
732.52        68.31084
732.94        68.23206
733.36        68.18118
733.78        68.23479
734.20        68.39149
734.62        68.61696
735.04        68.84756
735.46        68.97562
735.88        68.98439
736.30        68.92439
736.72        68.79224
737.13        68.65645
737.55        68.52844
737.97        68.24347
738.39        67.95041
738.81        68.27774
739.23        69.07805
739.65        69.34846
740.06        69.02539
740.48        68.95486
740.90        69.11448
741.32        69.02061
741.74        68.70194
742.16         68.4944
742.57          68.445
742.99        68.45563
743.41         68.5295
743.83        68.64308
744.25        68.78154
744.67         68.9907
745.08        69.20528
745.50        69.20331
745.92        68.97471
746.34        68.59203
746.75        68.16224
747.17        67.86785
747.59        67.74715
748.01        67.80038
748.42         67.9669
748.84        68.05831
749.26        68.08654
749.68        68.15703
750.09        68.29029
750.51        68.58616
750.93        68.94283
751.35        68.99836
751.76        68.80111
752.18        68.74794
752.60        68.84565
753.01        68.95258
753.43        69.05822
753.85        69.02646
754.27        68.80122
754.68        69.49169
755.10        69.15968
755.52        69.36625
755.93        69.51605
756.35        69.64356
756.77         69.7324
757.18        69.74714
757.60        69.70886
758.02        69.75867
758.43        69.78247
758.85        69.52579
759.26        68.91629
759.68        68.92725
760.10         69.3525
760.51        70.16578
760.93        69.51963
761.34        69.54491
761.76        69.71613
762.18        69.48899
762.59        69.00508
763.01        68.95177
763.42        69.37157
763.84        69.53548
764.26        69.42568
764.67        69.37849
765.09        69.43269
765.50        69.42516
765.92        69.36712
766.33        69.20454
766.75        68.94539
767.16        68.92747
767.58        69.14326
768.00        69.37141
768.41        69.64294
768.83        70.18916
769.24        70.85987
769.66        71.25167
770.07        71.30037
770.49         70.9913
770.90        70.52774
771.32        70.56665
771.73        71.02058
772.15        71.05403
772.56        70.64227
772.97        70.30961
773.39        70.14108
773.80        70.06503
774.22         70.0751
774.63        70.24992
775.05        70.46398
775.46        70.57619
775.88        70.51816
776.29        70.34719
776.70        70.16161
777.12          70.153
777.53        70.37382
777.95        70.73164
778.36        71.09723
778.77        71.23228
779.19        71.08501
779.60        70.76888
780.02        70.40005
780.43        70.11158
780.84        70.00887
781.26        70.12624
781.67         70.3884
782.09        70.66077
782.50        70.81328
782.91        70.59167
783.33        70.14939
783.74        70.07302
784.15        70.43163
784.57        70.87344
784.98        71.33025
785.39        71.78476
785.81        72.17989
786.22        72.29366
786.63        72.52817
787.04        72.52639
787.46        72.45478
787.87        72.26569
788.28        72.07981
788.70        72.05415
789.11        72.18725
789.52        72.46524
789.93        72.75112
790.35        72.80441
790.76        72.59848
791.17        72.19741
791.58        71.75318
792.00        71.49171
792.41        71.48711
792.82        71.65675
793.23        71.90163
793.65        72.10877
794.06        72.21282
794.47        72.11552
794.88        71.91722
795.29        71.87876
795.71         71.9636
796.12        72.14433
796.53          72.309
796.94        72.30741
797.35         72.0938
797.76        71.74419
798.18        71.41025
798.59        71.27717
799.00        71.39834
799.41        71.70269
799.82         72.1018
800.23        72.44591
800.64        72.66835
801.06        72.78481
801.47        72.81942
801.88        72.71655
802.29        72.49583
802.70        72.17631
803.11        71.86079
803.52        71.71916
803.93        71.79863
804.34        72.05483
804.75        72.42181
805.17        72.79698
805.58        73.16489
805.99          73.385
806.40        73.43917
806.81        73.61789
807.22        73.78833
807.63         73.2634
808.04        72.26601
808.45        71.81181
808.86        72.02222
809.27        72.39613
809.68        72.78248
810.09        73.11054
810.50        73.29226
810.91        73.36192
811.32        73.32231
811.73        73.17994
812.14        72.96735
812.55        72.67657
812.96        72.43793
813.37        72.48088
813.78        72.84065
814.19        73.44147
814.60        74.09446
815.01        74.50587
815.42        74.60023
815.83        74.44958
816.24        74.14972
816.65         73.8988
817.05        73.78701
817.46        73.73611
817.87        73.74052
818.28        73.74736
818.69        73.73249
819.10         73.7178
819.51        73.71168
819.92        73.71365
820.33        73.71861
820.74        73.71856
821.14        73.67331
821.55        73.55515
821.96        73.35757
822.37        73.11778
822.78        72.90764
823.19        72.85055
823.60        72.99031
824.00        73.30943
824.41        73.72911
824.82        74.22521
825.23        74.74325
825.64        75.25475
826.04        75.69981
826.45        75.90578
826.86        75.86942
827.27         75.6424
827.68        75.26659
828.08        74.84531
828.49        74.40248
828.90        73.93275
829.31        73.57084
829.72          73.511
830.12        73.81133
830.53        74.40612
830.94        75.02959
831.35         75.1461
831.75        74.65843
832.16        73.68323
832.57        72.69771
832.97        72.42565
833.38        72.99122
833.79        74.15498
834.20        75.47902
834.60        76.20805
835.01        76.09048
835.42        75.40441
835.82        74.44017
836.23        73.63942
836.64        73.16965
837.04        72.90797
837.45        72.83899
837.86         73.0121
838.26        73.40302
838.67        73.97817
839.08        74.58632
839.48        74.92417
839.89        74.90533
840.29        74.60724
840.70        74.17419
841.11        73.82065
841.51        73.63942
841.92        73.54512
842.33        73.57247
842.73        73.78162
843.14        74.10842
843.54        74.59743
843.95        75.07591
844.35        75.32099
844.76        75.24536
845.17        74.90623
845.57        74.48193
845.98        74.25163
846.38        74.30959
846.79         74.5683
847.19        74.89552
847.60        74.97332
848.00        74.75028
848.41         74.3064
848.81        73.85203
849.22         73.6856
849.62        73.88763
850.03        74.33343
850.43        74.84343
850.84        74.96113
851.24        74.64986
851.65        74.02388
852.05        73.38262
852.46        73.17384
852.86        73.47688
853.27        74.10398
853.67        74.82438
854.07        75.53129
854.48        76.09949
854.88        76.68601
855.29        76.98705
855.69        76.73283
856.10        75.78975
856.50        74.36906
856.90        72.93442
857.31        72.15789
857.71        72.16418
858.12        72.73084
858.52        73.61328
858.92        74.10151
859.33        73.94583
859.73        73.41318
860.13        72.64551
860.54        71.89777
860.94        71.29305
861.34        70.72847
861.75        70.33672
862.15        70.41554
862.55        70.96495
862.96        71.88134
863.36        72.87485
863.76        73.36774
864.17        73.21937
864.57        72.61082
864.97        71.78733
865.38        71.17797
865.78        70.95483
866.18        70.96487
866.58        71.15417
866.99        71.41811
867.39        71.72076
867.79        72.10768
868.19        72.43269
868.60         72.4385
869.00        72.08958
869.40        71.42033
869.80        70.73099
870.21        70.59084
870.61        71.17632
871.01        72.24673
871.41        73.31731
871.81        73.65392
872.22        73.10682
872.62        71.92598
873.02        70.53635
873.42        69.63776
873.82        69.46179
874.22        69.82306
874.63         70.4681
875.03        70.98697
875.43        71.24793
875.83        71.36862
876.23        71.49835
876.63        71.86211
877.03         72.4882
877.44        73.23463
877.84        73.91214
878.24         74.1812
878.64        73.96708
879.04        73.40099
879.44        72.70521
879.84        72.20567
880.24        71.99306
880.64        71.98244
881.04        72.07766
881.44        72.10968
881.84        72.03054
882.24         71.9139
882.65        71.76714
883.05        71.70783
883.45        71.72206
883.85         71.7586
884.25        71.84611
884.65        72.04409
885.05        72.35075
885.45        72.75687
885.85         73.1375
886.25        73.27702
886.65        73.12307
887.05        72.72467
887.45        72.27251
887.85        72.06744
888.25        72.18228
888.65        72.54965
889.04        72.95946
889.44        73.04379
889.84        72.73652
890.24        72.13961
890.64         71.5275
891.04        71.29185
891.44        71.50809
891.84        72.08347
892.24        72.69062
892.64        72.78011
893.04        72.24165
893.44        71.24995
893.83        70.26779
894.23        70.00342
894.63        70.56369
895.03        71.74245
895.43        73.03155
895.83        73.50949
896.23        72.95262
896.63        71.71955
897.02        70.31962
897.42        69.57993
897.82        69.61871
898.22        70.22742
898.62        71.13062
899.01         71.8867
899.41        72.27238
899.81        72.43492
900.21        72.56238
900.61         72.9642
901.00        73.68755
901.40        74.54903
901.80        75.27822
902.20         75.4894
902.59         75.1276
902.99        74.36573
903.39         73.4578
903.79        72.80688
904.18        72.52337
904.58        72.48454
904.98         72.6251
905.38        72.85142
905.77        73.09285
906.17        73.42737
906.57        73.64783
906.96        73.41763
907.36        72.70167
907.76        71.62073
908.15         70.6162
908.55         70.3706
908.95        71.03822
909.34        72.39793
909.74        73.96562
910.14        75.01397
910.53        75.29913
910.93         75.0285
911.33        74.42378
911.72        73.84436
912.12        73.45496
912.52        73.14226
912.91        72.89011
913.31        72.68143
913.70        72.52325
914.10        72.47468
914.49        72.55444
914.89        72.73527
915.29        73.00119
915.68        73.32169
916.08        73.65551
916.47         73.9699
916.87        74.22693
917.26        74.41418
917.66        74.50516
918.05        74.46461
918.45        74.29412
918.84        74.06042
919.24        73.80061
919.64        73.66254
920.03        73.70956
920.42        73.88097
920.82        74.15722
921.21        74.52789
921.61        74.92585
922.00        75.34605
922.40        75.65878
922.79        75.71538
923.19        75.46809
923.58        74.99043
923.98        74.37104
924.37        73.66704
924.77        72.95926
925.16        72.23397
925.55        71.64117
925.95        71.39688
926.34        71.57202
926.74        72.07606
927.13        72.78944
927.52        73.40182
927.92        73.80051
928.31        74.06291
928.70        74.21873
929.10        74.36358
929.49        74.54972
929.89        74.71192
930.28        74.85709
930.67        74.97015
931.07        75.02325
931.46        75.00686
931.85        74.94197
932.24        74.86129
932.64        74.77499
933.03        74.74718
933.42        74.63026
933.82        74.20624
934.21        73.48421
934.60        72.54163
934.99        71.77637
935.39        71.75967
935.78         72.6171
936.17        74.20509
936.56        75.96587
936.96        76.84894
937.35        76.58013
937.74         75.4163
938.13        73.99795
938.53        73.19714
938.92         73.1638
939.31        73.69035
939.70        74.40288
940.09        74.63367
940.49        74.20365
940.88         73.3761
941.27        72.52114
941.66        72.16949
942.05        72.44402
942.44         73.1748
942.84        74.04705
943.23        74.59113
943.62         74.5951
944.01        74.23692
944.40        73.77184
944.79        73.60398
945.18        73.83432
945.57        74.28428
945.97        74.81688
946.36        75.33004
946.75        75.72797
947.14        76.08483
947.53        76.29492
947.92         76.1568
948.31        75.67136
948.70         74.9184
949.09        74.19248
949.48        73.93944
949.87        74.26025
950.26        75.05717
950.65        76.06782
951.04        76.80839
951.43        77.09375
951.82        76.99786
952.21        76.73513
952.60         76.6594
952.99        76.82816
953.38        77.11511
953.77        77.24242
954.16        76.74607
954.55        75.59383
954.94        74.07356
955.33        72.57029
955.72        71.63353
956.11        71.40224
956.50        71.66126
956.89          72.311
957.28        73.19197
957.66        74.21457
958.05        75.30016
958.44        76.11674
958.83        76.02013
959.22        74.93983
959.61        73.14752
960.00        71.24947
960.39        70.10992
960.78        69.91772
961.16        70.47143
961.55        71.45027
961.94         72.3976
962.33        73.10143
962.72        73.69243
963.11        74.08105
963.49        74.12804
963.88        73.78897
964.27        73.11176
964.66        72.34169
965.04        71.85118
965.43        71.70657
965.82        71.82867
966.21        72.08729
966.60        72.20441
966.98        72.10559
967.37        71.87443
967.76        71.59562
968.15        71.37908
968.53        71.27338
968.92        71.19804
969.31        71.19454
969.69        71.36299
970.08        71.64797
970.47         72.0117
970.86        72.27935
971.24        72.15414
971.63        71.53347
972.02        70.60574
972.40         69.5423
972.79        68.62934
973.17        68.00446
973.56        67.61066
973.95        67.52733
974.33        67.87659
974.72        68.58835
975.11        69.59583
975.49         70.7765
975.88        71.80784
976.26        72.57476
976.65        73.04119
977.04        73.07001
977.42        72.45501
977.81         71.2499
978.19         69.5489
978.58        68.13889
978.96        67.95517
979.35        69.15631
979.74         71.5972
980.12        74.68137
980.51        76.55516
980.89        76.79312
981.28        75.68138
981.66        74.09359
982.05        73.59696
982.43        74.53379
982.82        76.35834
983.20        78.53485
983.59        79.97073
983.97        80.40954
984.35        80.18567
984.74        79.33972
985.12        78.04676
985.51        76.46714
985.89        74.55523
986.28        72.87803
986.66        72.18228
987.04        72.71735
987.43        74.27589
987.81        76.24828
988.20        77.34596
988.58        77.22761
988.96        76.04748
989.35        74.51973
989.73        73.80322
990.12        74.15221
990.50        75.34003
990.88        76.48515
991.27        76.17952
991.65        74.27575
992.03         71.3074
992.42        68.53304
992.80        67.61241
993.18        68.99303
993.56        72.07644
993.95        75.69414
994.33        78.10609
994.71        78.46056
995.10         77.2579
995.48        75.07938
995.86        72.93021
996.24        71.30643
996.63        69.98467
997.01        68.95998
997.39        68.21121
997.77        67.69461
998.15        67.50092
998.54        67.68282
998.92        68.23855
999.30        69.12764
999.68         70.3227
1000.06        71.49327
1000.45        72.09139
1000.83        72.09248
1001.21        71.45219
1001.59        70.66857
1001.97        70.67331
1002.35        71.65405
1002.73        73.31807
1003.12        74.93913
1003.50        75.25551
1003.88        74.09303
1004.26        72.03988
1004.64        69.79234
1005.02        68.30189
1005.40        67.85355
1005.78        68.14187
1006.16        69.11706
1006.54        70.66687
1006.92        72.54438
1007.30        74.65966
1007.69        76.48861
1008.07        77.42827
1008.45        77.25143
1008.83        76.17638
1009.21        74.50034
1009.59        72.79382
1009.97        71.37305
1010.35        70.16766
1010.73        69.58202
1011.11        70.24413
1011.49         72.2989
1011.86        75.86807
1012.24         79.9463
1012.62        83.02503
1013.00         84.4363
1013.38        84.19047
1013.76        83.13979
1014.14        83.09917
1014.52        84.59882
1014.90        87.19143
1015.28        89.50736
1015.66        89.15122
1016.04        86.00491
1016.41         81.4841
1016.79         77.4052
1017.17        75.24952
1017.55        75.01836
1017.93        76.16545
1018.31        78.23045
1018.69        79.48547
1019.06        78.95216
1019.44        77.66698
1019.82        76.03194
1020.20        74.06973
1020.58        71.72822
1020.95        68.58392
1021.33        65.51399
1021.71         65.0024
1022.09         68.1844
1022.46        74.27805
1022.84        80.95021
1023.22        85.13048
1023.60        86.08426
1023.97        84.68468
1024.35        81.52778
1024.73        77.98473
