SpectraSmart Spectrum 2.9.0.0
--------- Device Information -----------
Spectrum Name :  反射率_0
Saving Time :  2024/05/01 16:39:10
Spectro-Module Model Name : SE2030-DUVN
Spectro-Module Serial Number : OS361AC55029948
Wavelength Start : 200
Wavelength End : 1025
Wavelength Unit : Wavelength(nm)
Spectrum Unit : Reflectance(%)
-----------Spectrum Setting ------------
Integration Time : 20ms
Average : 10
Boxcar : 0
Background removal :  enabled
linearity correction :  enabled
SC :  disabled
Intensity correction :  disabled
DWT denoise :  enabled
savitzky-golay :  disabled
FFT :  disabled
Running average :  disabled
Kalman :  disabled
High pass :  disabled
---------------BEGIN--------------------
Wavelength(nm)             Reflectance(%)
200.29               0
200.75        179.7633
201.21        869.6937
201.67       -381.6997
202.13       -137.2284
202.58       -54.51567
203.04       -4.722993
203.50        26.84974
203.96        43.36636
204.42        50.39386
204.88        50.66059
205.34       -47.37216
205.80        66.73988
206.26        51.32396
206.72        31.11304
207.18       -63.20918
207.64        211.5884
208.10        117.4643
208.55        97.10602
209.01        86.78061
209.47        78.46554
209.93        70.09529
210.39        59.72878
210.85         49.0802
211.31        40.15279
211.77        28.47293
212.23        74.75654
212.69        47.49197
213.14        58.56371
213.60        113.3254
214.06        -499.294
214.52       -74.24753
214.98       -43.98899
215.44       -32.97935
215.90       -22.50496
216.36        50.48772
216.81       -34.51897
217.27        20.84642
217.73       -290.9875
218.19       -117.9463
218.65       -109.9606
219.11       -125.1614
219.57       -180.4485
220.02       -335.7073
220.48       -82.83086
220.94       -1.960184
221.40        10.98934
221.86        14.48214
222.32        17.27826
222.77        21.18533
223.23        26.32467
223.69        32.29609
224.15        34.55268
224.61        31.59365
225.06        27.09914
225.52        23.83042
225.98         22.2645
226.44         21.9694
226.90        22.51021
227.36        23.79432
227.81        25.08663
228.27        25.65376
228.73        25.74553
229.19        25.70598
229.65        25.77679
230.10        26.03291
230.56        26.68164
231.02        27.53096
231.48        28.10892
231.93        28.18047
232.39         27.9344
232.85        28.08586
233.31        29.42083
233.77        31.71009
234.22        34.55134
234.68        37.09864
235.14        38.51605
235.60        38.72066
236.05        37.80429
236.51        36.20451
236.97        35.87318
237.43        38.17959
237.88        42.75812
238.34        47.28037
238.80        49.33327
239.26         48.2783
239.71        43.79378
240.17        35.50167
240.63        27.90051
241.08        27.12928
241.54        32.91503
242.00        40.96829
242.46        47.97832
242.91        55.20054
243.37        65.02464
243.83        80.31828
244.28        95.21174
244.74        96.98883
245.20        90.37455
245.66         83.6938
246.11        80.10696
246.57        78.95621
247.03        79.11676
247.48        77.29977
247.94        64.89307
248.40        39.90981
248.85        10.21225
249.31       -7.400752
249.77        -2.36846
250.22        15.88717
250.68        36.94193
251.14        53.56039
251.59        62.23296
252.05        64.35987
252.51        60.11899
252.96         46.0653
253.42        34.52133
253.88        56.38976
254.33        81.37216
254.79        88.89687
255.25        85.29305
255.70        77.48637
256.16        70.21552
256.62        64.82647
257.07        62.41548
257.53        62.56451
257.99        63.48679
258.44        64.29028
258.90        64.83195
259.35        64.71262
259.81        64.42208
260.27        63.79515
260.72        62.69897
261.18        61.50801
261.63         60.0293
262.09        58.61717
262.55        57.23347
263.00        55.79284
263.46        54.44724
263.91        53.06456
264.37        51.79432
264.83        50.59221
265.28         49.4641
265.74          48.426
266.19        47.24203
266.65         46.0006
267.11        44.65755
267.56        43.45457
268.02        42.86725
268.47        42.88811
268.93         43.3301
269.38        43.72153
269.84        43.25053
270.30        41.80235
270.75        39.66783
271.21        37.39898
271.66        35.70304
272.12        34.81437
272.57        34.43465
273.03        34.36176
273.48        34.22795
273.94         33.9186
274.39        33.52617
274.85        33.04232
275.31          32.378
275.76        31.55445
276.22        30.64972
276.67        29.75216
277.13        29.10115
277.58        28.67093
278.04         28.4186
278.49          28.241
278.95        28.08579
279.40        27.86433
279.86        27.63333
280.31        27.30074
280.77        26.82693
281.22        26.18937
281.68        25.48036
282.13        24.76007
282.59        24.19294
283.04         23.7884
283.50        23.54991
283.95        23.43197
284.41        23.40645
284.86        23.43626
285.32        23.53006
285.77        23.68128
286.22        23.91808
286.68        24.23314
287.13        24.58235
287.59        24.89642
288.04        25.02542
288.50        24.97419
288.95        24.76328
289.41        24.54039
289.86        24.44351
290.32         24.5339
290.77        24.76746
291.22        25.07777
291.68        25.34789
292.13         25.5614
292.59        25.80506
293.04        26.14386
293.50        26.72247
293.95        27.55314
294.40         28.5896
294.86        29.78149
295.31        31.05863
295.77        32.37528
296.22        33.73423
296.68        35.09901
297.13        36.40423
297.58        37.67369
298.04        38.95226
298.49        40.30272
298.95        41.86124
299.40        43.61406
299.85        45.49632
300.31        47.47449
300.76        49.49389
301.21        51.54861
301.67        53.67258
302.12        55.74499
302.58        57.59615
303.03        59.16026
303.48        60.51418
303.94        61.89905
304.39        63.58339
304.84        65.67872
305.30        68.08192
305.75        70.59327
306.20         72.9231
306.66        74.96981
307.11        76.75008
307.57        78.35418
308.02        79.81299
308.47        81.20029
308.93        82.51091
309.38         83.7186
309.83        84.88072
310.29        86.03208
310.74        87.16743
311.19        88.30645
311.65        89.44544
312.10        90.55296
312.55        91.61401
313.00         92.6558
313.46        93.72649
313.91        94.80579
314.36        95.87361
314.82        96.77959
315.27        97.30331
315.72        97.40632
316.18        97.20673
316.63        96.89668
317.08        96.83476
317.53        97.11319
317.99        97.64333
318.44        98.28954
318.89        98.79118
319.35        99.07167
319.80        99.23107
320.25        99.34937
320.70        99.55956
321.16        99.88508
321.61        100.2706
322.06        100.6977
322.51        101.1665
322.97         101.629
323.42        102.1277
323.87        102.5389
324.32          102.68
324.78        102.5222
325.23        102.1641
325.68        101.7682
326.13        101.6233
326.59        101.7902
327.04         102.241
327.49        102.8489
327.94        103.4145
328.39        103.8548
328.85        104.1748
329.30        104.4747
329.75        104.7705
330.20        105.0822
330.66        105.3621
331.11        105.6385
331.56        105.8424
332.01        105.9847
332.46        106.0974
332.92        106.2622
333.37        106.7163
333.82        107.4705
334.27        108.4809
334.72        109.5847
335.17        110.4891
335.63         111.063
336.08         111.409
336.53        111.6302
336.98        111.9776
337.43        112.5239
337.88        113.1989
338.34        113.8487
338.79        114.3058
339.24        114.4893
339.69        114.4829
340.14        114.4499
340.59        114.6329
341.05        115.0873
341.50         115.761
341.95        116.5033
342.40        117.0731
342.85        117.4085
343.30         117.585
343.75        117.7514
344.20        118.1376
344.66        118.7867
345.11        119.6114
345.56        120.4698
346.01        121.1206
346.46        121.4952
346.91         121.684
347.36        121.7907
347.81        121.9708
348.26        122.2792
348.72        122.6724
349.17         123.101
349.62         123.561
350.07        124.0002
350.52        124.3712
350.97         124.624
351.42        124.6711
351.87        124.5038
352.32         124.207
352.77        123.7106
353.22         122.914
353.67        121.8673
354.13        120.6482
354.58        119.5774
355.03        119.2513
355.48        119.7453
355.93        120.9105
356.38        122.1589
356.83        122.4979
357.28        121.7065
357.73         120.081
358.18        118.3161
358.63        117.4535
359.08        117.6875
359.53        118.6775
359.98         119.797
360.43        120.0064
360.88        119.0442
361.33         117.291
361.78        115.3129
362.23        113.9084
362.68        113.2723
363.13        113.1473
363.58        113.1854
364.03        112.8536
364.48         111.996
364.93          110.78
365.38        109.4867
365.83         108.515
366.28        107.9479
366.73        107.6607
367.18         107.337
367.63        106.4951
368.08        105.0791
368.53        103.2975
368.98        101.5824
369.43        100.5449
369.88        100.2878
370.33         100.605
370.78        101.1081
371.23        101.1212
371.68        100.4454
372.13        99.30821
372.58        98.00467
373.03         96.9724
373.48        96.32333
373.93        95.88641
374.38        95.56259
374.83        95.21231
375.28        94.77365
375.72        94.30699
376.17         93.7905
376.62        93.10933
377.07        92.26897
377.52        91.29518
377.97         90.3422
378.42         89.6646
378.87        89.30986
379.32        89.20286
379.77        89.17294
380.22        88.94896
380.67        88.46621
381.11        87.81001
381.56        87.10547
382.01        86.58382
382.46        86.30849
382.91        86.19666
383.36        86.13975
383.81        85.97536
384.26        85.65479
384.71        85.23383
385.15        84.75628
385.60        84.33623
386.05        83.99093
386.50         83.6906
386.95         83.4067
387.40        83.10575
387.85        82.77909
388.29        82.39116
388.74        82.05782
389.19        81.74937
389.64        81.45653
390.09        81.15829
390.54        80.82982
390.98        80.41853
391.43        79.98319
391.88        79.54808
392.33         79.1516
392.78        78.79284
393.23        78.47514
393.67        78.21519
394.12        78.12998
394.57        77.75742
395.02        78.12342
395.47        77.78478
395.91        77.19234
396.36        76.93025
396.81         77.0514
397.26         77.2511
397.71        77.32125
398.15        77.12046
398.60        76.71342
399.05         75.9625
399.50        75.18611
399.95        75.16436
400.39         75.8092
400.84        76.14482
401.29         75.9959
401.74        75.81981
402.18        75.58067
402.63        74.89873
403.08         73.9985
403.53        73.41592
403.97        73.22498
404.42         73.2811
404.87         73.4574
405.32        73.52432
405.76        73.39948
406.21        73.29846
406.66        73.22941
407.11        72.91871
407.55        72.53848
408.00        72.68122
408.45        73.22456
408.90        73.38287
409.34        73.03548
409.79        72.50222
410.24        71.96198
410.68        71.64088
411.13        71.60591
411.58        71.71671
412.03        71.89496
412.47        72.06703
412.92        72.15241
413.37        72.18285
413.81        72.14722
414.26        72.09029
414.71        72.00575
415.15         71.8946
415.60        71.75401
416.05        71.64834
416.49         71.5974
416.94        71.58407
417.39        71.59457
417.83        71.58789
418.28        71.55559
418.73        71.51263
419.17        71.46064
419.62        71.40675
420.07        71.35085
420.51        71.27631
420.96        71.23966
421.41        71.21876
421.85        71.19415
422.30        71.31471
422.74        71.50195
423.19        71.50848
423.64        71.39764
424.08        71.66298
424.53        72.22066
424.98          72.512
425.42        72.45683
425.87        72.53065
426.31        72.71428
426.76        72.28539
427.21        71.54469
427.65        71.85612
428.10        72.90443
428.54        73.21342
428.99        72.76921
429.44        71.86611
429.88        70.95585
430.33        71.64723
430.77        73.33973
431.22        73.41202
431.66         72.0251
432.11        71.50483
432.56        71.97059
433.00        72.51874
433.45         72.9562
433.89        72.84379
434.34        71.64631
434.78        73.64017
435.23        72.76192
435.67        73.16681
436.12        73.17281
436.57        73.59293
437.01        74.28363
437.46        74.67555
437.90        74.81374
438.35        74.11736
438.79        74.41974
439.24        73.98248
439.68        73.46693
440.13        73.42624
440.57        73.90416
441.02        74.20188
441.46        74.18026
441.91        74.69462
442.35        75.56003
442.80        74.70061
443.24        74.96335
443.69        74.66077
444.13        74.68256
444.58         74.7027
445.02        74.73793
445.47        74.96639
445.91        75.33171
446.36        75.72424
446.80        76.09154
447.24        76.47234
447.69        76.79265
448.13        76.91563
448.58        76.84623
449.02        76.59419
449.47        76.31128
449.91        76.19602
450.36        76.31344
450.80        76.58189
451.25        76.88678
451.69        76.99649
452.13        76.86686
452.58        76.57424
453.02        76.21826
453.47        75.98947
453.91         75.9169
454.36        75.99052
454.80        76.10639
455.24        76.03984
455.69        75.75621
456.13        75.59045
456.58         75.1918
457.02        75.08137
457.46         75.1833
457.91        75.60152
458.35        76.10033
458.79        76.08762
459.24        75.52407
459.68        74.84648
460.13        74.43443
460.57        73.32619
461.01        73.69864
461.46        73.94355
461.90        74.47386
462.34        74.38213
462.79        74.07092
463.23        74.07439
463.68        74.38812
464.12         74.4159
464.56        74.17121
465.01        73.44854
465.45        73.55617
465.89        73.32964
466.34        73.06683
466.78        73.32092
467.22        72.62215
467.67        72.62835
468.11        72.60723
468.55        72.66833
468.99        72.68528
469.44        72.72028
469.88        72.78686
470.32        72.84879
470.77        72.89931
471.21        72.94375
471.65        72.96116
472.10        72.95735
472.54        72.93125
472.98        72.88528
473.42        72.81577
473.87        72.83619
474.31        72.86521
474.75        72.61819
475.20        72.23522
475.64        72.19746
476.08        72.53046
476.52        72.57576
476.97        72.34958
477.41        72.05975
477.85        71.53878
478.29        72.01281
478.74        71.98726
479.18        72.03062
479.62        71.73808
480.06        71.72607
480.50        72.01407
480.95        71.24816
481.39         71.9437
481.83        71.14677
482.27         71.4598
482.72        71.61829
483.16        71.54377
483.60        71.76864
484.04        72.05537
484.48        72.00538
484.93        71.86047
485.37        72.68889
485.81        72.26364
486.25         73.0885
486.69        72.40407
487.14        70.14742
487.58        69.57101
488.02        71.68576
488.46        71.44924
488.90        70.72774
489.34        71.87889
489.79        71.82234
490.23        71.18068
490.67        71.09126
491.11        71.41578
491.55        71.60314
491.99        71.54371
492.43        71.48677
492.88        71.42853
493.32        71.28099
493.76        71.08927
494.20         70.9989
494.64        71.01616
495.08        71.05215
495.52         71.1489
495.96        71.29815
496.41         71.3457
496.85        71.70005
497.29        71.50199
497.73        70.72523
498.17        70.56107
498.61        70.41014
499.05        70.64621
499.49        70.77438
499.93        70.73513
500.37        70.80914
500.82        71.03871
501.26        70.99335
501.70        71.10433
502.14        71.59476
502.58         71.4456
503.02        71.46231
503.46        71.31754
503.90        71.04652
504.34        70.76057
504.78        70.66602
505.22        70.78413
505.66        71.13551
506.10        71.60123
506.54        71.66639
506.98        71.20666
507.42        71.55971
507.86        70.70718
508.30        70.57996
508.74        70.59694
509.18        70.74441
509.62        70.93914
510.06        71.09064
510.50        71.17876
510.94        71.21517
511.38        71.21754
511.82        71.20808
512.26        71.19475
512.70        71.15216
513.14         71.0752
513.58        71.01864
514.02        70.99712
514.46        70.89966
514.90        70.72637
515.34        70.86234
515.78        70.55723
516.22        70.44057
516.66        70.32339
517.10        70.27985
517.54        70.31436
517.98         70.4146
518.42         70.5536
518.86        70.66341
519.30        70.72672
519.74        70.76132
520.18        70.77463
520.62        70.78455
521.06        70.79404
521.50        70.78102
521.93         70.7663
522.37        70.77561
522.81        70.81501
523.25        70.88901
523.69        70.92944
524.13        70.82521
524.57        70.57403
525.01        70.22086
525.45         69.8984
525.89          69.813
526.32        69.99905
526.76        70.38392
527.20        70.82436
527.64        71.08932
528.08        71.11446
528.52         70.9743
528.96        70.75249
529.40         70.5834
529.83        70.50301
530.27        70.47888
530.71        70.49583
531.15        70.55096
531.59        70.63259
532.03        70.74981
532.46        70.84966
532.90        70.86287
533.34        70.78097
533.78        70.57265
534.22        70.31515
534.66        70.25163
535.09        70.33964
535.53        70.29064
535.97        70.10671
536.41        70.04311
536.85        70.10194
537.28        70.13203
537.72        70.12698
538.16        70.14162
538.60        70.17063
539.04        70.19395
539.47        70.19861
539.91        70.20667
540.35        70.20142
540.79        70.20844
541.22        70.22585
541.66        70.15063
542.10        70.16102
542.54        70.11607
542.97        70.06943
543.41        70.05685
543.85        70.07028
544.29         70.1025
544.72        70.12698
545.16        70.14004
545.60        70.12379
546.04        70.08054
546.47        70.02309
546.91        69.98414
547.35         69.9794
547.79        69.98315
548.22        69.94556
548.66        69.93958
549.10        69.96168
549.53        69.68341
549.97         69.7461
550.41        69.75489
550.84        69.88949
551.28        70.12851
551.72        70.40864
552.15        70.53111
552.59        70.45977
553.03        70.53478
553.46        70.23499
553.90        70.21989
554.34        70.34793
554.77        70.40672
555.21        70.29952
555.65         70.7149
556.08        70.29578
556.52        70.10973
556.96        69.82557
557.39         69.6661
557.83        69.67525
558.27        69.68913
558.70        69.69299
559.14         69.9866
559.57        69.93916
560.01         70.2366
560.45        70.53484
560.88        70.44076
561.32        70.08188
561.75        69.66572
562.19        69.40152
562.63        69.70977
563.06        70.37001
563.50        70.27879
563.93        69.54782
564.37        69.31052
564.80        69.71222
565.24        69.92942
565.68        69.98806
566.11        70.01936
566.55        70.05304
566.98        70.00359
567.42        69.93225
567.85        69.90194
568.29        69.94682
568.72        69.98015
569.16         70.0481
569.60        70.22818
570.03        69.88741
570.47        70.23051
570.90        70.41271
571.34        69.72308
571.77        70.04868
572.21        69.87926
572.64        69.92525
573.08        69.61869
573.51        70.07116
573.95        70.60041
574.38        69.94826
574.82        70.49387
575.25        70.36678
575.69        70.57354
576.12        70.19883
576.56        69.96088
576.99        70.37062
577.42        70.34532
577.86        70.21007
578.29        70.31149
578.73        71.32146
579.16        70.09575
579.60        69.88773
580.03         69.5673
580.47        70.30218
580.90        69.59056
581.33        70.71818
581.77        70.76462
582.20        70.58089
582.64        70.16851
583.07         70.0826
583.51        69.90228
583.94        69.99525
584.37        70.35371
584.81        70.88673
585.24        70.76936
585.68        70.27592
586.11        70.45061
586.54        70.10342
586.98        69.73136
587.41        69.53503
587.85        70.33115
588.28        70.38223
588.71        69.17044
589.15        70.35595
589.58        69.66917
590.01        69.80711
590.45        69.74477
590.88        69.89156
591.31        69.94717
591.75        69.76429
592.18        69.83325
592.61        69.10999
593.05        69.59561
593.48        69.47791
593.91        69.92136
594.35        69.59558
594.78        69.50488
595.21        69.37317
595.65        70.01991
596.08        69.69952
596.51        69.44035
596.94        69.46368
597.38         69.2974
597.81        69.17426
598.24        69.41148
598.68        69.71341
599.11        69.10199
599.54        70.42013
599.97        69.82153
600.41        69.37679
600.84        69.79061
601.27        69.62348
601.70        70.28426
602.14        70.55766
602.57         70.4073
603.00        69.79527
603.43        69.38292
603.87        69.74837
604.30        69.75394
604.73        69.61819
605.16        69.40719
605.60        69.60966
606.03        69.88331
606.46        70.12064
606.89        70.10262
607.32        69.50797
607.76        69.29452
608.19         69.4165
608.62        69.89542
609.05        69.89335
609.48        69.98228
609.92        69.61478
610.35        69.10738
610.78        70.41135
611.21        70.56085
611.64         70.0621
612.07        70.62108
612.50        70.50726
612.94        70.33617
613.37         69.6454
613.80        70.25726
614.23        69.46603
614.66        69.82912
615.09        69.50517
615.52        69.65697
615.96        69.83862
616.39        70.33487
616.82        70.21694
617.25        70.15023
617.68        70.22872
618.11        70.08684
618.54        69.85954
618.97        69.62558
619.40        69.48962
619.84        69.40593
620.27        69.38535
620.70        69.78351
621.13        70.49756
621.56         69.8643
621.99        69.68793
622.42        69.72084
622.85        69.72351
623.28        70.11069
623.71        69.41621
624.14        70.17087
624.57        69.93446
625.00        70.26524
625.43        70.52653
625.86        70.08657
626.29         69.6442
626.72        69.66191
627.15        69.50693
627.58         69.0467
628.01        68.99554
628.44        69.13566
628.87        69.67406
629.30        69.35252
629.73        69.42153
630.16        69.38215
630.59        69.58991
631.02        69.73415
631.45        69.76986
631.88        69.74857
632.31        69.65443
632.74        69.48663
633.17        69.31245
633.60        69.24247
634.03        69.30039
634.46        69.45916
634.89        69.64594
635.32        69.73305
635.75        69.68622
636.18         69.5451
636.61        69.36404
637.04        69.23289
637.47        69.18623
637.89        69.18499
638.32        69.17756
638.75        69.19189
639.18        69.23063
639.61        69.01204
640.04        69.07661
640.47        69.03751
640.90        69.05601
641.33        69.09336
641.76        69.11699
642.18         69.1712
642.61        69.24851
643.04        69.19487
643.47         68.9603
643.90        69.44241
644.33        69.14783
644.76        69.16768
645.18        69.11485
645.61        69.34155
646.04        69.73869
646.47        69.74928
646.90        69.41788
647.33        69.29589
647.75        69.40304
648.18        69.36565
648.61        69.23045
649.04        69.21284
649.47        69.26285
649.89        69.43764
650.32        69.61359
650.75        69.14922
651.18        68.33439
651.61        68.54984
652.03        69.67496
652.46        70.03458
652.89        69.51219
653.32        69.36366
653.74        69.79715
654.17        69.19315
654.60        69.42674
655.03        69.87733
655.46        68.68867
655.88        69.01041
656.31        76.77476
656.74        74.06742
657.16        67.90155
657.59         67.0697
658.02        69.01305
658.45        69.49474
658.87         69.8196
659.30        68.60679
659.73        68.86892
660.15        70.52678
660.58        69.31561
661.01        69.25538
661.44        68.99436
661.86        69.04147
662.29        69.32269
662.72        69.46915
663.14        69.49738
663.57        69.56126
664.00        69.67692
664.42        69.72704
664.85        69.71278
665.27        69.66074
665.70        69.56791
666.13        69.50765
666.55        69.49526
666.98        69.50274
667.41        69.53913
667.83        69.62466
668.26        69.73458
668.69        69.85822
669.11        69.97097
669.54         70.0424
669.96        70.05025
670.39        69.98535
670.82         69.8773
671.24        69.71582
671.67        69.57346
672.09         69.6329
672.52        69.84827
672.94        69.90814
673.37         69.7915
673.80        69.65842
674.22        69.55347
674.65        69.44697
675.07        69.37243
675.50        69.32228
675.92        69.30363
676.35        69.31145
676.77        69.33389
677.20        69.39638
677.62         69.4985
678.05         69.5104
678.47        69.40156
678.90        69.64486
679.32         69.4555
679.75        69.48635
680.17        69.50238
680.60         69.5141
681.02        69.53584
681.45        69.57132
681.87        69.63473
682.30        69.76708
682.72        69.93066
683.15        69.87317
683.57        69.66089
684.00         69.6596
684.42        69.85238
684.85        69.92463
685.27        69.85011
685.70        69.82741
686.12        69.84216
686.54        69.78279
686.97        69.63892
687.39        69.53791
687.82        69.46675
688.24        69.23888
688.66        68.95373
689.09        69.04898
689.51        69.47938
689.94        69.71003
690.36        69.70461
690.78        69.77665
691.21        69.97086
691.63        70.10991
692.06        70.25883
692.48        70.73303
692.90        71.36739
693.33        71.60323
693.75        71.38342
694.17        70.90823
694.60        70.38052
695.02        70.09879
695.44        70.07572
695.87        70.10877
696.29        70.12895
696.71        69.93793
697.14        69.66406
697.56        69.90002
697.98        70.53375
698.41        70.83427
698.83        70.74598
699.25        70.67002
699.68        70.63956
700.10        70.60009
700.52        70.56757
700.94        70.51341
701.37        70.45728
701.79         70.5604
702.21         70.7483
702.64        70.81419
703.06        70.76122
703.48        70.66593
703.90        70.51498
704.33        70.71555
704.75        70.38811
705.17        70.34155
705.59         70.3259
706.01         70.3288
706.44        70.36832
706.86        70.51399
707.28        70.75034
707.70        71.05597
708.12        71.33717
708.55        71.41553
708.97        71.27126
709.39        71.00909
709.81        70.72312
710.23         70.5378
710.66        70.50411
711.08        70.61799
711.50        70.79539
711.92        70.90129
712.34        70.90113
712.76        70.84087
713.19        70.74732
713.61        70.71321
714.03        70.74076
714.45        70.79841
714.87        70.87677
715.29        70.96732
715.71        71.06102
716.13        71.16392
716.56        71.23288
716.98        71.28489
717.40        71.28386
717.82        71.22825
718.24        71.15498
718.66        71.12631
719.08        71.15458
719.50        71.22841
719.92        71.29312
720.34        71.25851
720.76        71.11238
721.19        70.88818
721.61        70.67197
722.03        70.58996
722.45        70.67667
722.87        70.90147
723.29        71.18134
723.71        71.37809
724.13        71.44511
724.55        71.40188
724.97        71.33061
725.39        71.36843
725.81        71.53931
726.23        71.79984
726.65        72.02042
727.07        71.99627
727.49        71.69902
727.91        71.21117
728.33        70.70983
728.75        70.47008
729.17        70.55564
729.59        70.87747
730.01        71.29237
730.43        71.55897
730.85        71.60007
731.27        71.48641
731.69        71.27949
732.10        71.14116
732.52        71.03016
732.94         70.9528
733.36         70.8992
733.78        71.01906
734.20        71.11423
734.62        71.36005
735.04        71.63757
735.46        71.74772
735.88        71.71192
736.30        71.78207
736.72        71.92612
737.13        71.93593
737.55        71.78784
737.97        71.54752
738.39        71.33041
738.81        71.45618
739.23         71.8621
739.65        72.04599
740.06        71.93945
740.48        71.95839
740.90        72.07074
741.32        72.05531
741.74        71.90501
742.16        71.76761
742.57          71.672
742.99        71.53345
743.41        71.43656
743.83        71.57324
744.25        71.91055
744.67        72.24953
745.08        72.49133
745.50         72.5415
745.92        72.38205
746.34        71.99642
746.75        71.50705
747.17        71.18678
747.59        71.08123
748.01        71.12357
748.42        71.27776
748.84         71.4416
749.26        71.58539
749.68        71.73543
750.09        71.86498
750.51        71.94971
750.93        71.97944
751.35        71.95127
751.76        71.90604
752.18        71.91006
752.60         71.9852
753.01        72.13358
753.43        72.29123
753.85        72.39745
754.27        72.43517
754.68        72.41996
755.10        72.40593
755.52        72.47298
755.93        72.62419
756.35        72.82483
756.77        73.00794
757.18        73.03426
757.60        72.89492
758.02         72.7336
758.43        72.56947
758.85        72.31558
759.26        72.08404
759.68        72.20967
760.10        72.63752
760.51        72.99702
760.93        73.13465
761.34        73.00553
761.76        72.68063
762.18        72.35827
762.59        72.26411
763.01        72.13204
763.42        72.92287
763.84        73.11266
764.26        72.96214
764.67        72.70711
765.09        72.57302
765.50        72.54302
765.92        72.67622
766.33         72.7188
766.75        72.53188
767.16        72.95422
767.58        72.89141
768.00        72.86279
768.41        72.72494
768.83        73.32382
769.24        74.41211
769.66        74.71684
770.07         74.2437
770.49        73.90215
770.90        73.81318
771.32        73.72459
771.73        73.62847
772.15        73.46758
772.56        73.26903
772.97        73.17818
773.39         73.2062
773.80        73.31384
774.22        73.45644
774.63        73.70201
775.05        73.94683
775.46        74.08776
775.88        74.06608
776.29        73.93681
776.70        73.76962
777.12        73.70488
777.53        73.79691
777.95        73.98793
778.36        74.20581
778.77           74.28
779.19        74.16109
779.60        73.96928
780.02        73.78035
780.43        73.50003
780.84        73.24984
781.26        73.50414
781.67        74.07829
782.09        74.06098
782.50         73.4836
782.91        73.10711
783.33        73.07439
783.74        73.17065
784.15        73.43516
784.57        73.98578
784.98        74.72597
785.39        75.34537
785.81        75.75132
786.22        75.78297
786.63        75.90397
787.04        75.81081
787.46        75.70412
787.87        75.51516
788.28        75.34355
788.70        75.31918
789.11         75.4342
789.52        75.68225
789.93        75.96629
790.35        76.10944
790.76        76.08633
791.17        75.92617
791.58        75.70142
792.00        75.51859
792.41        75.42822
792.82        75.38539
793.23        75.36188
793.65        75.37201
794.06        75.39896
794.47         75.3133
794.88        75.19055
795.29        75.26071
795.71        75.47219
796.12        75.80795
796.53        76.14687
796.94        76.31291
797.35        76.23343
797.76         75.9692
798.18        75.65705
798.59        75.47153
799.00        75.47465
799.41        75.60959
799.82        75.81796
800.23        76.00077
800.64        76.11363
801.06        76.16328
801.47        76.18435
801.88         76.1237
802.29        75.99149
802.70        75.80515
803.11        75.61646
803.52        75.51317
803.93        75.52313
804.34        75.61799
804.75        75.79607
805.17        76.05125
805.58        76.39721
805.99        76.72781
806.40        76.95731
806.81        77.10342
807.22        77.07857
807.63        76.59422
808.04        75.82989
808.45        75.39393
808.86        75.38789
809.27         75.5443
809.68        75.76739
810.09        75.97608
810.50         76.1093
810.91         76.2052
811.32        76.25909
811.73        76.25982
812.14        76.21896
812.55        76.12185
812.96        76.04724
813.37        76.14069
813.78        76.42204
814.19        76.84274
814.60        77.27467
815.01         77.5216
815.42        77.53631
815.83        77.36399
816.24        77.09502
816.65        76.90958
817.05        76.87862
817.46        76.93079
817.87        77.01888
818.28        77.02129
818.69        76.90971
819.10         76.7265
819.51        76.54182
819.92        76.47755
820.33        76.56243
820.74        76.73823
821.14        76.92026
821.55          77.018
821.96        76.99323
822.37        76.89893
822.78        76.76048
823.19         76.6205
823.60         76.5174
824.00        76.46353
824.41         76.4757
824.82          76.698
825.23        77.12574
825.64        77.69218
826.04        78.28217
826.45        78.61231
826.86        78.63285
827.27        78.42384
827.68        78.01793
828.08        77.50351
828.49        76.91711
828.90        76.26461
829.31        75.72556
829.72        75.57224
830.12        75.88699
830.53        76.58243
830.94        77.38894
831.35        77.75002
831.75        77.53316
832.16         76.8361
832.57        76.06972
832.97        75.86594
833.38         76.3344
833.79        77.26144
834.20        78.27117
834.60        78.72662
835.01        78.42822
835.42        77.64137
835.82        76.64617
836.23        75.85633
836.64          75.425
837.04        75.23952
837.45         75.2729
837.86        75.55238
838.26        76.03777
838.67        76.67968
839.08        77.31554
839.48        77.63542
839.89        77.55191
840.29        77.14871
840.70         76.5784
841.11        76.06616
841.51        75.71951
841.92        75.46693
842.33        75.36519
842.73        75.50362
843.14        75.82732
843.54        76.37479
843.95        76.96375
844.35        77.35534
844.76        77.43816
845.17        77.25002
845.57        76.94499
845.98        76.77325
846.38        76.82088
846.79        77.01013
847.19        77.20216
847.60        77.07163
848.00        76.59368
848.41        75.87479
848.81         75.1961
849.22        74.95338
849.62        75.24504
850.03        75.92056
850.43        76.73588
850.84        77.11121
851.24        76.95777
851.65        76.40063
852.05        75.76122
852.46        75.53264
852.86        75.81519
853.27        76.41654
853.67        77.08961
854.07        77.71115
854.48        78.15467
854.88        78.58586
855.29        78.75835
855.69        78.52052
856.10        77.76051
856.50        76.64639
856.90        75.52131
857.31        74.89229
857.71        74.85499
858.12        75.22865
858.52        75.85958
858.92        76.21103
859.33          76.092
859.73        75.70719
860.13        75.12872
860.54        74.51016
860.94        73.93028
861.34        73.30891
861.75        72.78188
862.15        72.64758
862.55        72.93554
862.96        73.58446
863.36        74.31326
863.76        74.55872
864.17        74.20171
864.57        73.40741
864.97        72.55251
865.38        72.27122
865.78        72.74665
866.18        73.76701
866.58        74.94576
866.99        75.58398
867.39        75.50166
867.79        74.92027
868.19        74.13744
868.60        73.55236
869.00        73.28454
869.40        73.20998
869.80        73.31527
870.21        73.58196
870.61        74.00454
871.01        74.52883
871.41        74.98021
871.81        75.08398
872.22        74.78511
872.62        74.16055
873.02        73.37283
873.42        72.70573
873.82        72.29118
874.22        72.11456
874.63        72.13564
875.03        72.26995
875.43        72.48193
875.83        72.76521
876.23        73.19333
876.63        73.88007
877.03        74.78906
877.44        75.81565
877.84        76.68965
878.24         76.9253
878.64        76.44478
879.04        75.43602
879.44        74.27369
879.84        73.52484
880.24        73.33389
880.64        73.54202
881.04        73.97306
881.44        74.32023
881.84        74.48083
882.24         74.5717
882.65        74.56649
883.05        74.52811
883.45        74.44264
883.85        74.26717
884.25        74.13371
884.65        74.26268
885.05        74.68195
885.45        75.34631
885.85        76.03304
886.25         76.3483
886.65        76.18409
887.05        75.63472
887.45        74.98027
887.85        74.66417
888.25        74.79549
888.65         75.2646
889.04        75.77948
889.44        75.84393
889.84        75.37173
890.24        74.52235
890.64        73.67007
891.04        73.34428
891.44        73.64954
891.84        74.45198
892.24        75.34146
892.64        75.62544
893.04         75.1486
893.44         74.1215
893.83        73.08041
894.23        72.85194
894.63        73.56223
895.03        74.95702
895.43        76.44994
895.83        76.98361
896.23        76.30405
896.63        74.83949
897.02        73.16571
897.42        72.19533
897.82        72.07077
898.22        72.55814
898.62         73.4007
899.01        74.19136
899.41        74.70267
899.81        75.07704
900.21        75.43799
900.61        75.97703
901.00        76.71403
901.40        77.49739
901.80         78.1199
902.20        78.30625
902.59        78.02647
902.99        77.40434
903.39        76.67695
903.79        76.21482
904.18        76.10855
904.58        76.26381
904.98        76.54703
905.38        76.76038
905.77        76.82636
906.17        76.83368
906.57        76.73461
906.96        76.46252
907.36        76.02102
907.76        75.44814
908.15        74.93618
908.55        74.75396
908.95        74.97967
909.34        75.54926
909.74        76.24442
910.14        76.77524
910.53        77.02657
910.93        77.06039
911.33         76.9641
911.72        76.88301
912.12        76.88435
912.52        76.91285
912.91        76.89201
913.31        76.70322
913.70        76.34487
914.10        75.87835
914.49        75.45836
914.89        75.28902
915.29        75.41289
915.68        75.76671
916.08        76.18145
916.47        76.39529
916.87        76.32905
917.26        76.05959
917.66        75.72527
918.05        75.53041
918.45        75.52335
918.84        75.68928
919.24        75.91415
919.64        76.08313
920.03        76.17471
920.42        76.20494
920.82        76.27125
921.21        76.54248
921.61        76.99717
922.00        77.56242
922.40        78.04951
922.79        78.21581
923.19        77.97272
923.58        77.43723
923.98        76.71599
924.37        75.86725
924.77        75.00051
925.16        74.13005
925.55        73.43612
925.95        73.19337
926.34        73.48775
926.74        74.17451
927.13        75.17755
927.52        76.25923
927.92        77.26829
928.31        78.23291
928.70         78.9305
929.10        79.05424
929.49        78.59661
929.89        77.63415
930.28        76.51582
930.67        75.79194
931.07        75.61283
931.46        75.83682
931.85        76.28303
932.24        76.62173
932.64        76.73154
933.03        76.77631
933.42        76.66451
933.82        76.26588
934.21         75.6072
934.60        74.69265
934.99        73.89948
935.39        73.79113
935.78        74.49261
936.17        75.89274
936.56        77.42628
936.96        78.02809
937.35        77.45927
937.74         76.0051
938.13        74.39276
938.53        73.60397
938.92        73.78667
939.31        74.69133
939.70        75.83307
940.09        76.32455
940.49        75.92477
940.88        74.98281
941.27        73.95032
941.66        73.48908
942.05        73.76927
942.44        74.55805
942.84        75.60653
943.23        76.56287
943.62        77.18446
944.01         77.5927
944.40        77.78356
944.79        77.75589
945.18        77.55881
945.57        77.16691
945.97        76.73148
946.36        76.61245
946.75        76.84566
947.14        77.36381
947.53        77.96152
947.92        78.24197
948.31        78.09083
948.70         77.6441
949.09        77.08829
949.48        76.69753
949.87        76.57128
950.26         76.6538
950.65        76.89478
951.04        77.21104
951.43        77.54237
951.82        77.86106
952.21        78.20355
952.60        78.64333
952.99        79.14346
953.38        79.63412
953.77        79.88391
954.16        79.50761
954.55        78.49318
954.94        77.09033
955.33        75.61559
955.72        74.53486
956.11        73.98794
956.50        73.79958
956.89        74.02031
957.28        74.71953
957.66        75.86002
958.05        77.31387
958.44        78.55824
958.83        78.59182
959.22        77.25786
959.61        74.95731
960.00        72.52772
960.39        71.16106
960.78        71.11991
961.16        72.10351
961.55        73.64275
961.94        75.03808
962.33        75.98019
962.72        76.63921
963.11        77.01395
963.49        77.12222
963.88        76.95267
964.27        76.49752
964.66        75.84779
965.04        75.17128
965.43        74.51209
965.82        73.84611
966.21        73.28943
966.60        73.01244
966.98         73.0861
967.37        73.50388
967.76        74.00311
968.15         74.1074
968.53        73.71864
968.92        72.90623
969.31        72.11636
969.69        72.07962
970.08        72.88384
970.47        74.32787
970.86        75.78309
971.24        76.12561
971.63        75.01814
972.02        72.92666
972.40        70.59834
972.79         69.1781
973.17        68.97905
973.56        69.65617
973.95        70.80962
974.33        71.85638
974.72        72.53582
975.11         72.9594
975.49        73.35668
975.88        74.06431
976.26        75.18804
976.65        76.47769
977.04        77.35696
977.42        76.94162
977.81        75.16624
978.19        72.39895
978.58        69.86211
978.96        69.10611
979.35        70.41805
979.74        73.43648
980.12        77.29523
980.51        79.59299
980.89        79.67852
981.28        78.03465
981.66         75.6494
982.05        74.24123
982.43        74.28475
982.82        75.22729
983.20        76.77612
983.59        78.25452
983.97        79.47189
984.35        80.61324
984.74         81.4035
985.12        81.50546
985.51        80.86463
985.89        79.47584
986.28        77.94273
986.66        77.12135
987.04         77.3216
987.43        78.32577
987.81        79.52755
988.20        79.66039
988.58        78.47858
988.96        76.23561
989.35        73.87935
989.73         72.8821
990.12        73.52036
990.50        75.41711
990.88        77.41179
991.27        77.62447
991.65        75.74677
992.03        72.45402
992.42        69.05373
992.80        67.28624
993.18        67.69902
993.56        69.70324
993.95        72.41225
994.33        74.58247
994.71        75.50741
995.10        75.57365
995.48        75.03606
995.86        74.31237
996.24        73.63963
996.63        72.84466
997.01        72.02941
997.39        71.38608
997.77        70.95249
998.15        70.78455
998.54        70.81387
998.92        70.86565
999.30         70.8954
999.68        70.95445
1000.06        71.10046
1000.45        71.40368
1000.83        71.98084
1001.21         72.6597
1001.59        73.34464
1001.97        73.90564
1002.35        74.26297
1002.73        74.44872
1003.12        74.39082
1003.50        73.93252
1003.88        73.17044
1004.26        72.25787
1004.64        71.45116
1005.02        71.09409
1005.40        71.26517
1005.78        71.85786
1006.16        72.79852
1006.54        73.90773
1006.92        75.00668
1007.30         76.0384
1007.69        76.72773
1008.07        76.91454
1008.45        76.48377
1008.83        75.53021
1009.21        74.24555
1009.59        72.97891
1009.97        71.90393
1010.35        70.99258
1010.73        70.41483
1011.11        70.39555
1011.49        71.02475
1011.86        72.52646
1012.24        74.32813
1012.62        75.78336
1013.00        76.61262
1013.38        76.74425
1013.76        76.82121
1014.14        78.14925
1014.52         80.9481
1014.90        84.77721
1015.28        88.09398
1015.66        88.19994
1016.04        84.93963
1016.41        79.89542
1016.79        75.01354
1017.17        71.85355
1017.55        70.37543
1017.93        69.83047
1018.31          70.133
1018.69        70.93539
1019.06        71.69215
1019.44        72.59311
1019.82        72.78704
1020.20        71.29557
1020.58        68.07729
1020.95        62.89755
1021.33        56.90326
1021.71        53.78407
1022.09        55.64419
1022.46        61.55332
1022.84        68.93315
1023.22        74.15033
1023.60         76.1951
1023.97        76.10094
1024.35        74.26102
1024.73        71.57413
