SpectraSmart Spectrum 2.9.0.0
--------- Device Information -----------
Spectrum Name :  反射率_0
Saving Time :  2024/05/01 15:52:14
Spectro-Module Model Name : SE2030-DUVN
Spectro-Module Serial Number : OS361AC55029948
Wavelength Start : 200
Wavelength End : 1025
Wavelength Unit : Wavelength(nm)
Spectrum Unit : Reflectance(%)
-----------Spectrum Setting ------------
Integration Time : 20ms
Average : 10
Boxcar : 0
Background removal :  enabled
linearity correction :  enabled
SC :  disabled
Intensity correction :  disabled
DWT denoise :  enabled
savitzky-golay :  disabled
FFT :  disabled
Running average :  disabled
Kalman :  disabled
High pass :  disabled
---------------BEGIN--------------------
Wavelength(nm)             Reflectance(%)
200.29               0
200.75        101.8869
201.21        596.6083
201.67        -268.305
202.13       -84.29776
202.58       -14.92307
203.04        30.54359
203.50        60.27242
203.96        74.79206
204.42        78.16309
204.88        67.43143
205.34       -270.0028
205.80        120.2785
206.26        74.68885
206.72        9.707679
207.18       -288.5527
207.64        540.8057
208.10        238.9411
208.55        160.7265
209.01        120.1632
209.47        97.40148
209.93        84.44712
210.39         73.8747
210.85        65.76512
211.31        61.71485
211.77        64.33059
212.23        -6.23218
212.69        36.32524
213.14        50.68005
213.60        95.42465
214.06       -378.6266
214.52       -47.10506
214.98       -20.28138
215.44       -4.263581
215.90        27.11191
216.36        461.6063
216.81       -210.7352
217.27       -267.6352
217.73        487.2931
218.19        77.53773
218.65        37.66052
219.11        24.08907
219.57        13.52602
220.02       -11.92553
220.48       -2.101882
220.94         9.98617
221.40        14.32247
221.86        17.10778
222.32         20.3065
222.77        25.00179
223.23        32.10907
223.69        41.20154
224.15        45.70859
224.61         42.8338
225.06        37.06825
225.52        33.02625
225.98        32.33357
226.44        34.59494
226.90        39.47664
227.36        45.91692
227.81        48.79558
228.27        46.16092
228.73        41.37235
229.19        37.38541
229.65        35.64766
230.10        35.77201
230.56         37.3157
231.02        39.47776
231.48        40.23304
231.93        38.85823
232.39        36.63307
232.85        34.80847
233.31        34.49765
233.77        35.51686
234.22        37.27228
234.68        39.08341
235.14        40.34631
235.60        41.01887
236.05        41.37513
236.51        41.69338
236.97        42.75512
237.43         44.8318
237.88        47.34008
238.34        49.34382
238.80        50.65644
239.26        51.34035
239.71        51.71934
240.17        50.81045
240.63        46.58039
241.08        39.51303
241.54        32.61909
242.00        29.15296
242.46         30.8299
242.91        38.73011
243.37        55.22052
243.83        85.22639
244.28        114.6703
244.74        118.2632
245.20        106.8746
245.66        94.73717
246.11        86.85999
246.57        81.68404
247.03        75.67089
247.48        65.35136
247.94        47.70123
248.40        26.86946
248.85        9.625496
249.31        4.246156
249.77        11.84794
250.22        25.42256
250.68        39.47495
251.14        50.58939
251.59        57.81282
252.05        62.85078
252.51        67.77946
252.96        75.39098
253.42        90.11452
253.88         97.7907
254.33        89.60963
254.79        81.07753
255.25        74.64494
255.70        69.41909
256.16         65.8669
256.62        63.79353
257.07        63.24877
257.53        64.00613
257.99        64.98579
258.44        65.60582
258.90        65.90379
259.35        65.54773
259.81         65.0424
260.27        64.15981
260.72        62.72986
261.18        61.19118
261.63        59.38188
262.09        57.87009
262.55        56.85448
263.00        56.14127
263.46        55.69455
263.91        55.04981
264.37        53.95217
264.83        52.36769
265.28        50.51677
265.74        48.68888
266.19        47.00067
266.65        45.61725
267.11        44.38552
267.56        43.42526
268.02        43.03014
268.47         43.1335
268.93        43.59277
269.38        44.01053
269.84        43.68394
270.30        42.50247
270.75        40.69663
271.21        38.67776
271.66        36.95697
272.12        35.75571
272.57        34.86658
273.03        34.27608
273.48        33.89721
273.94        33.67446
274.39        33.59995
274.85        33.51708
275.31        33.12953
275.76        32.39785
276.22        31.45226
276.67        30.45276
277.13        29.73634
277.58         29.2987
278.04        29.07712
278.49        28.89138
278.95         28.5831
279.40        28.07126
279.86        27.47017
280.31        26.83802
280.77        26.33539
281.22        25.94287
281.68         25.6573
282.13        25.36089
282.59        24.97215
283.04        24.46072
283.50        23.91705
283.95        23.42635
284.41        23.16761
284.86        23.15348
285.32        23.31794
285.77        23.57293
286.22        23.83011
286.68        24.05928
287.13        24.27233
287.59        24.43656
288.04        24.45619
288.50        24.35632
288.95        24.12679
289.41        23.92502
289.86        23.91035
290.32        24.13128
290.77         24.5353
291.22        24.99249
291.68        25.28636
292.13        25.39058
292.59        25.42869
293.04        25.54629
293.50        26.01669
293.95        26.88141
294.40        28.04976
294.86        29.41289
295.31        30.80657
295.77        32.15198
296.22        33.47911
296.68        34.76609
297.13         35.9695
297.58        37.12579
298.04        38.27342
298.49        39.48693
298.95        40.92487
299.40        42.58348
299.85        44.40158
300.31        46.34285
300.76        48.34277
301.21        50.39312
301.67        52.53308
302.12         54.6438
302.58        56.55611
303.03        58.20332
303.48        59.65702
303.94        61.15768
304.39        62.97861
304.84        65.23068
305.30         67.8085
305.75         70.5059
306.20        73.02005
306.66        75.24586
307.11        77.20494
307.57        78.99239
308.02        80.64787
308.47        82.24841
308.93        83.78286
309.38         85.2274
309.83        86.64434
310.29        88.06394
310.74        89.47567
311.19        90.88026
311.65        92.24456
312.10        93.53239
312.55        94.73888
313.00         95.9141
313.46        97.14384
313.91        98.41764
314.36        99.70416
314.82         100.835
315.27        101.5586
315.72        101.8226
316.18        101.7514
316.63        101.5435
317.08        101.5737
317.53        101.9402
317.99        102.5497
318.44        103.2606
318.89        103.8008
319.35        104.0929
319.80        104.2459
320.25         104.356
320.70        104.5778
321.16        104.9454
321.61        105.4093
322.06        105.9375
322.51        106.5068
322.97        107.0613
323.42        107.6409
323.87        108.1531
324.32        108.4702
324.78        108.5598
325.23        108.4939
325.68        108.3507
326.13        108.2891
326.59        108.3461
327.04         108.543
327.49        108.8456
327.94        109.2145
328.39        109.6194
328.85        110.0207
329.30        110.4788
329.75        110.9235
330.20        111.3377
330.66        111.7013
331.11        112.0291
331.56        112.2193
332.01        112.2837
332.46        112.2499
332.92        112.2587
333.37        112.6601
333.82        113.4912
334.27        114.6908
334.72        116.0191
335.17        117.0387
335.63        117.5806
336.08        117.7942
336.53        117.8745
336.98        118.2227
337.43        118.9523
337.88        119.9477
338.34        120.9711
338.79        121.7206
339.24        122.0645
339.69        122.1149
340.14        122.0949
340.59        122.3478
341.05        122.9459
341.50        123.7937
341.95        124.6716
342.40        125.2307
342.85        125.3971
343.30        125.3108
343.75        125.1877
344.20        125.3538
344.66        125.8853
345.11        126.6595
345.56        127.5506
346.01        128.3401
346.46        128.9362
346.91        129.4127
347.36        129.7644
347.81        129.9821
348.26        130.0975
348.72        130.1165
349.17         130.121
349.62         130.325
350.07        130.7371
350.52        131.2594
350.97        131.7407
351.42        131.9193
351.87        131.7412
352.32        131.3468
352.77        130.7504
353.22        129.9799
353.67        129.1011
354.13        128.1243
354.58         127.283
355.03        127.0584
355.48        127.4949
355.93        128.4872
356.38        129.4847
356.83         129.557
357.28        128.5247
357.73         126.685
358.18        124.7539
358.63        123.7973
359.08        124.0107
359.53        125.0492
359.98        126.2712
360.43        126.6043
360.88        125.7617
361.33        124.1131
361.78        122.2038
362.23        120.8109
362.68        120.1238
363.13        119.8872
363.58        119.7662
364.03        119.2558
364.48         118.218
364.93        116.8276
365.38         115.372
365.83        114.2517
366.28        113.5539
366.73          113.16
367.18        112.7642
367.63        111.8991
368.08        110.5039
368.53         108.771
368.98        107.1088
369.43        106.0969
369.88        105.8261
370.33        106.0961
370.78        106.5157
371.23        106.4101
371.68         105.593
372.13        104.3013
372.58        102.8585
373.03        101.7414
373.48         101.068
373.93        100.6562
374.38        100.3859
374.83        100.0792
375.28        99.65724
375.72        99.18494
376.17        98.64017
376.62        97.90721
377.07        96.99468
377.52        95.92706
377.97         94.8692
378.42        94.09598
378.87        93.65929
379.32         93.4794
379.77        93.38224
380.22        93.08591
380.67        92.52711
381.11        91.80736
381.56        91.04555
382.01        90.46239
382.46        90.12549
382.91        89.94952
383.36        89.86816
383.81        89.78602
384.26        89.65076
384.71        89.48296
385.15        89.23551
385.60        88.88524
386.05        88.42122
386.50         87.8599
386.95        87.25307
387.40        86.69765
387.85        86.22103
388.29        85.74603
388.74        85.36158
389.19        84.98774
389.64        84.61031
390.09         84.2413
390.54        83.84824
390.98        83.40246
391.43        82.97625
391.88        82.45543
392.33        81.93275
392.78        81.80113
393.23        81.93623
393.67        81.65268
394.12        81.09299
394.57        80.83907
395.02        81.04335
395.47        80.64429
395.91        79.85126
396.36         79.5127
396.81        79.68214
397.26        79.91009
397.71        80.02731
398.15        80.00007
398.60         79.8113
399.05        79.22591
399.50         78.4827
399.95        78.12137
400.39        78.21239
400.84        78.41648
401.29         78.5649
401.74        78.58336
402.18        78.33927
402.63        77.55923
403.08        76.51662
403.53        75.89503
403.97        75.76579
404.42        75.82194
404.87        75.93076
405.32        75.93219
405.76        75.75655
406.21        75.65234
406.66        75.56571
407.11        75.11641
407.55        74.53002
408.00        74.37868
408.45         74.6826
408.90        75.26355
409.34        75.75082
409.79        75.27428
410.24        74.09703
410.68        73.53845
411.13        73.69588
411.58        73.78266
412.03        73.69706
412.47          73.667
412.92        73.64028
413.37        73.57698
413.81        73.49405
414.26        73.47596
414.71        73.51295
415.15        73.59901
415.60        73.68762
416.05        73.75875
416.49        73.79862
416.94        73.80289
417.39        73.77403
417.83        73.69753
418.28         73.5874
418.73        73.47208
419.17        73.34771
419.62        73.21163
420.07        73.05936
420.51        72.86958
420.96         72.7673
421.41        72.77573
421.85         72.8608
422.30        73.29778
422.74         73.8372
423.19        73.62253
423.64        72.84647
424.08        72.88113
424.53        73.66507
424.98        73.90101
425.42        73.48705
425.87        73.46449
426.31        73.80984
426.76        73.28404
427.21        72.27285
427.65        72.84801
428.10        74.55051
428.54        74.93197
428.99        74.05048
429.44        73.08012
429.88         72.4368
430.33        73.15231
430.77        74.61592
431.22        74.48753
431.66        72.95895
432.11        72.23238
432.56        72.45898
433.00        72.95773
433.45        73.58006
433.89         73.3429
434.34        72.31587
434.78        74.44752
435.23        74.06531
435.67        74.19848
436.12        73.45335
436.57        73.82248
437.01        75.09602
437.46        75.60007
437.90        75.31649
438.35        74.60384
438.79        74.78796
439.24        74.43613
439.68        74.02737
440.13        74.07583
440.57        74.58669
441.02        74.94918
441.46        75.02893
441.91        75.52415
442.35        76.20927
442.80        75.60999
443.24        75.42928
443.69        75.17078
444.13        75.34167
444.58         75.4522
445.02        75.45594
445.47        75.53104
445.91        75.69262
446.36        75.92339
446.80        76.17669
447.24        76.64346
447.69        76.95069
448.13        76.91911
448.58        76.58054
449.02        76.46997
449.47        76.62714
449.91        76.64065
450.36        76.53755
450.80        76.54906
451.25        76.66629
451.69        76.69124
452.13        76.61677
452.58        76.51309
453.02        76.35944
453.47        76.19057
453.91        76.00928
454.36        75.73915
454.80        75.43391
455.24        75.37125
455.69         75.4533
456.13        75.28828
456.58        74.99644
457.02        74.66787
457.46        74.45739
457.91        75.19284
458.35        75.81016
458.79        75.94228
459.24        75.30115
459.68        74.55699
460.13        74.06322
460.57        72.91602
461.01        73.32744
461.46        73.24409
461.90        73.47478
462.34        73.83527
462.79        72.53439
463.23        72.69173
463.68        73.52365
464.12        73.77389
464.56        73.38308
465.01        73.00269
465.45        72.85802
465.89        72.97843
466.34        73.24116
466.78        73.11181
467.22        72.16795
467.67        71.94271
468.11         72.0666
468.55        72.24273
468.99        72.29248
469.44        72.33397
469.88        72.35149
470.32        72.30943
470.77        72.22845
471.21        72.16013
471.65        72.10213
472.10        72.04968
472.54         71.9961
472.98        71.93802
473.42        71.86108
473.87        71.87143
474.31        71.90698
474.75        71.65327
475.20        71.18196
475.64         71.1761
476.08        71.62484
476.52        71.21872
476.97        70.90321
477.41        71.33375
477.85        70.34084
478.29        70.90494
478.74         71.3036
479.18         71.3125
479.62        70.71395
480.06        70.51076
480.50        70.76131
480.95        69.97424
481.39        70.65977
481.83        69.57996
482.27        70.05418
482.72         70.2114
483.16        70.18073
483.60        70.23168
484.04        70.73308
484.48        70.75661
484.93        70.65314
485.37        71.52915
485.81        71.12272
486.25        71.69635
486.69         71.5718
487.14        69.36749
487.58        68.67465
488.02        70.51711
488.46        70.23862
488.90        69.29437
489.34        69.97269
489.79        70.30035
490.23        69.87716
490.67        69.61727
491.11        69.27699
491.55        69.40382
491.99        69.85046
492.43        69.96795
492.88        69.71246
493.32        69.48724
493.76         69.3745
494.20        69.32979
494.64        69.36433
495.08        69.46896
495.52         69.6094
495.96        69.64964
496.41        69.56683
496.85        69.59478
497.29        69.67918
497.73        69.22021
498.17        69.02048
498.61        68.64015
499.05        68.45518
499.49        68.84314
499.93        69.58199
500.37        69.77688
500.82        69.46074
501.26        69.33105
501.70        69.48875
502.14        69.98164
502.58        69.48855
503.02         69.4414
503.46        69.50649
503.90        68.91325
504.34        68.99973
504.78        68.90327
505.22        69.01046
505.66         69.3086
506.10        69.68044
506.54        69.68328
506.98        69.21415
507.42        69.21424
507.86        68.41566
508.30        68.22409
508.74           68.28
509.18        68.53567
509.62        68.87648
510.06        69.14189
510.50        69.28021
510.94        69.32217
511.38        69.29638
511.82        69.24697
512.26        69.19048
512.70         69.1018
513.14        68.98575
513.58        68.85959
514.02        68.73178
514.46        68.61584
514.90        68.51054
515.34        68.40432
515.78        68.30168
516.22        68.21219
516.66        68.15613
517.10        68.16128
517.54        68.22874
517.98        68.34397
518.42        68.47729
518.86        68.57895
519.30        68.62978
519.74        68.64288
520.18        68.63134
520.62        68.59908
521.06        68.56244
521.50        68.56186
521.93        68.57248
522.37        68.50018
522.81        68.34667
523.25         68.1683
523.69        68.00028
524.13         67.8779
524.57        67.81844
525.01        67.81293
525.45        67.85474
525.89        67.93349
526.32        68.03452
526.76        68.14878
527.20        68.25591
527.64        68.32819
528.08        68.35678
528.52        68.35346
528.96        68.31135
529.40        68.22356
529.83        68.09415
530.27        67.94788
530.71        67.83321
531.15        67.84034
531.59        67.98119
532.03        68.22227
532.46        68.47665
532.90        68.62538
533.34        68.63573
533.78        68.49112
534.22         68.2602
534.66        68.16891
535.09        68.18134
535.53        68.02251
535.97        67.72192
536.41        67.57053
536.85        67.58403
537.28        67.61174
537.72        67.63192
538.16        67.66694
538.60        67.70142
539.04        67.72431
539.47        67.73415
539.91        67.76181
540.35        67.79539
540.79        67.86814
541.22        67.95027
541.66        67.88403
542.10        67.83698
542.54        67.70113
542.97        67.56383
543.41        67.50913
543.85        67.53992
544.29         67.6312
544.72         67.7348
545.16        67.80254
545.60        67.80274
546.04        67.77769
546.47        67.73676
546.91        67.64104
547.35        67.54201
547.79        67.56002
548.22         67.6232
548.66        67.64474
549.10        67.61234
549.53        67.29527
549.97        67.32479
550.41        67.29605
550.84        67.39231
551.28        67.59972
551.72        67.84042
552.15        67.91877
552.59        67.84359
553.03        67.75862
553.46         67.6814
553.90        67.68279
554.34        67.77462
554.77        67.79893
555.21        67.69001
555.65        68.10493
556.08        67.71674
556.52        67.60558
556.96        67.41535
557.39        67.14112
557.83        66.86079
558.27        66.98546
558.70         66.9356
559.14        67.26859
559.57        67.19187
560.01         67.4297
560.45        67.68158
560.88        67.62522
561.32        67.36765
561.75        67.09435
562.19         66.9741
562.63        67.23983
563.06        67.65041
563.50         67.7833
563.93        66.76282
564.37        66.56371
564.80         66.8972
565.24        67.17368
565.68        67.26892
566.11        67.30359
566.55        67.28955
566.98        67.13066
567.42        66.95313
567.85        66.97174
568.29        67.19846
568.72        67.34949
569.16        67.45434
569.60        67.55987
570.03        67.59526
570.47        67.60877
570.90         67.8707
571.34        67.21632
571.77        67.43556
572.21        67.32554
572.64        67.49166
573.08         67.1096
573.51        67.30161
573.95         68.1159
574.38        67.34521
574.82        67.62374
575.25        68.02962
575.69        68.12371
576.12        67.99044
576.56        67.34473
576.99        67.61765
577.42        67.82648
577.86        67.98311
578.29        67.79948
578.73        69.27511
579.16         67.4429
579.60         67.1105
580.03        66.82071
580.47        67.74133
580.90        66.91661
581.33        67.94576
581.77        68.18094
582.20        68.58041
582.64        68.18031
583.07        68.00034
583.51        67.61778
583.94         67.5418
584.37        67.62672
584.81        67.96874
585.24        67.84216
585.68        67.49031
586.11        68.29089
586.54        67.98009
586.98        67.07571
587.41        66.85264
587.85        67.69584
588.28        67.80095
588.71        66.86187
589.15        67.47807
589.58        66.99668
590.01        66.78463
590.45        66.86696
590.88        67.28631
591.31        67.45762
591.75        67.26887
592.18        66.85295
592.61        66.41972
593.05        66.68169
593.48         67.1875
593.91        67.54618
594.35        66.73299
594.78        66.49048
595.21        66.53735
595.65        67.08894
596.08        66.91158
596.51        67.11664
596.94        66.37699
597.38        66.32909
597.81        66.79293
598.24        66.29739
598.68        67.00995
599.11        66.40588
599.54        67.51644
599.97         66.8643
600.41        66.74238
600.84        67.03156
601.27        66.93774
601.70        67.26351
602.14        67.60328
602.57        67.32722
603.00        66.65066
603.43        66.38783
603.87        66.97627
604.30        67.09409
604.73        66.93452
605.16        66.18131
605.60        66.35889
606.03         66.4846
606.46        66.70737
606.89        67.03159
607.32        66.18501
607.76        66.04737
608.19        66.27222
608.62        66.61912
609.05        66.78036
609.48         66.5501
609.92         66.1638
610.35        65.74337
610.78        67.12467
611.21        67.31555
611.64        66.80906
612.07        67.02158
612.50        67.34624
612.94        66.89704
613.37        66.70571
613.80        66.71198
614.23          66.368
614.66        66.59503
615.09        66.12575
615.52        66.27641
615.96        66.61893
616.39        66.70035
616.82        66.44712
617.25        66.45035
617.68        66.71388
618.11        66.79674
618.54        66.66354
618.97        66.41991
619.40        66.19982
619.84        66.03752
620.27        65.93233
620.70        66.32618
621.13        67.16789
621.56        66.09714
621.99        65.76599
622.42        66.14537
622.85        66.03129
623.28        66.12358
623.71        65.95908
624.14        66.47561
624.57        66.37012
625.00        66.52005
625.43        66.54186
625.86         66.4529
626.29        66.24831
626.72        66.16801
627.15        66.00048
627.58        65.83348
628.01         65.6264
628.44        65.69926
628.87        66.02344
629.30        65.73798
629.73        65.82532
630.16        65.77964
630.59        65.88719
631.02        65.96581
631.45        65.98285
631.88        65.94863
632.31        65.84956
632.74          65.686
633.17        65.52869
633.60        65.49146
634.03        65.59463
634.46        65.79961
634.89        66.10612
635.32        66.13885
635.75        65.94854
636.18         65.8455
636.61        65.84953
637.04        65.79356
637.47        65.70582
637.89         65.5361
638.32        65.56683
638.75        65.51498
639.18        65.48573
639.61        65.22247
640.04        65.25172
640.47        65.22433
640.90        65.29012
641.33        65.40551
641.76        65.51482
642.18        65.62068
642.61        65.70438
643.04         65.6286
643.47        65.36068
643.90        65.77881
644.33        65.47644
644.76        65.47614
645.18        65.41244
645.61         65.6209
646.04        65.99889
646.47        66.02573
646.90        65.72581
647.33         65.6002
647.75        65.66651
648.18        65.54706
648.61        65.32727
649.04        65.34694
649.47        65.53753
649.89        65.77105
650.32        65.90726
650.75        65.47638
651.18        64.74206
651.61        64.83571
652.03          65.666
652.46        65.97688
652.89        65.67005
653.32        65.43982
653.74        65.53195
654.17        65.39378
654.60        65.77427
655.03        66.17727
655.46        65.38647
655.88        65.22044
656.31        71.21342
656.74        71.25531
657.16         66.5494
657.59          65.028
658.02        65.14961
658.45        65.66001
658.87        65.93105
659.30        64.76729
659.73        65.15792
660.15        66.33414
660.58        65.51185
661.01        65.27538
661.44        64.74048
661.86        64.72556
662.29          65.147
662.72        65.40246
663.14        65.45385
663.57        65.52184
664.00        65.61572
664.42        65.64095
664.85        65.59909
665.27        65.45029
665.70        65.25217
666.13        65.15039
666.55        65.18081
666.98        65.28082
667.41        65.42451
667.83        65.57715
668.26        65.69846
668.69        65.79783
669.11        65.87144
669.54        65.92175
669.96        65.93718
670.39         65.8964
670.82        65.82767
671.24        65.71475
671.67        65.62446
672.09         65.7497
672.52        66.01583
672.94        66.06163
673.37        65.86205
673.80        65.59428
674.22          65.347
674.65        65.16958
675.07        65.11432
675.50        65.14676
675.92        65.23943
676.35        65.33795
676.77        65.42216
677.20        65.50128
677.62         65.5639
678.05        65.57828
678.47        65.54268
678.90        65.46692
679.32        65.38068
679.75         65.3599
680.17         65.4108
680.60        65.51061
681.02        65.62682
681.45        65.68996
681.87        65.69431
682.30        65.65459
682.72        65.59209
683.15        65.50716
683.57        65.41993
684.00        65.32561
684.42        65.25801
684.85        65.27061
685.27        65.34718
685.70        65.51205
686.12        65.68961
686.54        65.66974
686.97         65.4651
687.39         65.4031
687.82         65.4556
688.24         65.2419
688.66        64.85299
689.09        64.81951
689.51        65.13512
689.94        65.31141
690.36        65.32023
690.78        65.43228
691.21        65.66055
691.63        65.80925
692.06        65.92866
692.48        66.31708
692.90        66.84045
693.33        67.01871
693.75        66.80614
694.17        66.37474
694.60        65.91771
695.02        65.67107
695.44        65.63165
695.87        65.73402
696.29        65.90279
696.71        65.48895
697.14        65.18942
697.56         65.4156
697.98        66.18572
698.41        66.58421
698.83        66.40845
699.25        66.36006
699.68         66.4057
700.10        66.36036
700.52        66.23154
700.94        66.04604
701.37         65.8727
701.79        65.92711
702.21        66.15445
702.64        66.34068
703.06        66.42609
703.48        66.38228
703.90        66.17755
704.33        66.22918
704.75        65.77067
705.17        65.65291
705.59        65.66328
706.01        65.75434
706.44        65.91534
706.86        66.14333
707.28        66.39781
707.70        66.74445
708.12        67.07259
708.55        67.02979
708.97        66.67109
709.39        66.43667
709.81        66.39567
710.23        66.32475
710.66        66.24915
711.08        66.36832
711.50        66.60411
711.92        66.73368
712.34        66.72188
712.76        66.63548
713.19        66.51048
713.61        66.45568
714.03        66.47744
714.45        66.53343
714.87        66.60518
715.29        66.67102
715.71        66.71945
716.13        66.76713
716.56        66.77271
716.98         66.7497
717.40          66.674
717.82        66.55035
718.24        66.44221
718.66        66.45367
719.08        66.59663
719.50        66.83347
719.92        67.07406
720.34        67.16985
720.76         67.0855
721.19        66.87179
721.61        66.60457
722.03        66.39754
722.45         66.2977
722.87        66.28321
723.29        66.33832
723.71        66.43551
724.13        66.55366
724.55        66.68601
724.97        66.83553
725.39         67.0047
725.81        67.17848
726.23        67.34528
726.65        67.43522
727.07         67.3442
727.49        67.07153
727.91        66.66818
728.33         66.2599
728.75        66.04403
729.17        66.06628
729.59        66.26602
730.01        66.55846
730.43        66.78584
730.85        66.89336
731.27        66.94024
731.69        66.92374
732.10          66.841
732.52        66.70758
732.94        66.50304
733.36        66.32986
733.78        66.32474
734.20        66.49697
734.62        66.94203
735.04        67.47492
735.46        67.43523
735.88        66.94061
736.30        66.91077
736.72        67.30068
737.13        67.34732
737.55        67.01791
737.97        66.66938
738.39        66.45948
738.81        66.72088
739.23        67.33995
739.65         67.5633
740.06         67.3297
740.48        67.30761
740.90        67.47199
741.32        67.44117
741.74        67.20676
742.16        67.00281
742.57        66.86838
742.99         66.7031
743.41        66.58568
743.83        66.69227
744.25        66.98988
744.67        67.29601
745.08        67.52283
745.50        67.58619
745.92        67.46517
746.34        67.13711
746.75        66.69965
747.17        66.38367
747.59         66.2293
748.01        66.18587
748.42        66.23349
748.84        66.30489
749.26        66.38663
749.68        66.49059
750.09        66.60152
750.51        66.72977
750.93         66.8521
751.35        66.91158
751.76        66.93449
752.18         67.0015
752.60        67.11665
753.01        67.28493
753.43        67.44215
753.85         67.5079
754.27        67.45789
754.68        67.60584
755.10        67.48946
755.52        67.55093
755.93        67.63951
756.35        67.71733
756.77        67.75622
757.18        67.80799
757.60        67.89742
758.02        67.97028
758.43        67.78973
758.85        68.16576
759.26        66.59808
759.68        66.72907
760.10        67.68362
760.51        68.15444
760.93        67.94814
761.34        67.77956
761.76        67.73203
762.18         67.3651
762.59        66.89881
763.01         67.0163
763.42        67.66267
763.84        67.94524
764.26        67.80357
764.67        67.61143
765.09        67.50426
765.50        67.54439
765.92        67.71564
766.33         67.6652
766.75        67.33347
767.16        67.28656
767.58        67.53281
768.00        67.45319
768.41         67.2328
768.83        68.04681
769.24        69.50774
769.66        69.75009
770.07        68.85326
770.49        68.25961
770.90        68.20647
771.32        68.41877
771.73        68.76575
772.15        68.85299
772.56        68.65298
772.97        68.49701
773.39        68.41981
773.80         68.4778
774.22        68.38972
774.63        68.45079
775.05        68.52681
775.46        68.59043
775.88        68.59991
776.29        68.59789
776.70        68.59161
777.12        68.60773
777.53        68.66791
777.95        68.73358
778.36        68.80102
778.77        68.82825
779.19        68.80772
779.60        68.80434
780.02        68.80593
780.43        68.70811
780.84        68.59557
781.26        68.62366
781.67        68.76509
782.09        69.03174
782.50        69.23772
782.91        68.76241
783.33        67.87788
783.74        67.69627
784.15         68.3275
784.57        69.14984
784.98        69.95339
785.39        70.58551
785.81         70.9269
786.22        70.80511
786.63        70.72348
787.04        70.50797
787.46        70.37035
787.87        70.21073
788.28        70.11432
788.70        70.15963
789.11        70.31496
789.52        70.66824
789.93        71.06129
790.35        71.01824
790.76         70.6001
791.17        70.31158
791.58        70.21723
792.00        70.04966
792.41        69.85592
792.82        69.76244
793.23        69.76688
793.65        69.96136
794.06        70.23611
794.47        70.10458
794.88        69.70315
795.29         69.6436
795.71        69.89108
796.12        70.21297
796.53        70.45884
796.94         70.5159
797.35        70.32019
797.76        69.92558
798.18        69.50583
798.59        69.29591
799.00        69.36525
799.41        69.60529
799.82         69.9864
800.23        70.29984
800.64        70.49713
801.06        70.59941
801.47        70.63711
801.88        70.56783
802.29        70.40278
802.70        70.13898
803.11        69.86593
803.52        69.73784
803.93        69.80914
804.34        70.05594
804.75        70.38179
805.17        70.70612
805.58        71.03319
805.99        71.00414
806.40        70.73494
806.81        71.24962
807.22        72.19422
807.63        71.64806
808.04        69.90063
808.45        69.13478
808.86        69.54135
809.27        69.94048
809.68        70.13777
810.09        70.34084
810.50        70.47073
810.91         70.4832
811.32        70.42271
811.73         70.3618
812.14        70.33369
812.55        70.31889
812.96        70.35327
813.37        70.49518
813.78          70.742
814.19        71.07227
814.60        71.40792
815.01        71.62416
815.42        71.69151
815.83        71.64034
816.24        71.50079
816.65        71.34265
817.05        71.20737
817.46        71.05719
817.87         70.9374
818.28        70.86697
818.69        70.84271
819.10        70.86765
819.51        70.91116
819.92        70.90821
820.33        70.84207
820.74        70.73127
821.14        70.60335
821.55        70.52972
821.96        70.51858
822.37        70.56906
822.78        70.67093
823.19        70.80132
823.60         70.9508
824.00        71.13676
824.41        71.33892
824.82        71.63229
825.23        72.00531
825.64         72.4129
826.04        72.78259
826.45        72.92239
826.86        72.82136
827.27        72.54234
827.68        72.15157
828.08        71.78149
828.49        71.45576
828.90        71.15482
829.31        70.94847
829.72        70.93295
830.12        71.14655
830.53         71.5483
830.94        71.96384
831.35         72.0248
831.75        71.67814
832.16        70.99123
832.57        70.33067
832.97        70.25173
833.38        70.83619
833.79        71.88939
834.20        73.05241
834.60        73.70695
835.01         73.6405
835.42        73.08231
835.82        72.25063
836.23        71.47824
836.64        70.90794
837.04        70.45837
837.45        70.17152
837.86        70.18811
838.26        70.51151
838.67        71.07499
839.08         71.6977
839.48        72.02908
839.89        71.96603
840.29        71.61052
840.70        71.09801
841.11        70.62489
841.51        70.29137
841.92        70.01843
842.33         69.8926
842.73        70.06041
843.14        70.47688
843.54        71.16115
843.95        71.87896
844.35        72.29202
844.76        72.27568
845.17        71.90973
845.57        71.41772
845.98        71.15736
846.38        71.24239
846.79         71.5592
847.19        71.93995
847.60        72.01283
848.00        71.71427
848.41        71.15578
848.81        70.57922
849.22        70.32224
849.62        70.47877
850.03        70.91475
850.43        71.44666
850.84        71.61819
851.24        71.38188
851.65        70.85172
852.05        70.30621
852.46        70.16116
852.86        70.48581
853.27        71.09657
853.67        71.78048
854.07        72.44836
854.48        72.98585
854.88        73.54507
855.29        73.83053
855.69        73.57265
856.10        72.64404
856.50        71.25165
856.90        69.86157
857.31        69.14709
857.71        69.23254
858.12        69.89928
858.52        70.87507
858.92        71.40698
859.33         71.2322
859.73        70.62132
860.13        69.76419
860.54          68.993
860.94        68.44099
861.34         67.9804
861.75        67.67974
862.15        67.72329
862.55        68.09089
862.96        68.72762
863.36        69.41177
863.76        69.67465
864.17        69.41275
864.57        68.77534
864.97        67.99369
865.38        67.47008
865.78         67.3581
866.18        67.52023
866.58        67.86182
866.99        68.20448
867.39         68.4866
867.79        68.75272
868.19        68.93396
868.60        68.89592
869.00        68.62833
869.40        68.15227
869.80        67.65265
870.21        67.48844
870.61        67.79632
871.01        68.41037
871.41        69.05499
871.81        69.30732
872.22        69.06689
872.62        68.47714
873.02        67.73093
873.42        67.14452
873.82        66.84713
874.22        66.77286
874.63        66.85947
875.03        67.00513
875.43        67.16755
875.83         67.3687
876.23        67.65189
876.63        68.07512
877.03        68.62045
877.44         69.2198
877.84        69.73844
878.24        69.91708
878.64        69.70932
879.04        69.20492
879.44        68.61235
879.84        68.24754
880.24        68.18671
880.64        68.34663
881.04        68.59994
881.44        68.72587
881.84        68.66566
882.24        68.50129
882.65        68.27689
883.05        68.17617
883.45        68.20766
883.85        68.30106
884.25        68.45483
884.65        68.68011
885.05        68.96821
885.45        69.33527
885.85        69.67117
886.25        69.78594
886.65        69.63303
887.05        69.23615
887.45        68.80195
887.85        68.65919
888.25        68.87553
888.65        69.38346
889.04        69.89185
889.44        69.90031
889.84        69.33852
890.24        68.36742
890.64        67.40608
891.04        67.05823
891.44        67.43481
891.84        68.37094
892.24         69.4138
892.64        69.79323
893.04        69.32162
893.44        68.23174
893.83        67.05613
894.23        66.60937
894.63        67.02879
895.03        68.06633
895.43        69.20272
895.83        69.50687
896.23        68.77276
896.63        67.41017
897.02        65.92191
897.42        65.09841
897.82        65.05723
898.22         65.5753
898.62        66.45648
899.01        67.39594
899.41        68.18182
899.81         68.9097
900.21        69.56537
900.61        70.12089
901.00         70.5501
901.40        70.77515
901.80        70.77576
902.20        70.56538
902.59        70.18826
902.99        69.69815
903.39        69.18345
903.79        68.76587
904.18        68.47885
904.58        68.31508
904.98        68.28106
905.38        68.38235
905.77        68.59138
906.17        68.93187
906.57        69.23917
906.96        69.26123
907.36        68.94794
907.76        68.37753
908.15        67.85195
908.55         67.8237
908.95        68.39606
909.34        69.42288
909.74        70.52788
910.14        71.17311
910.53        71.18813
910.93        70.72768
911.33        70.03131
911.72        69.47539
912.12          69.209
912.52        69.13458
912.91        69.11483
913.31        68.92493
913.70        68.53307
914.10        68.04226
914.49        67.65919
914.89        67.66321
915.29        68.09519
915.68        68.83095
916.08        69.62141
916.47        70.07467
916.87        70.07761
917.26        69.76427
917.66        69.30446
918.05        68.95655
918.45         68.8021
918.84        68.79826
919.24        68.92412
919.64        69.21205
920.03        69.64391
920.42        70.18262
920.82        70.72211
921.21        71.12943
921.61        71.32965
922.00        71.33358
922.40        71.14852
922.79        70.89032
923.19        70.59583
923.58        70.27578
923.98        69.88853
924.37        69.29604
924.77        68.53709
925.16        67.67481
925.55        66.92885
925.95        66.63596
926.34        66.90358
926.74        67.58194
927.13        68.53175
927.52        69.42898
927.92        70.12839
928.31        70.69604
928.70        71.08752
929.10        71.27517
929.49        71.29416
929.89        71.13308
930.28        70.88181
930.67        70.66898
931.07         70.5285
931.46        70.42194
931.85         70.3902
932.24        70.48222
932.64        70.67979
933.03        71.02624
933.42        71.26643
933.82        71.01906
934.21        70.25258
934.60        69.07154
934.99        67.96677
935.39        67.66161
935.78        68.32954
936.17        69.81548
936.56        71.49365
936.96        72.19038
937.35        71.61887
937.74        70.09222
938.13        68.40631
938.53        67.63845
938.92        67.95161
939.31        69.06622
939.70        70.38616
940.09        70.83067
940.49        70.12399
940.88        68.69092
941.27        67.16445
941.66        66.46458
942.05        66.81437
942.44        67.91631
942.84        69.37587
943.23        70.53765
943.62        71.06884
944.01        71.18503
944.40        71.01807
944.79        70.78513
945.18        70.59206
945.57        70.32251
945.97        70.06894
946.36        70.10718
946.75        70.43611
947.14         71.0336
947.53        71.65235
947.92        71.81496
948.31         71.4149
948.70        70.61546
949.09        69.73682
949.48        69.26237
949.87         69.3232
950.26        69.79621
950.65        70.49284
951.04        71.07402
951.43        71.39891
951.82        71.52596
952.21        71.56992
952.60        71.72556
952.99        72.00272
953.38        72.28497
953.77        72.38976
954.16        72.01988
954.55        71.16909
954.94        70.07594
955.33        68.92297
955.72        67.95793
956.11        67.28227
956.50        66.77632
956.89        66.64815
957.28        67.23267
957.66        68.55515
958.05        70.42113
958.44        72.15182
958.83        72.45881
959.22        71.09613
959.61        68.56315
960.00        65.82692
960.39        64.26761
960.78        64.18823
961.16        65.20428
961.55        66.80531
961.94        68.22267
962.33         69.1179
962.72         69.7133
963.11        69.96541
963.49        69.80903
963.88        69.26926
964.27        68.39216
964.66        67.43221
965.04        66.78337
965.43         66.5097
965.82        66.51005
966.21        66.74585
966.60        67.08324
966.98        67.45067
967.37         67.8995
967.76        68.21272
968.15        68.02179
968.53        67.29559
968.92        66.09534
969.31        64.91956
969.69        64.56557
970.08        65.16242
970.47        66.54625
970.86        68.09676
971.24         68.6689
971.63        67.89468
972.02        66.16557
972.40        64.23004
972.79        63.25599
973.17        63.51117
973.56        64.60403
973.95        65.95378
974.33         66.6988
974.72        66.55367
975.11        65.73129
975.49        64.73516
975.88        64.48743
976.26        65.33295
976.65        66.91081
977.04        68.47085
977.42        68.80891
977.81        67.68582
978.19        65.50681
978.58        63.41298
978.96        62.85447
979.35        64.11659
979.74        66.84331
980.12        70.21007
980.51        71.98612
980.89        71.62429
981.28        69.63624
981.66        67.09496
982.05        65.83428
982.43        66.29798
982.82        67.85526
983.20        70.04742
983.59        71.91488
983.97        73.15488
984.35         74.0517
984.74        74.28574
985.12        73.47018
985.51        71.64272
985.89        68.86736
986.28        66.14085
986.66        64.92778
987.04        65.66998
987.43        68.01857
987.81        70.91297
988.20        72.27898
988.58        71.58441
988.96        69.23918
989.35        66.54034
989.73        65.56912
990.12        66.76627
990.50        69.56263
990.88        72.46585
991.27        73.06246
991.65        70.94323
992.03        67.00974
992.42        62.95439
992.80        61.09409
993.18        62.08563
993.56        65.11148
993.95        68.97066
994.33        71.84158
994.71        72.80245
995.10        72.44624
995.48        71.09238
995.86        69.29047
996.24        67.45367
996.63         65.4258
997.01        63.65547
997.39        62.82402
997.77          63.021
998.15        64.18978
998.54        65.84299
998.92        66.97521
999.30        67.23428
999.68        66.80218
1000.06        66.08376
1000.45        65.81651
1000.83        66.34631
1001.21        67.36066
1001.59        68.45741
1001.97        68.98275
1002.35        68.73424
1002.73        67.92985
1003.12        66.96799
1003.50         66.4165
1003.88        66.46651
1004.26        66.95491
1004.64        67.52808
1005.02        67.65287
1005.40        67.25302
1005.78        66.53362
1006.16         65.8695
1006.54        65.91151
1006.92        66.77867
1007.30        68.12627
1007.69        69.54417
1008.07        70.62119
1008.45        71.09469
1008.83        71.20778
1009.21        70.80402
1009.59        69.63095
1009.97        67.78164
1010.35        65.30044
1010.73        63.08981
1011.11        62.72658
1011.49        64.65319
1011.86         68.8038
1012.24        73.67397
1012.62        76.71311
1013.00        76.95744
1013.38        74.80276
1013.76        71.81635
1014.14        71.06261
1014.52        73.45357
1014.90        78.01833
1015.28        82.93196
1015.66        84.86565
1016.04        83.08878
1016.41        79.22341
1016.79        74.96889
1017.17        71.57776
1017.55        69.02338
1017.93        66.56034
1018.31        64.16255
1018.69         62.6055
1019.06         62.4534
1019.44         63.5964
1019.82        64.94979
1020.20        65.46275
1020.58        65.11406
1020.95        63.94883
1021.33        62.61507
1021.71        62.60213
1022.09        64.54079
1022.46        67.81245
1022.84        71.09802
1023.22        72.86153
1023.60        72.74316
1023.97        71.29977
1024.35        68.90642
1024.73        66.33445
