SpectraSmart Spectrum 2.9.0.0
--------- Device Information -----------
Spectrum Name :  反射率_0
Saving Time :  2024/05/01 16:26:25
Spectro-Module Model Name : SE2030-DUVN
Spectro-Module Serial Number : OS361AC55029948
Wavelength Start : 200
Wavelength End : 1025
Wavelength Unit : Wavelength(nm)
Spectrum Unit : Reflectance(%)
-----------Spectrum Setting ------------
Integration Time : 20ms
Average : 10
Boxcar : 0
Background removal :  enabled
linearity correction :  enabled
SC :  disabled
Intensity correction :  disabled
DWT denoise :  enabled
savitzky-golay :  disabled
FFT :  disabled
Running average :  disabled
Kalman :  disabled
High pass :  disabled
---------------BEGIN--------------------
Wavelength(nm)             Reflectance(%)
200.29               0
200.75        53.66135
201.21        504.6964
201.67       -282.7257
202.13       -110.3915
202.58       -42.76709
203.04        1.603079
203.50        30.11232
203.96        42.29154
204.42        40.41069
204.88        13.36579
205.34       -752.3828
205.80        166.3508
206.26        107.2203
206.72        59.59246
207.18       -107.7659
207.64        322.0233
208.10         153.856
208.55        105.6586
209.01        79.94898
209.47        68.96527
209.93         67.3103
210.39        68.91306
210.85        73.72814
211.31        85.12148
211.77        125.0653
212.23       -207.7725
212.69       -2.632315
213.14        23.12994
213.60        59.30373
214.06       -272.0792
214.52       -37.98203
214.98        -19.5079
215.44       -9.938057
215.90        7.938627
216.36        239.7172
216.81       -106.0779
217.27       -102.5199
217.73        63.53003
218.19       -23.26966
218.65       -33.00314
219.11       -38.75933
219.57       -43.49797
220.02       -28.69921
220.48        11.59931
220.94        3.318822
221.40       -1.205382
221.86       -1.163406
222.32        4.000608
222.77        14.35438
223.23        31.10135
223.69        52.74003
224.15         62.6312
224.61        54.22345
225.06        39.63822
225.52        28.73595
225.98        24.66454
226.44        26.10351
226.90        31.67115
227.36        40.07752
227.81        44.93296
228.27        43.17354
228.73        38.73514
229.19        34.91674
229.65        33.45073
230.10         34.0903
230.56        36.30124
231.02        39.41234
231.48        41.44419
231.93        41.37534
232.39        40.37925
232.85        39.45829
233.31        39.56768
233.77        40.65823
234.22        42.18956
234.68        43.89888
235.14        45.75354
235.60        47.89516
236.05        50.85678
236.51         54.6835
236.97        58.21026
237.43        59.89163
237.88        59.17866
238.34        56.92791
238.80        55.67089
239.26        56.21206
239.71         58.8838
240.17        63.33559
240.63        66.06481
241.08        63.86801
241.54         58.6671
242.00         54.5511
242.46        54.83104
242.91        60.83492
243.37        73.44812
243.83        95.39484
244.28        113.9871
244.74        111.5321
245.20        99.47652
245.66         88.4472
246.11        80.96457
246.57         75.2156
247.03        68.18548
247.48        56.52736
247.94         38.5666
248.40        19.64413
248.85         5.22317
249.31        2.820982
249.77        13.10699
250.22        28.67428
250.68        44.12537
251.14        56.25429
251.59        64.48105
252.05        71.06809
252.51        79.30143
252.96        95.69989
253.42        128.7605
253.88        146.8841
254.33        130.3611
254.79        113.3452
255.25         102.484
255.70        94.67223
256.16        89.42253
256.62        85.53628
257.07        82.49173
257.53        80.79394
257.99        79.74081
258.44        78.97865
258.90        78.88918
259.35        78.84371
259.81        78.99123
260.27        78.93279
260.72        78.26989
261.18        77.33695
261.63        75.97869
262.09        74.57115
262.55        72.96984
263.00        71.12386
263.46        69.30294
263.91        67.47362
264.37        66.02791
264.83        64.88652
265.28        63.93129
265.74         63.0959
266.19        61.95787
266.65        60.60098
267.11        59.05162
267.56        57.56188
268.02        56.63551
268.47        56.29241
268.93        56.33687
269.38        56.40644
269.84        55.87914
270.30        54.63963
270.75        52.88272
271.21        50.96867
271.66        49.29743
272.12         48.0504
272.57        47.03591
273.03        46.18245
273.48        45.30975
273.94        44.40889
274.39         43.5256
274.85         42.7003
275.31         41.8854
275.76        41.06145
276.22        40.27291
276.67         39.5011
277.13        38.86426
277.58        38.29495
278.04        37.81027
278.49        37.30476
278.95        36.75908
279.40        36.11808
279.86        35.45726
280.31        34.77639
280.77        34.18811
281.22        33.65119
281.68        33.20445
282.13        32.75269
282.59        32.26417
283.04        31.70573
283.50        31.15801
283.95        30.67253
284.41         30.3932
284.86        30.32071
285.32        30.41125
285.77        30.59347
286.22         30.8197
286.68        31.06034
287.13        31.30108
287.59         31.4906
288.04        31.50064
288.50        31.35135
288.95        31.04493
289.41        30.74151
289.86         30.5822
290.32        30.63478
290.77        30.85426
291.22        31.15656
291.68        31.39283
292.13        31.53975
292.59        31.69213
293.04        31.95518
293.50        32.54023
293.95        33.46893
294.40        34.67914
294.86        36.04903
295.31        37.39658
295.77        38.65133
296.22        39.83297
296.68        41.00367
297.13        42.24391
297.58        43.60114
298.04        45.07859
298.49        46.60121
298.95        48.09216
299.40        49.51133
299.85        50.88742
300.31         52.3697
300.76        54.16125
301.21        56.30835
301.67        58.75409
302.12        61.22834
302.58        63.33046
303.03        64.91904
303.48         66.1343
303.94        67.31093
304.39        68.84031
304.84        70.86584
305.30        73.24329
305.75        75.70078
306.20        77.84986
306.66        79.58619
307.11        80.97987
307.57        82.22869
308.02        83.50425
308.47        84.90776
308.93        86.38715
309.38        87.81713
309.83        89.10564
310.29        90.24809
310.74        91.27597
311.19        92.28601
311.65        93.39479
312.10        94.59624
312.55        95.83668
313.00        97.06371
313.46        98.20488
313.91        99.21622
314.36        100.1189
314.82        100.8555
315.27        101.3539
315.72        101.6046
316.18        101.6722
316.63        101.6455
317.08        101.7347
317.53        101.9985
317.99        102.3941
318.44        102.8623
318.89        103.2667
319.35        103.5674
319.80        103.8255
320.25        104.0649
320.70        104.3318
321.16        104.6247
321.61        104.9192
322.06        105.2392
322.51        105.6501
322.97        106.1219
323.42        106.6784
323.87        107.1561
324.32        107.3116
324.78        107.0995
325.23        106.6379
325.68        106.1329
326.13        105.9414
326.59        106.1402
327.04        106.6859
327.49        107.4006
327.94             108
328.39        108.3799
328.85        108.5651
329.30         108.722
329.75         108.974
330.20        109.3655
330.66        109.8088
331.11        110.2598
331.56        110.5234
332.01         110.577
332.46        110.4963
332.92         110.417
333.37        110.6682
333.82         111.298
334.27        112.2411
334.72        113.3354
335.17        114.2882
335.63        114.9553
336.08        115.4377
336.53        115.8078
336.98        116.2641
337.43         116.865
337.88        117.5517
338.34        118.1707
338.79         118.569
339.24        118.6755
339.69        118.5648
340.14        118.4419
340.59        118.6177
341.05         119.148
341.50        119.9556
341.95        120.8091
342.40         121.332
342.85        121.4435
343.30         121.283
343.75        121.0755
344.20        121.1695
344.66        121.6464
345.11        122.3756
345.56        123.2322
346.01        123.9965
346.46        124.5803
346.91        125.0693
347.36        125.4468
347.81        125.6846
348.26        125.8119
348.72        125.8292
349.17         125.856
349.62        126.1687
350.07        126.7747
350.52        127.5466
350.97        128.2452
351.42        128.4695
351.87        128.1415
352.32        127.4572
352.77        126.5283
353.22        125.5311
353.67        124.5758
354.13        123.6331
354.58        122.8938
355.03        122.7674
355.48        123.2705
355.93        124.3145
356.38        125.3612
356.83        125.4951
357.28        124.5386
357.73        122.7796
358.18        120.9019
358.63        119.9328
359.08        120.0642
359.53        120.9563
359.98        122.0336
360.43        122.3346
360.88        121.5894
361.33        120.1328
361.78        118.4011
362.23        117.0053
362.68         116.113
363.13        115.5335
363.58         115.053
364.03        114.3625
364.48        113.3797
364.93         112.218
365.38        111.0787
365.83        110.2309
366.28         109.712
366.73        109.4258
367.18        109.0937
367.63        108.2926
368.08        106.9702
368.53        105.3003
368.98        103.6477
369.43        102.5295
369.88        102.0404
370.33        102.0179
370.78         102.163
371.23        101.9591
371.68        101.2591
372.13        100.2369
372.58        99.13047
373.03        98.28671
373.48        97.77735
373.93        97.45535
374.38        97.18668
374.83        96.77509
375.28        96.16308
375.72        95.43138
376.17        94.64192
376.62        93.81361
377.07        92.97667
377.52        92.11163
377.97        91.31238
378.42         90.7327
378.87        90.38781
379.32        90.23862
379.77        90.11827
380.22         89.7588
380.67        89.11213
381.11        88.26514
381.56        87.39273
382.01        86.81252
382.46        86.60172
382.91        86.64602
383.36        86.77985
383.81        86.74984
384.26        86.47675
384.71         86.0373
385.15        85.48544
385.60        84.95581
386.05        84.48254
386.50        84.03468
386.95        83.60465
387.40        83.19644
387.85        82.80746
388.29        82.38979
388.74        82.05313
389.19        81.75406
389.64        81.48361
390.09        81.23226
390.54        80.94363
390.98        80.55656
391.43        80.13593
391.88        79.58745
392.33        79.02094
392.78         78.8603
393.23        78.99239
393.67         78.7089
394.12        78.14689
394.57        77.98457
395.02        78.19595
395.47        77.88243
395.91        77.18172
396.36        76.88138
396.81        77.03064
397.26        77.25662
397.71        77.40406
398.15        77.36487
398.60        77.18356
399.05        76.77726
399.50        76.31714
399.95        76.21217
400.39        76.43013
400.84         76.4412
401.29        76.17826
401.74        75.90929
402.18        75.62789
402.63         75.1217
403.08        74.51694
403.53        74.08303
403.97        73.85072
404.42        73.76213
404.87         73.7183
405.32        73.56951
405.76        73.28316
406.21        72.94639
406.66        72.62798
407.11         72.4603
407.55        72.51131
408.00        72.62154
408.45        72.74418
408.90        73.04962
409.34        73.32049
409.79        72.90119
410.24        71.99866
410.68        71.52673
411.13        71.57357
411.58        71.65384
412.03        71.68922
412.47        71.76594
412.92        71.82063
413.37        71.85191
413.81        71.85675
414.26        71.88403
414.71        71.92014
415.15        71.96565
415.60        71.98415
416.05        71.97715
416.49        71.94635
416.94        71.88979
417.39        71.82291
417.83        71.75296
418.28         71.6916
418.73        71.64899
419.17        71.61458
419.62        71.57396
420.07        71.51529
420.51        71.42474
420.96        71.38995
421.41        71.37688
421.85        71.35011
422.30          71.576
422.74        71.93478
423.19        71.60168
423.64        71.32051
424.08        71.40903
424.53        71.88151
424.98        72.08948
425.42        71.94121
425.87        71.98125
426.31         72.1944
426.76        71.95322
427.21         71.4724
427.65        71.79876
428.10        72.65978
428.54        72.90859
428.99        72.55439
429.44        71.77539
429.88        70.93771
430.33        71.49386
430.77         72.9385
431.22        72.78893
431.66        71.52334
432.11        71.11018
432.56        71.71329
433.00        72.08614
433.45        72.08329
433.89        72.21833
434.34        71.33316
434.78        73.13985
435.23        72.34881
435.67         72.3513
436.12        71.96313
436.57        72.47605
437.01        73.61011
437.46        74.48085
437.90        74.05904
438.35         73.2979
438.79        73.42661
439.24        73.02132
439.68         72.6297
440.13        72.78321
440.57        73.40913
441.02        73.79907
441.46        73.81837
441.91        74.08475
442.35        74.24118
442.80         74.1052
443.24        73.67627
443.69        73.47117
444.13        73.53415
444.58        73.58803
445.02        73.59808
445.47        73.85767
445.91        74.33082
446.36        74.59752
446.80        74.55193
447.24        75.32136
447.69        75.04111
448.13        75.15707
448.58        75.14355
449.02        75.02734
449.47        74.87548
449.91         74.7889
450.36        74.82513
450.80        74.91994
451.25        75.03244
451.69        75.04393
452.13        74.93896
452.58        74.76042
453.02        74.54442
453.47        74.39543
453.91        74.32542
454.36        74.30147
454.80        74.27695
455.24        74.23978
455.69        74.15633
456.13        73.92838
456.58        73.68708
457.02        73.50792
457.46        73.50188
457.91        73.88771
458.35        74.44167
458.79        74.47523
459.24         73.9575
459.68        73.34171
460.13        72.94003
460.57        71.95621
461.01        72.56991
461.46        72.47302
461.90        72.73907
462.34        73.39292
462.79        72.25296
463.23        72.36863
463.68        72.91022
464.12         73.0209
464.56        72.65092
465.01        72.42367
465.45        72.34807
465.89        72.35026
466.34        72.30936
466.78         72.3575
467.22        71.62141
467.67        71.38935
468.11         71.4942
468.55        71.67231
468.99        71.83853
469.44        71.92973
469.88        71.93072
470.32        71.86601
470.77        71.77591
471.21        71.73029
471.65        71.73185
472.10        71.76982
472.54        71.79964
472.98        71.76231
473.42        71.63894
473.87        71.54963
474.31        71.47025
474.75        71.21438
475.20        70.88781
475.64        70.99972
476.08        71.45728
476.52        71.50031
476.97        71.03643
477.41        71.31495
477.85        70.51364
478.29        70.83755
478.74        71.45164
479.18        71.50371
479.62         70.9949
480.06        70.83401
480.50        71.03781
480.95        70.29236
481.39        71.16194
481.83        69.66824
482.27        70.22638
482.72        70.73531
483.16        70.53583
483.60        70.83334
484.04        71.04493
484.48        70.81891
484.93        70.54128
485.37        71.35582
485.81        71.21535
486.25        72.62737
486.69        71.83779
487.14        69.44685
487.58        68.43525
488.02        70.65132
488.46        70.08089
488.90        69.75649
489.34        70.47636
489.79        70.65213
490.23        70.48392
490.67        70.15854
491.11        69.76597
491.55        69.95055
491.99        70.54982
492.43         70.7085
492.88        70.35921
493.32        70.02987
493.76        69.85492
494.20        69.79671
494.64         69.8606
495.08        70.12611
495.52        70.50104
495.96        70.52366
496.41        70.12543
496.85        70.49902
497.29        70.01947
497.73        69.83656
498.17        69.65154
498.61        69.37273
499.05        69.14713
499.49         69.3711
499.93         69.9293
500.37        70.12021
500.82        69.94704
501.26        69.99651
501.70        70.26836
502.14        70.39961
502.58        70.34007
503.02        70.20148
503.46        69.99434
503.90        69.68861
504.34        69.40353
504.78        69.32674
505.22        69.47109
505.66        69.84178
506.10        70.29718
506.54        70.39867
506.98         70.0263
507.42        70.10034
507.86        69.26878
508.30        69.06803
508.74        69.11751
509.18        69.33196
509.62        69.61597
510.06        69.86279
510.50        70.02945
510.94        70.13451
511.38        70.17516
511.82         70.1414
512.26        70.04066
512.70        69.86889
513.14         69.6677
513.58        69.51225
514.02        69.42451
514.46        69.39597
514.90        69.39968
515.34        69.38289
515.78        69.33327
516.22        69.27061
516.66        69.21662
517.10        69.20257
517.54        69.23421
517.98        69.29488
518.42        69.36749
518.86        69.42655
519.30        69.46339
519.74        69.48578
520.18         69.4957
520.62        69.49862
521.06        69.49508
521.50        69.47517
521.93        69.45241
522.37        69.43886
522.81        69.44216
523.25        69.46796
523.69         69.4798
524.13        69.41743
524.57        69.28093
525.01        69.09368
525.45        68.93343
525.89        68.92207
526.32        69.07477
526.76        69.34252
527.20        69.63097
527.64        69.79072
528.08        69.78133
528.52        69.65565
528.96        69.46346
529.40        69.28424
529.83        69.14387
530.27        69.03516
530.71        68.97239
531.15        68.99451
531.59        69.10065
532.03        69.28193
532.46        69.46808
532.90        69.56413
533.34        69.54727
533.78        69.38842
534.22         69.1627
534.66        69.10925
535.09        69.18832
535.53        69.11815
535.97        68.89886
536.41        68.78013
536.85        68.76844
537.28        68.71893
537.72        68.64813
538.16        68.64346
538.60        68.70383
539.04        68.79955
539.47          68.884
539.91        68.92493
540.35        68.89725
540.79         68.8454
541.22            68.8
541.66        68.71355
542.10        68.77248
542.54        68.81554
542.97        68.87626
543.41        68.96082
543.85        69.04854
544.29        69.14199
544.72        69.20403
545.16        69.21438
545.60        69.15659
546.04        69.03452
546.47          68.892
546.91        68.81568
547.35        68.82972
547.79        68.89114
548.22        68.91219
548.66        68.90398
549.10        68.85527
549.53        68.46902
549.97        68.40526
550.41         68.3376
550.84        68.46252
551.28        68.69765
551.72        68.98681
552.15        69.23849
552.59        69.37582
553.03        69.49523
553.46        69.20853
553.90        69.19479
554.34        69.35264
554.77        69.40136
555.21        69.26199
555.65        69.62756
556.08        69.16927
556.52        69.05034
556.96        68.91236
557.39        68.67516
557.83        68.44448
558.27         68.5834
558.70         68.9608
559.14        69.12677
559.57        68.55112
560.01        68.65917
560.45        69.14385
560.88        69.19978
561.32        68.90417
561.75        68.57191
562.19        68.38202
562.63        68.70161
563.06        69.32603
563.50        69.20225
563.93        68.44962
564.37        68.23074
564.80        68.55484
565.24        68.81059
565.68        68.88473
566.11         68.9096
566.55        68.89464
566.98        68.71153
567.42        68.50689
567.85        68.60032
568.29        68.95262
568.72        69.12887
569.16        69.18582
569.60        69.21815
570.03        69.14173
570.47        69.39713
570.90        69.59656
571.34        68.84855
571.77        69.23517
572.21        69.23257
572.64        69.55633
573.08        69.14593
573.51        69.01807
573.95        70.22003
574.38        69.15903
574.82        69.65118
575.25        69.66739
575.69        70.04839
576.12        69.75497
576.56        69.23082
576.99        69.58115
577.42        69.72259
577.86        69.75861
578.29        69.96754
578.73        70.92912
579.16        69.35483
579.60        68.72685
580.03        68.88991
580.47        69.74425
580.90        68.87657
581.33        69.69672
581.77        69.89339
582.20        70.13556
582.64        69.70923
583.07         69.6694
583.51        69.27172
583.94        69.11775
584.37        69.33805
584.81        69.91662
585.24        69.97707
585.68         69.5066
586.11        69.66984
586.54        70.00702
586.98        69.01095
587.41        68.58823
587.85        69.41095
588.28        69.62048
588.71        68.41533
589.15         69.2936
589.58        68.69068
590.01        68.52569
590.45        68.61108
590.88        69.10793
591.31        69.13702
591.75        69.04951
592.18         68.7001
592.61        68.36016
593.05        68.63228
593.48         69.0184
593.91        69.18597
594.35        68.94215
594.78        68.77272
595.21        68.59256
595.65        68.99692
596.08        69.17818
596.51        68.54611
596.94        68.54517
597.38        68.46599
597.81        68.89675
598.24        68.24783
598.68        69.08463
599.11        68.38779
599.54        69.62666
599.97        69.44821
600.41         68.8541
600.84         69.4408
601.27        69.29332
601.70        69.66241
602.14        69.88718
602.57        69.67233
603.00        69.14622
603.43        68.77979
603.87        69.11827
604.30        69.07391
604.73        68.84998
605.16        68.61556
605.60        68.43846
606.03        68.84495
606.46        69.51086
606.89        69.36745
607.32        68.68321
607.76         68.4071
608.19        68.67446
608.62        69.31625
609.05          69.327
609.48        69.33902
609.92        69.20364
610.35        68.49571
610.78        69.68998
611.21        69.73908
611.64        69.33468
612.07        69.65006
612.50        69.81101
612.94        69.43048
613.37        69.30486
613.80        69.14792
614.23         68.8522
614.66        69.15392
615.09        68.84319
615.52        68.90339
615.96        68.99337
616.39        69.15079
616.82        69.34617
617.25        69.47629
617.68        69.66702
618.11        69.53692
618.54          69.194
618.97        68.90366
619.40        68.77991
619.84        68.67262
620.27        68.60491
620.70         69.0091
621.13        69.74726
621.56        69.18896
621.99         68.8252
622.42        68.79493
622.85         68.8851
623.28        69.16308
623.71        68.60674
624.14        69.17376
624.57        69.07895
625.00         69.2864
625.43         69.3167
625.86        69.23512
626.29        69.04691
626.72        68.99573
627.15        68.84001
627.58        68.71774
628.01        68.58196
628.44        68.60777
628.87         68.7789
629.30        68.77329
629.73        68.86545
630.16        68.91624
630.59        68.90643
631.02        68.84341
631.45        68.72343
631.88         68.6199
632.31        68.55106
632.74        68.49599
633.17        68.46774
633.60        68.46575
634.03        68.48467
634.46        68.56093
634.89        68.67883
635.32        68.62984
635.75        68.67149
636.18        68.62278
636.61        68.57465
637.04        68.52271
637.47        68.48363
637.89        68.45542
638.32        68.39739
638.75        68.35242
639.18        68.33479
639.61        68.06116
640.04        68.08131
640.47        68.04134
640.90        68.10188
641.33         68.2169
641.76        68.32357
642.18        68.41302
642.61         68.4633
643.04        68.33527
643.47        68.00652
643.90        68.40597
644.33        68.07791
644.76        68.09012
645.18        68.04616
645.61        68.26756
646.04        68.63983
646.47         68.6228
646.90        68.28587
647.33        68.20192
647.75        68.39709
648.18        68.51152
648.61        68.54039
649.04        68.59047
649.47        68.61363
649.89        68.73274
650.32        68.87103
650.75        68.44986
651.18        67.71651
651.61        67.95824
652.03        69.02768
652.46        69.15891
652.89        68.33782
653.32        68.22509
653.74        69.05576
654.17        68.57397
654.60        68.70744
655.03        69.51166
655.46         68.5164
655.88        68.40095
656.31         76.3837
656.74        74.77438
657.16        68.51166
657.59        67.09879
658.02        68.53972
658.45        68.75366
658.87        68.84934
659.30        67.85736
659.73         68.0005
660.15        68.88898
660.58        68.29626
661.01        68.26559
661.44         68.0696
661.86        68.15593
662.29        68.47475
662.72        68.73495
663.14        68.90434
663.57        68.98889
664.00         68.9996
664.42        68.96466
664.85        68.89893
665.27        68.73554
665.70        68.53304
666.13        68.43326
666.55         68.4699
666.98        68.58845
667.41        68.75757
667.83        68.92725
668.26        69.05441
668.69        69.15166
669.11        69.21922
669.54        69.27612
669.96        69.31419
670.39        69.28043
670.82        69.20535
671.24        69.13469
671.67        69.10854
672.09        69.19482
672.52        69.34665
672.94         69.3521
673.37        69.19761
673.80        68.98126
674.22        68.78078
674.65        68.65525
675.07        68.65083
675.50        68.73424
675.92        68.86563
676.35        68.97041
676.77        69.02728
677.20        69.04804
677.62        69.05527
678.05        69.07158
678.47        69.10332
678.90        69.14575
679.32        69.17495
679.75        69.18016
680.17        69.14996
680.60        69.09345
681.02        69.03889
681.45        68.99233
681.87        68.96803
682.30        69.01846
682.72        69.12077
683.15        69.03331
683.57        68.83283
684.00        68.91286
684.42        69.21647
684.85        69.33478
685.27        69.22826
685.70        69.13023
686.12        69.06781
686.54        68.99117
686.97        68.90089
687.39        68.89516
687.82        68.92612
688.24         68.7523
688.66        68.46256
689.09         68.5186
689.51        68.88017
689.94        69.06095
690.36         69.0461
690.78        69.02312
691.21        69.09044
691.63        69.42558
692.06        69.97156
692.48          70.423
692.90        70.66534
693.33        70.75952
693.75        70.68768
694.17        70.29699
694.60        69.75668
695.02        69.47588
695.44        69.46249
695.87        69.47446
696.29        69.48414
696.71        69.32603
697.14        69.26122
697.56        69.57841
697.98        70.19638
698.41        70.49046
698.83        70.40442
699.25        70.26104
699.68         70.1207
700.10        70.02352
700.52        69.99896
700.94        69.98967
701.37        69.98505
701.79        70.09492
702.21        70.23246
702.64        70.21681
703.06        70.06796
703.48        69.88303
703.90         69.6638
704.33          69.811
704.75        69.46877
705.17        69.45488
705.59        69.51794
706.01        69.63422
706.44        69.80282
706.86        70.03516
707.28        70.29385
707.70        70.63888
708.12        70.96291
708.55        70.89705
708.97        70.50983
709.39        70.30729
709.81        70.32543
710.23        70.22736
710.66        70.03169
711.08        69.99644
711.50        70.10654
711.92        70.22211
712.34        70.32491
712.76        70.44907
713.19         70.5675
713.61        70.68324
714.03        70.76501
714.45        70.80099
714.87          70.798
715.29        70.77612
715.71        70.74249
716.13        70.69833
716.56        70.62011
716.98         70.5607
717.40        70.50007
717.82        70.43859
718.24        70.40305
718.66        70.43185
719.08        70.52485
719.50        70.66769
719.92        70.80372
720.34        70.84186
720.76        70.76446
721.19        70.60011
721.61        70.41621
722.03        70.31373
722.45        70.32736
722.87        70.43745
723.29        70.59919
723.71        70.73727
724.13        70.82071
724.55        70.85173
724.97        70.87506
725.39        70.96426
725.81        71.12465
726.23        71.33152
726.65        71.47775
727.07        71.39531
727.49        71.07001
727.91        70.57378
728.33        70.07385
728.75        69.83809
729.17        69.93669
729.59         70.2494
730.01        70.63277
730.43        70.95598
730.85        71.16503
731.27         70.8578
731.69        70.90057
732.10        70.70966
732.52        70.57087
732.94         70.4282
733.36        70.33566
733.78        70.38444
734.20        70.57197
734.62        70.86744
735.04        71.18409
735.46        71.39704
735.88         71.4856
736.30        71.44859
736.72        71.30407
737.13        71.30246
737.55        71.40839
737.97        71.10091
738.39        70.56367
738.81         70.8861
739.23        71.87237
739.65        71.98444
740.06        71.25741
740.48        71.06951
740.90        71.42529
741.32         71.6013
741.74        71.51601
742.16        71.42999
742.57        71.34737
742.99         71.1598
743.41        70.97959
743.83        71.03376
744.25        71.30597
744.67        71.60293
745.08         71.8232
745.50        71.86259
745.92         71.6945
746.34        71.29787
746.75        70.81412
747.17        70.51783
747.59         70.4481
748.01        70.60867
748.42        70.88701
748.84        70.88926
749.26        70.65384
749.68         70.6217
750.09        70.81056
750.51        70.94136
750.93        71.00771
751.35        71.17906
751.76        71.42339
752.18        71.58816
752.60        71.65719
753.01        71.69547
753.43        71.69801
753.85        71.69932
754.27        71.72207
754.68        71.76133
755.10        71.83755
755.52        71.97972
755.93        72.16174
756.35        72.35155
756.77        72.53186
757.18        72.57183
757.60        72.45706
758.02        72.51716
758.43         72.6295
758.85         72.0621
759.26        71.11245
759.68        71.14531
760.10        72.08321
760.51        72.63613
760.93        72.63139
761.34        72.36684
761.76        72.68242
762.18         72.1572
762.59        71.34391
763.01        71.42661
763.42        72.36952
763.84        72.75755
764.26        72.49469
764.67        72.36501
765.09        72.43488
765.50        72.33424
765.92        72.11724
766.33        71.90951
766.75        71.69757
767.16        71.67191
767.58        71.82209
768.00        71.96964
768.41        72.17175
768.83        72.82322
769.24        73.73018
769.66        74.07261
770.07        73.84209
770.49        73.67258
770.90         73.6542
771.32        73.51422
771.73        73.26913
772.15        73.13729
772.56        73.19929
772.97        72.82812
773.39        73.10151
773.80        73.22997
774.22         73.1968
774.63        73.28934
775.05        73.37647
775.46        73.44514
775.88        73.44572
776.29        73.41749
776.70        73.38971
777.12        73.43158
777.53        73.57473
777.95         73.7766
778.36        73.97199
778.77        74.03095
779.19        73.92864
779.60        73.70045
780.02        73.43188
780.43        73.29103
780.84        73.33047
781.26        73.41319
781.67        73.47149
782.09        73.60162
782.50        73.71669
782.91        73.20808
783.33        72.72586
783.74        72.61755
784.15         73.0991
784.57        73.77422
784.98        74.50921
785.39        75.15293
785.81        75.60194
786.22        75.66411
786.63        75.80582
787.04        75.73083
787.46         75.6379
787.87        75.44843
788.28        75.27667
788.70        75.27481
789.11        75.42949
789.52        75.72786
789.93        76.01967
790.35        76.04058
790.76        75.77283
791.17        75.29335
791.58        74.75533
792.00        74.45607
792.41        74.49342
792.82        74.55911
793.23        74.60844
793.65        75.13487
794.06        75.83553
794.47        75.42773
794.88        74.26298
795.29        73.86835
795.71        74.25349
796.12        74.73788
796.53        75.08459
796.94        75.23708
797.35         75.0885
797.76        74.68246
798.18        74.24594
798.59        74.08231
799.00        74.27386
799.41        74.72063
799.82        75.27618
800.23        75.68837
800.64        75.86557
801.06        75.86172
801.47        75.76195
801.88        75.60442
802.29        75.43242
802.70        75.22487
803.11        75.03614
803.52        74.96057
803.93        75.02326
804.34        75.21275
804.75        75.46679
805.17        75.69349
805.58        75.89989
805.99        75.92922
806.40        75.82511
806.81        76.00906
807.22        76.34187
807.63         76.0323
808.04        75.22472
808.45        74.86316
808.86        75.03712
809.27        75.25003
809.68        75.40111
810.09         75.5352
810.50        75.60649
810.91        75.61135
811.32         75.5722
811.73        75.52614
812.14        75.49471
812.55        75.46655
812.96         75.4789
813.37        75.59377
813.78        75.81437
814.19        76.11905
814.60        76.43679
815.01         76.6591
815.42        76.75957
815.83        76.75874
816.24        76.69577
816.65        76.65176
817.05        76.65636
817.46         76.6582
817.87        76.65541
818.28        76.59796
818.69         76.4742
819.10        76.30524
819.51          76.121
819.92        75.97481
820.33        75.88895
820.74        75.84817
821.14        75.82599
821.55        75.80899
821.96        75.77837
822.37        75.76174
822.78        75.76463
823.19        75.79004
823.60        75.85035
824.00        75.96368
824.41         76.1193
824.82        76.41911
825.23        76.85207
825.64        77.35438
826.04        77.85525
826.45        78.15559
826.86        78.22673
827.27        78.12518
827.68        77.83965
828.08        77.38278
828.49         76.7656
828.90        76.01469
829.31        75.33392
829.72        75.03199
830.12        75.20812
830.53        75.77406
830.94        76.45422
831.35        76.68441
831.75         76.3423
832.16        75.54207
832.57        74.73372
832.97        74.60084
833.38        75.25785
833.79        76.47162
834.20        77.80346
834.60        78.50751
835.01        78.34316
835.42        77.58856
835.82        76.57641
836.23        75.81278
836.64        75.47215
837.04        75.41457
837.45        75.55507
837.86        75.82451
838.26        76.16591
838.67        76.57398
839.08        76.96381
839.48        77.14497
839.89        77.06583
840.29         76.7752
840.70        76.37103
841.11        75.99305
841.51        75.71568
841.92        75.48093
842.33        75.36744
842.73        75.50108
843.14        75.83672
843.54        76.40408
843.95        76.98363
844.35        77.27849
844.76        77.17928
845.17        76.75827
845.57         76.2543
845.98        76.04394
846.38        76.23599
846.79         76.7082
847.19        77.23962
847.60        77.35645
848.00         76.9775
848.41         76.2473
848.81        75.47569
849.22        75.10923
849.62        75.26794
850.03        75.77846
850.43        76.42846
850.84        76.69719
851.24        76.51452
851.65         76.0155
852.05         75.4624
852.46        75.23659
852.86        75.42004
853.27         75.8524
853.67        76.38448
854.07        77.02864
854.48        77.68035
854.88          78.475
855.29        79.05503
855.69        79.02793
856.10        78.19713
856.50        76.80449
856.90        75.35555
857.31        74.59261
857.71        74.66318
858.12        75.31752
858.52        76.29393
858.92        76.85109
859.33         76.7169
859.73        76.15865
860.13        75.33301
860.54        74.51286
860.94         73.8288
861.34        73.19153
861.75         72.6882
862.15        72.54379
862.55        72.76566
862.96        73.28471
863.36        73.95086
863.76        74.40594
864.17        74.54066
864.57        74.45654
864.97        74.21609
865.38         73.9506
865.78        73.74865
866.18        73.53455
866.58        73.36355
866.99        73.34679
867.39         73.5349
867.79        73.90262
868.19        74.27805
868.60        74.36542
869.00        74.10707
869.40        73.57244
869.80        73.01237
870.21        72.88858
870.61        73.36599
871.01        74.23346
871.41        75.10674
871.81        75.41492
872.22        75.03253
872.62        74.14184
873.02        73.08366
873.42        72.41659
873.82        72.31784
874.22         72.6476
874.63        73.15164
875.03        73.41877
875.43        73.34902
875.83         73.0764
876.23        72.83888
876.63        73.00321
877.03        73.62435
877.44        74.51676
877.84        75.42239
878.24        75.87061
878.64         75.7382
879.04        75.19852
879.44        74.46338
879.84        73.84773
880.24        73.46085
880.64        73.21719
881.04        73.11781
881.44        73.15306
881.84        73.31056
882.24        73.63917
882.65        74.01075
883.05        74.28745
883.45        74.37363
883.85        74.27566
884.25        74.18256
884.65        74.40202
885.05        74.97941
885.45        75.82642
885.85        76.65571
886.25        76.97672
886.65        76.66358
887.05        75.85719
887.45         74.9209
887.85        74.41991
888.25        74.49667
888.65        75.00744
889.04        75.60899
889.44        75.71929
889.84        75.22138
890.24        74.29655
890.64        73.33679
891.04        72.89758
891.44        73.08648
891.84        73.75162
892.24        74.47497
892.64        74.55904
893.04        73.86309
893.44        72.63042
893.83         71.4045
894.23        71.00644
894.63        71.56927
895.03        72.83824
895.43        74.28637
895.83        74.95387
896.23        74.58036
896.63        73.53144
897.02        72.25632
897.42         71.5061
897.82         71.3957
898.22        71.72945
898.62        72.33556
899.01          72.958
899.41        73.42704
899.81        73.86188
900.21        74.31657
900.61        74.86067
901.00        75.48599
901.40        76.07888
901.80        76.54485
902.20        76.77701
902.59        76.76672
902.99        76.57539
903.39        76.27016
903.79        75.95255
904.18        75.65991
904.58        75.39208
904.98        75.20597
905.38        75.19145
905.77         75.3461
906.17        75.68372
906.57        76.01376
906.96        76.03338
907.36        75.67452
907.76        75.03069
908.15        74.42001
908.55        74.31699
908.95        74.83099
909.34        75.80824
909.74        76.85268
910.14        77.39893
910.53        77.27949
910.93        76.67111
911.33        75.84344
911.72        75.21938
912.12        74.95316
912.52        74.91553
912.91        74.96282
913.31         74.8567
913.70        74.54803
914.10        74.14713
914.49        73.79663
914.89        73.67408
915.29        73.82323
915.68        74.16783
916.08        74.59134
916.47        74.92952
916.87         75.1178
917.26        75.20235
917.66        75.23516
918.05        75.29543
918.45        75.39977
918.84        75.55175
919.24        75.71605
919.64        75.91592
920.03         76.1591
920.42        76.42023
920.82        76.67242
921.21        76.90168
921.61        77.05383
922.00        77.10788
922.40        77.04803
922.79        76.93547
923.19         76.7777
923.58        76.62254
923.98        76.35509
924.37        75.72057
924.77        74.76522
925.16        73.56387
925.55         72.5369
925.95        72.37801
926.34        73.25346
926.74        74.87668
927.13        76.77787
927.52        78.10468
927.92        78.58344
928.31         78.4399
928.70        77.89803
929.10        77.38614
929.49        77.09838
929.89        76.90415
930.28        76.78072
930.67         76.6543
931.07        76.49347
931.46        76.35723
931.85        76.32277
932.24        76.47786
932.64         76.8138
933.03        77.31613
933.42        77.73573
933.82         77.7241
934.21         77.2349
934.60        76.36355
934.99        75.52425
935.39         75.3166
935.78        75.89986
936.17         77.1475
936.56        78.53728
936.96         79.1052
937.35        78.62228
937.74        77.31643
938.13        75.86797
938.53        75.18791
938.92        75.39905
939.31        76.29287
939.70         77.2977
940.09        77.38907
940.49        76.34881
940.88        74.59309
941.27        72.83427
941.66        72.10633
942.05        72.64416
942.44        74.13825
942.84         76.0564
943.23        77.48985
943.62        78.00726
944.01        77.86629
944.40         77.3623
944.79        76.98895
945.18        76.91224
945.57        76.93427
945.97        76.97352
946.36        77.02937
946.75          77.051
947.14        77.12257
947.53        77.18719
947.92        77.09624
948.31        76.83587
948.70        76.44657
949.09        76.09645
949.48        76.04243
949.87        76.34344
950.26        76.95181
950.65        77.67329
951.04        78.16585
951.43        78.30705
951.82        78.12766
952.21        77.86667
952.60        77.91463
952.99         78.3139
953.38        78.93301
953.77        79.38651
954.16        79.00636
954.55         77.7213
954.94        75.89849
955.33        74.05032
955.72         72.9276
956.11        72.73277
956.50         73.1898
956.89        74.17711
957.28        75.50117
957.66         77.0319
958.05        78.67999
958.44        80.01425
958.83        80.20373
959.22        79.11758
959.61        77.07382
960.00        74.76893
960.39        73.20493
960.78        72.62656
961.16        72.82127
961.55        73.49465
961.94        74.22917
962.33        74.82331
962.72        75.40947
963.11        75.88599
963.49        76.06562
963.88        75.87113
964.27        75.35213
964.66        74.70258
965.04        74.23898
965.43        74.02361
965.82        73.96921
966.21        74.03829
966.60        74.13017
966.98        74.21349
967.37        74.33099
967.76        74.39648
968.15        74.23184
968.53        73.82887
968.92        73.19897
969.31        72.59998
969.69        72.46326
970.08        72.80949
970.47        73.50755
970.86        74.19391
971.24        74.22655
971.63         73.3886
972.02        71.98268
972.40        70.35785
972.79        69.05992
973.17        68.30032
973.56        67.95225
973.95        67.97611
974.33        68.32269
974.72        68.87062
975.11        69.58107
975.49        70.47587
975.88        71.49259
976.26        72.58898
976.65        73.67345
977.04        74.31556
977.42        73.85107
977.81        72.27412
978.19        69.82842
978.58        67.70177
978.96        67.44119
979.35        69.30318
979.74        72.93382
980.12        77.34396
980.51        79.85474
980.89        79.73839
981.28          77.579
981.66        74.52251
982.05        72.55816
982.43        72.24702
982.82        72.93069
983.20        74.40211
983.59        76.11376
983.97        77.83456
984.35        79.73453
984.74        81.13638
985.12        81.04156
985.51        79.33749
985.89        76.27268
986.28        73.05479
986.66        71.53098
987.04        72.24979
987.43        74.66189
987.81        77.73067
988.20        79.42264
988.58        79.15078
988.96        77.36143
989.35        74.98031
989.73        73.46143
990.12        73.20882
990.50        73.90159
990.88        74.73291
991.27        74.44543
991.65        72.88081
992.03        70.51665
992.42        68.45479
992.80        68.09457
993.18        69.81242
993.56        73.07828
993.95        76.72661
994.33        79.05345
994.71        79.25105
995.10        77.79469
995.48        75.43761
995.86        73.47027
996.24        72.41309
996.63        71.94478
997.01        71.77594
997.39        71.46261
997.77          70.882
998.15        70.23993
998.54        69.79781
998.92        69.96687
999.30        70.83186
999.68        72.21854
1000.06        73.65948
1000.45        74.35235
1000.83        74.20022
1001.21        73.32623
1001.59        72.18601
1001.97        71.62152
1002.35        71.87177
1002.73        72.62794
1003.12        73.59715
1003.50        74.23286
1003.88        74.37611
1004.26        74.29091
1004.64        73.90228
1005.02        73.03539
1005.40          71.774
1005.78        70.16938
1006.16        68.76719
1006.54        68.57431
1006.92        69.77589
1007.30         71.9819
1007.69        74.41956
1008.07        76.03696
1008.45        76.38692
1008.83        75.83802
1009.21        74.56132
1009.59        72.87321
1009.97        71.06586
1010.35        69.09322
1010.73        67.54697
1011.11        67.47557
1011.49        69.13895
1011.86        72.49687
1012.24        76.55906
1012.62        79.76016
1013.00        81.39666
1013.38        81.67384
1013.76        80.94925
1014.14        80.14819
1014.52        79.63389
1014.90        79.01104
1015.28        78.35744
1015.66        77.88013
1016.04        77.62346
1016.41        77.71536
1016.79        77.71234
1017.17        76.84575
1017.55        74.88332
1017.93        71.52862
1018.31        67.42513
1018.69        65.41059
1019.06        66.78189
1019.44        70.24267
1019.82        73.31593
1020.20        73.87458
1020.58        71.92682
1020.95         67.8194
1021.33        62.85403
1021.71        60.71087
1022.09         63.3889
1022.46        69.73266
1022.84        77.15968
1023.22        82.28193
1023.60        84.15234
1023.97        83.72808
1024.35        81.51047
1024.73        78.55328
