SpectraSmart Spectrum 2.9.0.0
--------- Device Information -----------
Spectrum Name :  反射率_0
Saving Time :  2024/05/01 16:28:47
Spectro-Module Model Name : SE2030-DUVN
Spectro-Module Serial Number : OS361AC55029948
Wavelength Start : 200
Wavelength End : 1025
Wavelength Unit : Wavelength(nm)
Spectrum Unit : Reflectance(%)
-----------Spectrum Setting ------------
Integration Time : 20ms
Average : 10
Boxcar : 0
Background removal :  enabled
linearity correction :  enabled
SC :  disabled
Intensity correction :  disabled
DWT denoise :  enabled
savitzky-golay :  disabled
FFT :  disabled
Running average :  disabled
Kalman :  disabled
High pass :  disabled
---------------BEGIN--------------------
Wavelength(nm)             Reflectance(%)
200.29               0
200.75        14.97346
201.21        193.6223
201.67       -91.76395
202.13       -21.06839
202.58        9.841894
203.04         31.8943
203.50        46.89709
203.96        54.25039
204.42        55.97601
204.88        51.04063
205.34       -87.85719
205.80        63.64994
206.26        33.39464
206.72       -20.30596
207.18       -288.2087
207.64        485.0393
208.10        215.3998
208.55        150.4924
209.01        117.7771
209.47        97.47639
209.93        83.31654
210.39        70.19803
210.85        60.40048
211.31        60.13251
211.77        88.15318
212.23       -199.6821
212.69       -29.92539
213.14       -16.58755
213.60       -14.87242
214.06        28.59459
214.52        3.544831
214.98         6.60741
215.44        16.21285
215.90         46.4064
216.36        503.6309
216.81        -196.895
217.27       -231.0248
217.73        410.0031
218.19        65.35423
218.65        30.26699
219.11        14.72274
219.57       -8.643188
220.02       -77.87556
220.48       -11.64146
220.94        22.89238
221.40        30.80266
221.86        33.52348
222.32        34.67454
222.77        35.37473
223.23        35.90132
223.69        35.24992
224.15        31.66104
224.61        26.92064
225.06        23.00356
225.52        21.10768
225.98        21.16338
226.44        22.79189
226.90        26.03306
227.36        30.42084
227.81        32.90204
228.27        31.96442
228.73        29.43101
229.19         26.9468
229.65        25.26109
230.10        24.17007
230.56        23.50472
231.02        23.17128
231.48        23.24129
231.93        23.67904
232.39        24.35148
232.85        25.44192
233.31        27.23474
233.77        29.51698
234.22        32.08585
234.68        34.27036
235.14        35.43957
235.60        35.58673
236.05        34.81702
236.51        33.64273
236.97        34.01882
237.43        37.24688
237.88        42.78342
238.34        48.57743
238.80         53.0938
239.26        56.41478
239.71        59.30099
240.17        61.44224
240.63        61.80144
241.08        59.89171
241.54        56.78617
242.00        55.14589
242.46        57.33091
242.91         64.9697
243.37        80.13169
243.83        106.9583
244.28        131.8644
244.74        132.6878
245.20        120.6331
245.66        108.6987
246.11        100.8809
246.57        95.50471
247.03        89.35265
247.48        78.52454
247.94        58.57721
248.40        33.80782
248.85        11.95327
249.31        4.660439
249.77        15.67819
250.22        35.38606
250.68        55.89166
251.14        72.20653
251.59        83.10986
252.05        91.37833
252.51        100.8202
252.96        118.6154
253.42        153.4977
253.88        171.3656
254.33        151.6473
254.79        131.1928
255.25        116.2923
255.70        104.3225
256.16        95.59657
256.62        89.34713
257.07        85.49052
257.53        83.99209
257.99        83.40928
258.44        82.95482
258.90        82.69411
259.35        82.03352
259.81        81.37874
260.27        80.43931
260.72        78.99624
261.18         77.4709
261.63        75.61665
262.09        73.89961
262.55        72.27987
263.00        70.62221
263.46        69.10776
263.91        67.47171
264.37        65.80592
264.83        64.06133
265.28        62.29053
265.74        60.65044
266.19        59.02612
266.65        57.54797
267.11        56.12671
267.56        54.90792
268.02        54.23471
268.47        54.05956
268.93        54.21885
269.38        54.34773
269.84        53.81379
270.30        52.51155
270.75        50.64733
271.21        48.57967
271.66        46.71882
272.12        45.26863
272.57        44.04723
273.03        43.07469
273.48        42.30914
273.94        41.72645
274.39        41.29584
274.85        40.89704
275.31        40.25831
275.76         39.3424
276.22        38.30313
276.67         37.2268
277.13        36.37004
277.58        35.70833
278.04         35.1936
278.49        34.75966
278.95        34.43835
279.40        34.14706
279.86        33.93073
280.31        33.62819
280.77        33.12312
281.22        32.36642
281.68        31.48031
282.13        30.57506
282.59        29.90318
283.04        29.48044
283.50        29.30014
283.95        29.23612
284.41        29.14899
284.86        28.99202
285.32        28.82678
285.77        28.76501
286.22        29.01348
286.68        29.58122
287.13        30.35244
287.59        31.11398
288.04        31.47957
288.50        31.39819
288.95        30.96276
289.41         30.4527
289.86        30.17583
290.32          30.247
290.77        30.57551
291.22        31.02959
291.68        31.38938
292.13        31.62097
292.59        31.85903
293.04        32.25574
293.50        33.08654
293.95        34.38069
294.40         36.0391
294.86        37.89382
295.31         39.6919
295.77        41.33939
296.22        42.87772
296.68        44.37548
297.13        45.92591
297.58         47.5919
298.04        49.36894
298.49        51.21822
298.95        53.12315
299.40          55.035
299.85        56.95089
300.31        58.95357
300.76        61.14201
301.21        63.55375
301.67        66.17891
302.12        68.79052
302.58        71.05889
303.03        72.86703
303.48        74.33762
303.94        75.82938
304.39        77.75774
304.84        80.26668
305.30        83.19875
305.75        86.22163
306.20         88.8503
306.66        90.95744
307.11        92.63302
307.57        94.11554
308.02         95.6285
308.47        97.29453
308.93        99.03477
309.38        100.7246
309.83        102.2853
310.29        103.7063
310.74        105.0176
311.19        106.2647
311.65        107.4778
312.10        108.6413
312.55        109.7352
313.00        110.8003
313.46        111.9119
313.91        113.0579
314.36        114.2173
314.82         115.244
315.27        115.9178
315.72        116.1881
316.18        116.1728
316.63        116.0209
317.08         116.047
317.53        116.3368
317.99         116.808
318.44        117.3727
318.89        117.8442
319.35         118.166
319.80        118.4266
320.25        118.6536
320.70        118.8967
321.16        119.1592
321.61        119.4121
322.06        119.7039
322.51        120.1472
322.97        120.7119
323.42        121.4113
323.87        122.0272
324.32        122.2265
324.78        121.9445
325.23        121.3373
325.68        120.6608
326.13        120.3552
326.59        120.5246
327.04        121.1098
327.49        121.9233
327.94        122.6663
328.39        123.2166
328.85        123.5894
329.30        123.9359
329.75        124.3263
330.20        124.7914
330.66        125.2529
331.11        125.6776
331.56        125.8775
332.01         125.845
332.46        125.6514
332.92        125.4905
333.37        125.8002
333.82        126.6415
334.27        127.9307
334.72        129.3838
335.17        130.4911
335.63        131.0449
336.08        131.1994
336.53        131.1761
336.98         131.429
337.43        132.0819
337.88        133.0143
338.34        133.9092
338.79        134.3501
339.24        134.1982
339.69        133.6182
340.14        133.0103
340.59        132.9851
341.05        133.6707
341.50        134.9043
341.95        136.2584
342.40         137.044
342.85        137.0993
343.30        136.6487
343.75        136.1142
344.20        136.1517
344.66        136.9009
345.11        138.1273
345.56        139.4845
346.01        140.3958
346.46        140.7009
346.91        140.6255
347.36         140.383
347.81        140.2876
348.26        140.4454
348.72        140.7344
349.17        141.1274
349.62        141.6731
350.07        142.3033
350.52        142.9712
350.97        143.4728
351.42        143.4609
351.87        142.8943
352.32        141.9433
352.77        140.7727
353.22        139.6486
353.67         138.687
354.13         137.841
354.58        137.2076
355.03        137.0552
355.48        137.3723
355.93         138.113
356.38        138.8164
356.83        138.7058
357.28        137.6412
357.73        135.8571
358.18        133.9877
358.63        132.9851
359.08         133.014
359.53        133.7663
359.98        134.6581
360.43        134.7151
360.88        133.6878
361.33        131.9253
361.78        129.9262
362.23        128.3923
362.68        127.4999
363.13        127.0238
363.58        126.6842
364.03        126.0651
364.48         125.042
364.93        123.7438
365.38        122.3988
365.83        121.3191
366.28        120.5647
366.73        120.0469
367.18        119.4702
367.63        118.3883
368.08        116.7647
368.53        114.7926
368.98        112.9236
369.43         111.799
369.88        111.5163
370.33        111.8624
370.78        112.3931
371.23        112.3348
371.68        111.4702
372.13        110.0597
372.58        108.4732
373.03        107.2603
373.48        106.5577
373.93        106.1606
374.38        105.9149
374.83          105.59
375.28        105.0924
375.72         104.501
376.17        103.8314
376.62        103.0196
377.07        102.0807
377.52        101.0189
377.97        99.95303
378.42         99.0863
378.87        98.46551
379.32        98.04932
379.77        97.71506
380.22        97.25612
380.67        96.62814
381.11        95.90257
381.56        95.18469
382.01        94.67353
382.46        94.41507
382.91        94.32433
383.36        94.29582
383.81        94.17358
384.26        93.90302
384.71        93.53074
385.15         93.0657
385.60        92.57701
386.05        92.08105
386.50        91.57008
386.95        91.07411
387.40        90.65086
387.85        90.30533
388.29        89.96231
388.74        89.69737
389.19        89.40228
389.64        89.05711
390.09        88.67987
390.54        88.25045
390.98        87.73933
391.43         87.2253
391.88        86.66072
392.33        86.13316
392.78        85.86807
393.23        85.81506
393.67        85.66171
394.12        85.43422
394.57        85.23888
395.02        85.02973
395.47        84.59492
395.91        84.04399
396.36         83.7095
396.81        83.63805
397.26        83.71809
397.71        83.80032
398.15        83.66639
398.60        83.36832
399.05        82.86136
399.50         82.3344
399.95        82.18053
400.39        82.38812
400.84        82.50759
401.29        82.40677
401.74        82.16409
402.18         81.7506
402.63         81.0342
403.08        80.24624
403.53        79.78942
403.97        79.71532
404.42        79.91309
404.87        80.18034
405.32        80.19338
405.76        79.87196
406.21        79.39694
406.66        78.89223
407.11        78.47672
407.55        78.29472
408.00        78.39774
408.45        78.68853
408.90         78.9847
409.34         79.0687
409.79        78.59085
410.24        77.75272
410.68        77.27582
411.13        77.24445
411.58         77.2543
412.03        77.23967
412.47        77.27959
412.92        77.30983
413.37        77.32572
413.81        77.29377
414.26        77.23445
414.71        77.12984
415.15        76.97002
415.60        76.73495
416.05        76.60973
416.49        76.38406
416.94        76.23437
417.39        76.10924
417.83        76.02334
418.28        75.97711
418.73        75.97643
419.17         75.9881
419.62        75.95568
420.07        75.86121
420.51        75.70087
420.96        75.56449
421.41         75.4702
421.85        75.39763
422.30        75.51131
422.74        75.71645
423.19        75.58414
423.64        75.18445
424.08        75.37952
424.53        76.12122
424.98        75.77936
425.42        75.84962
425.87        75.60993
426.31        75.60693
426.76        75.15933
427.21        74.56181
427.65        75.21006
428.10        76.61013
428.54        76.76733
428.99         75.8082
429.44        74.78152
429.88        74.06451
430.33         74.7612
430.77        76.11978
431.22        75.79379
431.66        74.05865
432.11        73.52103
432.56        74.25863
433.00        74.99278
433.45        75.49349
433.89        74.74018
434.34        74.31377
434.78        75.38812
435.23        75.01118
435.67        75.08632
436.12        74.77431
436.57        75.16748
437.01        76.08069
437.46        76.50269
437.90        76.40125
438.35         75.7773
438.79        75.89041
439.24         75.4397
439.68        74.91902
440.13        74.90988
440.57         75.4118
441.02        75.69752
441.46        75.63181
441.91        76.01781
442.35        76.69296
442.80        75.94698
443.24        76.05038
443.69        75.81718
444.13        75.91966
444.58        75.93597
445.02        75.85679
445.47        75.95522
445.91        76.21099
446.36         76.4295
446.80        76.55309
447.24        77.04762
447.69        77.12897
448.13        77.30067
448.58        77.34666
449.02        77.27799
449.47         77.1696
449.91        77.11111
450.36        77.14973
450.80        77.22759
451.25        77.30157
451.69         77.2531
452.13        77.07259
452.58        76.81052
453.02        76.50851
453.47        76.28253
453.91         76.1487
454.36        76.05781
454.80        75.97057
455.24         75.9183
455.69        75.84652
456.13        75.58225
456.58         75.2575
457.02        74.99896
457.46        74.93036
457.91        75.28484
458.35        75.82573
458.79        75.80299
459.24        75.17509
459.68        74.48329
460.13        74.07638
460.57        72.98225
461.01        73.37709
461.46        73.50605
461.90        73.76184
462.34        73.99438
462.79        73.46806
463.23          73.383
463.68        73.48813
464.12        73.44739
464.56        73.24786
465.01        73.04214
465.45        72.81654
465.89        72.88644
466.34         73.1143
466.78         72.9449
467.22        72.21033
467.67        72.06038
468.11        72.19165
468.55        72.41125
468.99        72.53852
469.44        72.62599
469.88        72.65076
470.32        72.59634
470.77        72.49045
471.21         72.3951
471.65        72.31413
472.10        72.24516
472.54        72.17141
472.98        72.07465
473.42        71.94664
473.87        71.89309
474.31         71.8607
474.75        71.64018
475.20        71.33395
475.64        71.37247
476.08        71.69215
476.52        71.73103
476.97        71.42879
477.41        71.35486
477.85        71.07885
478.29        70.94569
478.74        71.42763
479.18        71.45102
479.62         70.8372
480.06        70.69986
480.50        70.92846
480.95        70.23706
481.39        71.13168
481.83        69.91019
482.27        70.35162
482.72          70.683
483.16        70.39466
483.60        70.20982
484.04        70.76804
484.48        70.86626
484.93        71.00387
485.37        71.36348
485.81        71.04259
486.25        71.54121
486.69        71.06458
487.14        68.75621
487.58        68.43246
488.02        70.33836
488.46        69.71987
488.90        69.61559
489.34        70.69179
489.79        70.10545
490.23        70.60504
490.67        70.15968
491.11        69.66612
491.55        69.75613
491.99        70.31898
492.43        70.47012
492.88        70.12852
493.32        69.87265
493.76        69.76447
494.20        69.69088
494.64         69.6683
495.08        69.64482
495.52        69.64163
495.96        69.78336
496.41        69.98909
496.85        70.09515
497.29        70.01498
497.73        69.65677
498.17        69.17088
498.61        68.96222
499.05        69.10083
499.49        69.39049
499.93        69.67986
500.37        69.76563
500.82        69.69991
501.26        69.43813
501.70        69.76518
502.14        69.77485
502.58        69.66219
503.02        69.51966
503.46        69.36311
503.90        69.14565
504.34         68.9604
504.78        68.97643
505.22        69.20048
505.66        69.62275
506.10        70.08943
506.54        70.19461
506.98        69.90297
507.42        69.73286
507.86        69.07022
508.30        68.80897
508.74        68.78506
509.18        68.94033
509.62         69.1813
510.06        69.37003
510.50        69.46075
510.94        69.49063
511.38        69.48372
511.82        69.47342
512.26         69.4685
512.70        69.44007
513.14        69.38673
513.58        69.31725
514.02        69.23456
514.46        69.15098
514.90        69.05504
515.34        68.92236
515.78        68.75946
516.22        68.58281
516.66        68.43893
517.10        68.39593
517.54        68.46382
517.98        68.61803
518.42        68.80488
518.86        68.93497
519.30        68.98025
519.74        68.96077
520.18        68.90691
520.62        68.87219
521.06        68.86959
521.50        68.87504
521.93        68.87702
522.37        68.84892
522.81        68.79092
523.25        68.72411
523.69        68.64452
524.13        68.53891
524.57        68.41771
525.01        68.29126
525.45        68.20228
525.89        68.21822
526.32        68.34315
526.76        68.54431
527.20         68.7662
527.64        68.92234
528.08        68.98355
528.52        68.97762
528.96          68.911
529.40         68.7976
529.83        68.64864
530.27        68.48054
530.71        68.33804
531.15        68.30775
531.59        68.40307
532.03        68.59759
532.46        68.81092
532.90        68.93237
533.34        68.93065
533.78        68.78336
534.22        68.55786
534.66        68.47845
535.09        68.50632
535.53        68.36744
535.97        68.07922
536.41        67.91499
536.85        67.89096
537.28        67.86272
537.72        67.83494
538.16        67.87421
538.60        67.97068
539.04        68.09097
539.47        68.20435
539.91        68.30453
540.35         68.3643
540.79         68.4162
541.22        68.44352
541.66        68.32629
542.10        68.24307
542.54        68.06433
542.97        67.89282
543.41        67.84154
543.85        67.91508
544.29         68.0836
544.72        68.25764
545.16        68.33319
545.60        68.26943
546.04        68.09592
546.47        67.88306
546.91        67.75811
547.35        67.76188
547.79        67.84174
548.22         67.8944
548.66         67.9088
549.10        67.86481
549.53        67.47038
549.97        67.40419
550.41        67.37161
550.84        67.56374
551.28        67.93674
551.72        68.36213
552.15        68.51895
552.59        68.35756
553.03        68.30275
553.46        67.87556
553.90        67.77402
554.34        67.87314
554.77        67.97732
555.21        67.96273
555.65        68.40811
556.08        67.99929
556.52        67.85117
556.96        67.63576
557.39        67.50343
557.83        67.49706
558.27        67.48027
558.70        67.44163
559.14        67.70014
559.57        67.63609
560.01         67.8314
560.45         67.9883
560.88         67.8765
561.32        67.61243
561.75        67.26086
562.19         67.0047
562.63        67.33322
563.06        68.01056
563.50        67.84866
563.93        66.98725
564.37        66.72441
564.80        67.06969
565.24        67.32877
565.68        67.39661
566.11        67.43176
566.55        67.43644
566.98        67.34254
567.42        67.25339
567.85        67.26092
568.29        67.40331
568.72        67.62112
569.16        67.92538
569.60        68.02448
570.03        67.82317
570.47        67.88481
570.90        68.20689
571.34        67.11024
571.77        67.62292
572.21        67.50053
572.64        67.68969
573.08         67.2567
573.51        67.54274
573.95         67.9197
574.38        67.23324
574.82        67.37882
575.25         67.8119
575.69        68.20035
576.12        67.92516
576.56        67.14568
576.99        67.69144
577.42        67.47012
577.86        67.89169
578.29        67.83253
578.73        68.46336
579.16         67.5331
579.60        67.18693
580.03         66.9381
580.47        67.53788
580.90        67.04292
581.33        67.92064
581.77        68.10766
582.20        68.09302
582.64         67.8303
583.07        67.79102
583.51        67.42873
583.94        67.17992
584.37        67.43268
584.81        68.09138
585.24         68.1851
585.68        67.75938
586.11        67.57296
586.54        67.51741
586.98        67.32928
587.41        66.80614
587.85        67.66771
588.28        67.65475
588.71         66.1815
589.15        67.45184
589.58         67.0872
590.01        67.03112
590.45        67.09284
590.88        67.39864
591.31        67.46471
591.75        67.45736
592.18        67.03466
592.61        66.32304
593.05        67.22604
593.48        66.87629
593.91        67.33788
594.35        66.94189
594.78        66.88946
595.21        66.85797
595.65        67.19792
596.08         67.0192
596.51        66.92825
596.94          66.728
597.38        66.67065
597.81        66.84725
598.24        66.53443
598.68        67.17464
599.11        66.55624
599.54        67.73314
599.97         67.2879
600.41        66.72636
600.84        67.27014
601.27        66.99403
601.70        67.45684
602.14        67.87977
602.57         67.4049
603.00        67.23399
603.43         66.8275
603.87        67.04699
604.30        67.19804
604.73        66.93081
605.16         66.6659
605.60        66.70463
606.03        66.87424
606.46        67.11069
606.89        66.91227
607.32        66.50956
607.76        66.30953
608.19        66.41377
608.62        66.96677
609.05        67.00805
609.48        66.99509
609.92        66.89362
610.35        66.12904
610.78        67.33901
611.21         67.4106
611.64        67.09207
612.07        67.15755
612.50         67.1968
612.94        67.10847
613.37        66.76929
613.80        67.03999
614.23        66.83274
614.66        67.20242
615.09        66.80055
615.52        66.81641
615.96        66.91393
616.39        67.03799
616.82        67.07368
617.25        66.96786
617.68         67.1207
618.11        66.96873
618.54        66.70242
618.97        66.55312
619.40         66.5664
619.84        66.55523
620.27        66.50997
620.70        66.76374
621.13         67.2177
621.56        66.97781
621.99        66.06508
622.42        66.62817
622.85         66.6153
623.28        66.71587
623.71        66.49487
624.14        66.98985
624.57        67.06896
625.00        67.26034
625.43         67.2395
625.86        67.06181
626.29        66.70035
626.72        66.79576
627.15        66.41944
627.58        66.16963
628.01        65.86019
628.44        66.14183
628.87        66.68799
629.30        66.76805
629.73        66.37844
630.16        66.29946
630.59        66.54916
631.02        66.65712
631.45        66.59183
631.88        66.53635
632.31        66.49591
632.74        66.42226
633.17        66.34898
633.60        66.32981
634.03        66.37411
634.46        66.47636
634.89        66.59678
635.32        66.66089
635.75        66.64822
636.18        66.57695
636.61        66.47932
637.04        66.41166
637.47        66.39454
637.89        66.39944
638.32        66.37361
638.75        66.33755
639.18        66.29944
639.61        65.99722
640.04        65.96584
640.47         65.8633
640.90        65.85286
641.33        65.89168
641.76        65.94689
642.18        66.05478
642.61         66.1994
643.04        66.22945
643.47        66.07803
643.90        66.57673
644.33        66.28873
644.76        66.26817
645.18        66.15849
645.61          66.325
646.04        66.67155
646.47        66.65512
646.90          66.327
647.33         66.2242
647.75        66.36887
648.18        66.41158
648.61        66.35771
649.04        66.36931
649.47        66.39777
649.89        66.43899
650.32        66.43925
650.75        66.07584
651.18        65.53199
651.61        65.68144
652.03        66.43429
652.46        66.53846
652.89        65.99622
653.32         66.0002
653.74        66.66083
654.17        66.24159
654.60         66.5046
655.03        66.62624
655.46        65.68224
655.88        65.82561
656.31        72.58685
656.74        70.50962
657.16        65.11642
657.59        64.06262
658.02        65.82004
658.45        66.19667
658.87        66.44654
659.30        65.86745
659.73        65.94354
660.15          66.746
660.58        66.15423
661.01        65.94699
661.44        65.56837
661.86        65.59971
662.29         65.9859
662.72        66.29853
663.14        66.45789
663.57        66.44308
664.00        66.31122
664.42        66.23963
664.85        66.25623
665.27        66.20326
665.70        66.09569
666.13        66.04781
666.55        66.07557
666.98         66.1284
667.41        66.20502
667.83        66.30652
668.26        66.40739
668.69        66.51184
669.11        66.59052
669.54        66.62015
669.96        66.58819
670.39        66.43972
670.82         66.2539
671.24        66.20429
671.67        66.31445
672.09        66.50094
672.52        66.69067
672.94        66.73991
673.37        66.62439
673.80         66.3884
674.22        66.11922
674.65        65.92807
675.07        65.87262
675.50        65.90581
675.92        65.99445
676.35        66.07547
676.77        66.12699
677.20        66.15937
677.62        66.18207
678.05        66.19411
678.47        66.19558
678.90        66.18774
679.32        66.15544
679.75        66.10287
680.17        66.02874
680.60        65.93941
681.02        65.86331
681.45        65.82986
681.87        65.85719
682.30        65.92501
682.72        66.01318
683.15        66.05289
683.57        66.03795
684.00        65.98289
684.42        65.91726
684.85          65.902
685.27        65.93151
685.70        65.99079
686.12        66.04207
686.54        66.02823
686.97        65.93166
687.39        65.86443
687.82        65.81133
688.24        65.59138
688.66          65.299
689.09        65.34526
689.51          65.711
689.94        65.92915
690.36        65.96987
690.78        66.12151
691.21        66.37595
691.63        66.48153
692.06        66.48896
692.48        66.72737
692.90        67.11047
693.33        67.22904
693.75        67.06149
694.17        66.75968
694.60        66.45283
695.02        66.33172
695.44        66.37953
695.87         66.4073
696.29          66.381
696.71        66.21773
697.14        66.02744
697.56        66.23274
697.98        66.73647
698.41        66.96546
698.83        66.87316
699.25        66.78141
699.68        66.71205
700.10        66.62462
700.52        66.53496
700.94        66.41462
701.37        66.30589
701.79        66.39769
702.21        66.62676
702.64        66.79062
703.06        66.85691
703.48        66.84171
703.90        66.71897
704.33        66.88519
704.75          66.546
705.17        66.52908
705.59        66.60735
706.01        66.74563
706.44        66.91108
706.86        67.08081
707.28        67.22147
707.70        67.36838
708.12        67.48043
708.55        67.40581
708.97        67.17229
709.39        66.97913
709.81         66.8701
710.23        66.77514
710.66        66.71465
711.08        66.77747
711.50        66.91669
711.92        67.02183
712.34        67.06944
712.76         67.0881
713.19        67.07809
713.61        67.08945
714.03         67.1121
714.45        67.12982
714.87        67.14435
715.29        67.16309
715.71        67.18483
716.13        67.21056
716.56        67.21106
716.98        67.22177
717.40        67.21574
717.82        67.19488
718.24        67.17313
718.66        67.17352
719.08        67.19901
719.50        67.24078
719.92        67.28078
720.34        67.29124
720.76        67.26524
721.19        67.21074
721.61        67.14497
722.03         67.0874
722.45        67.05121
722.87        67.04008
723.29         67.0461
723.71        67.05717
724.13        67.06592
724.55        67.06067
724.97        67.07135
725.39        67.14529
725.81        67.28262
726.23        67.47417
726.65        67.62458
727.07        67.58154
727.49        67.32966
727.91        66.92287
728.33        66.52126
728.75        66.37948
729.17        66.54835
729.59        66.94531
730.01        67.41175
730.43         67.6741
730.85         67.6535
731.27        67.44364
731.69        67.14719
732.10        66.92313
732.52        66.83234
732.94         66.8187
733.36        66.87897
733.78        67.01733
734.20        67.21093
734.62        67.44985
735.04        67.68736
735.46        67.84475
735.88         67.9093
736.30        67.90571
736.72        67.83492
737.13        67.76782
737.55         67.7093
737.97        67.52706
738.39         67.3169
738.81         67.5602
739.23        68.12772
739.65        68.19647
740.06        67.78108
740.48        67.68883
740.90        67.90929
741.32        68.01441
741.74        67.96188
742.16        67.90162
742.57        67.83591
742.99         67.7623
743.41        67.72569
743.83         67.6816
744.25        67.68098
744.67         67.9348
745.08        68.35809
745.50        68.51547
745.92        68.36823
746.34        68.11287
746.75        67.81421
747.17        67.54614
747.59         67.3365
748.01        67.17551
748.42        67.08006
748.84        67.05863
749.26         67.1221
749.68        67.22832
750.09        67.33778
750.51        67.49755
750.93        67.63935
751.35         67.5589
751.76         67.3397
752.18        67.30199
752.60        67.48528
753.01        67.74848
753.43        67.98957
753.85        68.14385
754.27        68.18371
754.68        68.13515
755.10          68.077
755.52        68.12547
755.93        68.28922
756.35        68.51643
756.77         68.7405
757.18        68.79408
757.60        68.65775
758.02        68.54929
758.43         68.4314
758.85        67.98746
759.26        67.47092
759.68        67.38854
760.10        68.37294
760.51        68.82561
760.93        68.50371
761.34        68.31644
761.76        68.26948
762.18        68.18871
762.59        68.14709
763.01         68.2634
763.42        68.52105
763.84        68.62444
764.26        68.56425
764.67        68.41474
765.09         68.2694
765.50        68.17518
765.92         68.1544
766.33          68.078
766.75        67.93504
767.16         68.0169
767.58        68.29264
768.00        68.60224
768.41        68.92429
768.83        69.34482
769.24        69.77078
769.66         69.9236
770.07        69.81411
770.49        69.63221
770.90        69.46442
771.32        69.42119
771.73        69.48454
772.15         69.4355
772.56        69.28201
772.97        69.18509
773.39        69.15199
773.80        69.16673
774.22        69.20013
774.63        69.30065
775.05        69.41644
775.46        69.53571
775.88        69.61614
776.29        69.68262
776.70        69.73385
777.12        69.79269
777.53         69.8804
777.95        69.96698
778.36        70.03394
778.77        70.02674
779.19        69.93678
779.60        69.79123
780.02        69.62978
780.43        69.49858
780.84        69.43378
781.26        69.45261
781.67        69.51863
782.09        69.54021
782.50        69.48615
782.91         69.2983
783.33        69.08085
783.74        69.12908
784.15        69.48131
784.57        69.95516
784.98        70.49583
785.39        71.02136
785.81        71.46818
786.22        71.62415
786.63        71.86935
787.04        71.82677
787.46        71.66634
787.87        71.35835
788.28        71.04784
788.70        70.93125
789.11        71.01541
789.52         71.2646
789.93        71.55229
790.35        71.65536
790.76        71.54615
791.17        71.28777
791.58        70.96145
792.00        70.72533
792.41        70.64955
792.82        70.54224
793.23        70.43071
793.65        70.74088
794.06            71.3
794.47         71.2175
794.88        70.66055
795.29        70.56982
795.71        70.91616
796.12        71.28844
796.53        71.51865
796.94        71.56126
797.35        71.35199
797.76        70.92776
798.18         70.4779
798.59        70.25091
799.00        70.31776
799.41        70.60599
799.82        71.00473
800.23        71.31623
800.64        71.46679
801.06        71.49332
801.47        71.45741
801.88        71.36501
802.29        71.24458
802.70        71.08367
803.11        70.93552
803.52        70.89515
803.93        70.98594
804.34        71.18604
804.75        71.44356
805.17        71.67916
805.58        71.89819
805.99         71.9761
806.40        71.92574
806.81          72.045
807.22        72.22639
807.63        71.86132
808.04        71.11084
808.45        70.80286
808.86        71.02447
809.27        71.34695
809.68         71.6619
810.09        71.95313
810.50        72.15365
810.91        72.27415
811.32        72.28816
811.73        72.15679
812.14        71.89793
812.55        71.52417
812.96        71.17654
813.37        71.09933
813.78        71.34511
814.19         71.8436
814.60        72.42138
815.01        72.80654
815.42        72.92605
815.83        72.84197
816.24        72.64472
816.65        72.51679
817.05        72.52509
817.46        72.57965
817.87        72.64182
818.28        72.61614
818.69        72.47643
819.10        72.26311
819.51        72.02087
819.92        71.82415
820.33        71.70727
820.74        71.65141
821.14        71.62253
821.55        71.59377
821.96         71.5468
822.37        71.51643
822.78         71.5246
823.19        71.60172
823.60        71.76069
824.00        71.99752
824.41        72.28065
824.82        72.67455
825.23        73.15321
825.64         73.6637
826.04        74.12065
826.45        74.30972
826.86        74.20942
827.27        73.88611
827.68        73.39212
828.08        72.84097
828.49        72.26966
828.90        71.68412
829.31        71.20955
829.72         71.0237
830.12        71.18696
830.53        71.63742
830.94        72.17452
831.35        72.37425
831.75         72.1488
832.16        71.56764
832.57        70.97347
832.97         70.8912
833.38        71.40306
833.79        72.32328
834.20        73.32816
834.60        73.86701
835.01        73.75567
835.42        73.21395
835.82        72.45377
836.23        71.79192
836.64        71.35906
837.04        71.07433
837.45        70.96207
837.86        71.13007
838.26        71.57138
838.67        72.22511
839.08        72.90913
839.48        73.27985
839.89        73.23787
840.29        72.87321
840.70        72.35659
841.11         71.9404
841.51        71.72924
841.92         71.6353
842.33        71.66582
842.73         71.8325
843.14        72.07012
843.54        72.44521
843.95        72.84056
844.35        73.12321
844.76        73.21745
845.17        73.12666
845.57         72.9682
845.98        72.93441
846.38        73.08085
846.79        73.33948
847.19        73.55238
847.60        73.36782
848.00         72.7624
848.41        71.85993
848.81        70.96371
849.22        70.50285
849.62        70.58823
850.03        71.06345
850.43        71.71882
850.84        72.03742
851.24        71.93686
851.65        71.54107
852.05        71.07957
852.46        70.89287
852.86        71.05448
853.27        71.41661
853.67        71.86162
854.07        72.43141
854.48        73.03547
854.88        73.79623
855.29        74.36846
855.69        74.35848
856.10        73.57303
856.50        72.24606
856.90        70.86694
857.31        70.15253
857.71         70.2465
858.12        70.91109
858.52        71.88306
858.92        72.43029
859.33        72.29408
859.73        71.74513
860.13        70.95842
860.54        70.23979
860.94        69.71099
861.34        69.24288
861.75        68.91049
862.15        68.90945
862.55        69.23186
862.96        69.84233
863.36          70.499
863.76        70.69936
864.17        70.34185
864.57        69.57423
864.97        68.72192
865.38        68.34221
865.78        68.60027
866.18        69.30389
866.58        70.16233
866.99         70.6442
867.39         70.6125
867.79        70.25115
868.19        69.71377
868.60        69.18626
869.00        68.74345
869.40         68.3064
869.80        68.02164
870.21        68.16325
870.61        68.79773
871.01        69.78334
871.41        70.72572
871.81        71.02182
872.22        70.55375
872.62        69.50073
873.02        68.23811
873.42        67.40279
873.82        67.20695
874.22        67.50472
874.63         68.0562
875.03        68.46408
875.43        68.61343
875.83        68.61859
876.23        68.67029
876.63        69.05962
877.03        69.82043
877.44        70.79061
877.84        71.70766
878.24        72.10731
878.64        71.88368
879.04        71.20542
879.44        70.35984
879.84        69.77685
880.24         69.5726
880.64        69.62653
881.04        69.81695
881.44        69.92992
881.84        69.90993
882.24        69.86938
882.65        69.80357
883.05        69.80071
883.45        69.84261
883.85        69.85442
884.25         69.9525
884.65         70.3376
885.05        71.01288
885.45        71.93198
885.85        72.77168
886.25        72.97331
886.65         72.4225
887.05        71.29139
887.45        70.05392
887.85        69.45616
888.25        69.67464
888.65        70.50056
889.04        71.51128
889.44        71.98264
889.84        71.73949
890.24         71.0082
890.64        70.15842
891.04        69.71377
891.44        69.80692
891.84        70.30042
892.24        70.88793
892.64        71.07072
893.04        70.72892
893.44          70.007
893.83        69.32166
894.23        69.31026
894.63        70.05223
895.03        71.35573
895.43        72.65891
895.83        72.96091
896.23        72.05901
896.63        70.37128
897.02        68.54879
897.42        67.60021
897.82         67.6712
898.22        68.50067
898.62        69.72296
899.01        70.72746
899.41        71.22845
899.81        71.41497
900.21        71.50283
900.61        71.85607
901.00        72.54728
901.40        73.36582
901.80        74.05391
902.20        74.25816
902.59        73.92115
902.99        73.20518
903.39        72.34148
903.79        71.68517
904.18         71.3417
904.58        71.22368
904.98         71.2607
905.38        71.34905
905.77        71.43297
906.17        71.58929
906.57        71.70106
906.96        71.58014
907.36        71.20021
907.76        70.62006
908.15        70.11637
908.55          70.104
908.95        70.67457
909.34         71.6934
909.74        72.80836
910.14        73.51731
910.53        73.65622
910.93        73.36559
911.33        72.83952
911.72        72.39285
912.12         72.1511
912.52        72.01059
912.91        71.89594
913.31        71.68158
913.70        71.36089
914.10        71.03672
914.49        70.78384
914.89        70.67216
915.29        70.72205
915.68        70.86861
916.08        71.12282
916.47        71.52804
916.87        72.03731
917.26        72.61637
917.66        73.07221
918.05        73.11565
918.45         72.7054
918.84        71.96664
919.24        71.14372
919.64        70.75994
920.03        70.97607
920.42        71.61517
920.82        72.43159
921.21        73.07373
921.61        73.39935
922.00        73.51704
922.40         73.4483
922.79        73.31502
923.19        73.15055
923.58         72.9069
923.98        72.59249
924.37        72.16696
924.77        71.67821
925.16        71.17816
925.55        70.74927
925.95        70.47681
926.34        70.42633
926.74        70.53088
927.13        70.88252
927.52        71.52516
927.92        72.39269
928.31        73.43317
928.70        74.38685
929.10        74.86557
929.49        74.79652
929.89        74.27905
930.28        73.52885
930.67        72.87849
931.07        72.45063
931.46        72.16066
931.85        72.03892
932.24        72.12052
932.64        72.37196
933.03        72.84238
933.42        73.27493
933.82        73.27257
934.21        72.77756
934.60        71.87415
934.99        70.98599
935.39        70.74533
935.78        71.31151
936.17        72.54739
936.56        73.91167
936.96        74.40397
937.35        73.80222
937.74        72.38097
938.13        70.85342
938.53        70.16883
938.92        70.46603
939.31        71.51445
939.70        72.76691
940.09        73.23052
940.49        72.64426
940.88        71.36829
941.27        70.00936
941.66        69.46194
942.05        69.93494
942.44        71.15887
942.84        72.65658
943.23        73.63493
943.62        73.75137
944.01        73.27005
944.40         72.5461
944.79        72.14354
945.18        72.22206
945.57        72.55347
945.97        72.96615
946.36        73.31155
946.75        73.48484
947.14        73.59101
947.53        73.57433
947.92        73.30986
948.31        72.81364
948.70        72.13114
949.09        71.49187
949.48        71.24089
949.87        71.45969
950.26        72.09607
950.65        72.92322
951.04        73.52192
951.43        73.74486
951.82        73.64379
952.21        73.47093
952.60        73.64547
952.99        74.21201
953.38         75.0048
953.77        75.63051
954.16        75.41571
954.55        74.26438
954.94        72.53331
955.33        70.68305
955.72        69.38604
956.11        68.84591
956.50        68.83183
956.89         69.3049
957.28        70.19821
957.66        71.42898
958.05        72.89983
958.44        74.17805
958.83        74.41571
959.22        73.46223
959.61        71.63242
960.00        69.58398
960.39        68.26862
960.78        67.91615
961.16         68.3072
961.55        69.15199
961.94        70.05058
962.33        70.79918
962.72        71.51111
963.11        72.06792
963.49        72.25943
963.88        72.00082
964.27        71.35223
964.66         70.5185
965.04        69.81512
965.43         69.3127
965.82        68.94742
966.21        68.69216
966.60        68.47878
966.98        68.29633
967.37        68.17043
967.76        68.08301
968.15        67.95997
968.53        67.79165
968.92        67.57246
969.31        67.35165
969.69        67.23343
970.08        67.19325
970.47        67.18519
970.86         67.1695
971.24        67.09636
971.63        66.91447
972.02         66.7222
972.40        66.47383
972.79        66.12265
973.17        65.72843
973.56        65.31839
973.95        65.11104
974.33        65.45335
974.72        66.33875
975.11        67.62952
975.49        69.12538
975.88        70.35446
976.26         71.1436
976.65        71.53014
977.04        71.41109
977.42        70.63194
977.81        69.26862
978.19        67.37119
978.58        65.78692
978.96        65.54805
979.35        66.81293
979.74        69.43159
980.12        72.62246
980.51        74.18378
980.89        73.61958
981.28        71.35496
981.66        68.62538
982.05         67.5517
982.43        68.61982
982.82        71.17003
983.20        74.37536
983.59        76.62199
983.97        77.46603
984.35        77.35422
984.74        76.52647
985.12        75.50069
985.51        74.49274
985.89        73.28014
986.28        72.21091
986.66        71.71243
987.04         71.9539
987.43        72.86566
987.81        73.97984
988.20        74.24252
988.58         73.4475
988.96        71.73364
989.35         69.8626
989.73        69.05043
990.12        69.52602
990.50        71.01562
990.88         72.5608
991.27        72.60045
991.65        70.92486
992.03        68.12408
992.42        65.36194
992.80        64.16866
993.18        65.01521
993.56         67.3325
993.95        70.30719
994.33        72.82089
994.71        74.16435
995.10        74.64953
995.48        74.31683
995.86        73.26187
996.24        71.72413
996.63        69.73863
997.01        67.74214
997.39        66.36971
997.77        65.78333
998.15         65.9399
998.54        66.66747
998.92        67.56817
999.30        68.44975
999.68        69.33741
1000.06        70.25225
1000.45         71.2197
1000.83        72.32626
1001.21        73.40282
1001.59        74.15741
1001.97        74.19479
1002.35        73.44949
1002.73        72.04463
1003.12        70.52615
1003.50        69.71617
1003.88        69.84681
1004.26        70.73483
1004.64        71.76718
1005.02         71.9957
1005.40        71.24435
1005.78        69.77314
1006.16        68.22754
1006.54        67.76144
1006.92         68.6478
1007.30        70.45062
1007.69        72.33886
1008.07        73.21522
1008.45         72.6767
1008.83        71.15258
1009.21        69.14442
1009.59        67.47259
1009.97        66.49659
1010.35        66.02222
1010.73        66.11971
1011.11        66.88952
1011.49        68.34674
1011.86        70.74729
1012.24        73.56759
1012.62        76.19318
1013.00        78.31438
1013.38        79.79044
1013.76        80.99006
1014.14        82.81818
1014.52        85.39339
1014.90        88.34668
1015.28        90.51274
1015.66        89.95511
1016.04        86.67908
1016.41        81.95175
1016.79        77.36442
1017.17        74.01115
1017.55        71.74746
1017.93        69.97447
1018.31        68.54191
1018.69        67.51512
1019.06        67.09938
1019.44        67.50241
1019.82        68.00573
1020.20        67.81844
1020.58        66.91206
1020.95        65.21072
1021.33        63.48935
1021.71        63.66515
1022.09         66.4781
1022.46        71.05234
1022.84        75.67615
1023.22        78.28453
1023.60        78.38327
1023.97        76.76904
1024.35        73.57373
1024.73        69.27203
