SpectraSmart Spectrum 2.9.0.0
--------- Device Information -----------
Spectrum Name :  反射率_0
Saving Time :  2024/05/01 16:37:48
Spectro-Module Model Name : SE2030-DUVN
Spectro-Module Serial Number : OS361AC55029948
Wavelength Start : 200
Wavelength End : 1025
Wavelength Unit : Wavelength(nm)
Spectrum Unit : Reflectance(%)
-----------Spectrum Setting ------------
Integration Time : 20ms
Average : 10
Boxcar : 0
Background removal :  enabled
linearity correction :  enabled
SC :  disabled
Intensity correction :  disabled
DWT denoise :  enabled
savitzky-golay :  disabled
FFT :  disabled
Running average :  disabled
Kalman :  disabled
High pass :  disabled
---------------BEGIN--------------------
Wavelength(nm)             Reflectance(%)
200.29               0
200.75        88.71947
201.21        625.9501
201.67       -329.5673
202.13       -129.5445
202.58       -55.09505
203.04        -7.80642
203.50        21.71512
203.96        33.01645
204.42        27.56387
204.88       -11.97029
205.34       -1110.779
205.80         216.876
206.26        144.9781
206.72        107.3474
207.18        22.93193
207.64        200.6601
208.10         117.172
208.55        88.58934
209.01        70.13697
209.47         58.6876
209.93        51.40577
210.39        43.55428
210.85         35.6193
211.31        28.23797
211.77        14.60776
212.23        86.94472
212.69        45.44152
213.14        58.23905
213.60        122.9325
214.06       -596.8873
214.52       -98.55077
214.98       -65.64155
215.44       -58.30133
215.90       -64.08322
216.36       -212.1221
216.81        2.731122
217.27       -30.48629
217.73        53.66038
218.19       -1.631933
218.65       -12.15917
219.11        -24.1904
219.57       -57.70811
220.02       -179.4448
220.48       -71.14367
220.94       -7.235809
221.40        8.469396
221.86        14.67891
222.32        18.82246
222.77        23.43424
223.23        29.75099
223.69         37.7158
224.15        42.11641
224.61        40.42628
225.06        36.13145
225.52        33.18856
225.98        33.10762
226.44        35.72273
226.90        40.94255
227.36        47.95301
227.81        51.82533
228.27        50.35421
228.73        46.60416
229.19        43.57305
229.65        43.05944
230.10        44.90572
230.56        48.71956
231.02        53.69899
231.48        56.97878
231.93        56.95965
232.39        55.29945
232.85        53.21991
233.31        51.84356
233.77        51.35407
234.22          51.306
234.68        51.78704
235.14        53.14433
235.60        55.58576
236.05        59.70438
236.51        65.61189
236.97        71.63494
237.43        75.33887
237.88        75.71997
238.34        73.56603
238.80        72.06046
239.26        72.20719
239.71        74.02849
240.17        76.28319
240.63        74.54318
241.08        66.61921
241.54        56.73706
242.00        50.20287
242.46        49.89711
242.91        56.69551
243.37        71.91006
243.83        99.74019
244.28          126.18
244.74        127.7335
245.20         115.977
245.66        103.4253
246.11        93.51881
246.57        84.09991
247.03        70.42093
247.48        48.54308
247.94         21.7114
248.40         2.18287
248.85       -5.037963
249.31        1.276686
249.77        14.01886
250.22        26.78383
250.68        37.90326
251.14        46.21817
251.59        52.04232
252.05        57.21589
252.51        64.09792
252.96        77.89649
253.42        105.6265
253.88        120.8073
254.33        108.2093
254.79        95.90958
255.25        89.41707
255.70        85.82707
256.16        84.34738
256.62        83.56094
257.07        82.65538
257.53        82.30888
257.99        82.13983
258.44        82.21899
258.90        83.33801
259.35        84.81376
259.81        86.66061
260.27         88.0127
260.72        87.81857
261.18         86.5013
261.63         84.2607
262.09        82.02538
262.55        80.17422
263.00        78.61073
263.46        77.35075
263.91        76.05074
264.37        74.78087
264.83        73.43124
265.28        72.06396
265.74        70.75836
266.19        69.23004
266.65        67.62398
267.11        65.89852
267.56        64.33161
268.02        63.48709
268.47        63.36481
268.93        63.74802
269.38        64.16334
269.84        63.80143
270.30        62.50908
270.75        60.54383
271.21        58.35563
271.66         56.4824
272.12        55.14777
272.57         54.0951
273.03        53.26636
273.48        52.48828
273.94        51.73494
274.39        51.04633
274.85        50.35569
275.31        49.43967
275.76        48.27793
276.22        46.99917
276.67        45.75005
277.13        44.90364
277.58        44.40703
278.04        44.18775
278.49        43.97387
278.95        43.50882
279.40         42.6859
279.86        41.68881
280.31        40.61881
280.77        39.74907
281.22        39.05906
281.68        38.52889
282.13        38.02261
282.59        37.47242
283.04        36.82359
283.50         36.1932
283.95         35.6012
284.41        35.14776
284.86        34.84227
285.32        34.66676
285.77        34.62914
286.22        34.80612
286.68          35.175
287.13        35.66967
287.59        36.14033
288.04        36.29424
288.50         36.1105
288.95        35.64054
289.41        35.11708
289.86        34.77333
290.32        34.71057
290.77        34.85363
291.22        35.10426
291.68        35.29059
292.13        35.38273
292.59        35.49269
293.04        35.73225
293.50        36.32261
293.95        37.27823
294.40        38.51606
294.86        39.90444
295.31        41.24889
295.77        42.47348
296.22        43.60784
296.68        44.69018
297.13        45.75871
297.58        46.87066
298.04        48.05078
298.49        49.30126
298.95        50.67158
299.40        52.13319
299.85        53.65617
300.31        55.30046
300.76        57.13203
301.21        59.16248
301.67        61.38319
302.12        63.55185
302.58        65.31815
303.03        66.58481
303.48        67.50069
303.94        68.44845
304.39        69.88099
304.84        71.94405
305.30        74.46844
305.75        77.13979
306.20        79.49608
306.66        81.40172
307.11        82.93536
307.57        84.28013
308.02        85.59271
308.47        86.97514
308.93        88.36667
309.38        89.68519
309.83         90.9124
310.29        92.05817
310.74        93.14611
311.19        94.20575
311.65        95.24088
312.10        96.23772
312.55        97.19263
313.00        98.16154
313.46        99.24042
313.91        100.4165
314.36        101.6456
314.82        102.7717
315.27        103.5594
315.72        103.9438
316.18        104.0392
316.63        103.9634
317.08        103.9769
317.53        104.1637
317.99        104.4586
318.44        104.8408
318.89        105.2421
319.35        105.6306
319.80         106.056
320.25        106.4711
320.70        106.7986
321.16        107.0152
321.61        107.1411
322.06         107.273
322.51        107.6005
322.97        108.1278
323.42        108.8322
323.87        109.5185
324.32        109.8895
324.78        109.8677
325.23        109.5887
325.68        109.2149
326.13        109.0339
326.59        109.1187
327.04         109.443
327.49         109.919
327.94        110.4227
328.39        110.8903
328.85        111.3055
329.30         111.745
329.75        112.1639
330.20        112.5546
330.66        112.8802
331.11        113.1568
331.56        113.2892
332.01         113.293
332.46        113.2089
332.92        113.1674
333.37        113.4966
333.82        114.2333
334.27        115.3226
334.72        116.5646
335.17        117.5911
335.63        118.2416
336.08        118.6356
336.53        118.8991
336.98        119.3267
337.43        119.9992
337.88        120.8241
338.34        121.6047
338.79        122.1185
339.24        122.2623
339.69        122.1281
340.14        121.9273
340.59        121.9784
341.05        122.3557
341.50        123.0005
341.95        123.6991
342.40        124.1027
342.85        124.1486
343.30        123.9709
343.75        123.8317
344.20        124.1325
344.66        124.9425
345.11         126.095
345.56        127.3574
346.01        128.3364
346.46        128.8995
346.91        129.1807
347.36        129.2563
347.81        129.2474
348.26        129.2287
348.72        129.1644
349.17        129.1429
349.62        129.3852
350.07        129.8874
350.52          130.56
350.97        131.1759
351.42        131.3447
351.87        130.9927
352.32        130.2953
352.77        129.3818
353.22        128.4621
353.67        127.6368
354.13        126.8596
354.58        126.2498
355.03        126.1121
355.48        126.4496
355.93        127.2112
356.38        127.9441
356.83        127.8798
357.28        126.8836
357.73           125.2
358.18        123.4509
358.63        122.5681
359.08        122.7142
359.53          123.58
359.98        124.6086
360.43         124.867
360.88        124.1014
361.33        122.6385
361.78        120.9124
362.23        119.5374
362.68        118.6782
363.13        118.1357
363.58        117.7079
364.03        117.1031
364.48        116.2317
364.93        115.1988
365.38         114.151
365.83         113.273
366.28        112.5991
366.73        112.0727
367.18        111.5016
367.63        110.6039
368.08         109.364
368.53        107.9077
368.98         106.539
369.43        105.6868
369.88        105.4089
370.33        105.5547
370.78        105.8187
371.23        105.6717
371.68        104.9668
372.13        103.8864
372.58        102.6711
373.03        101.6751
373.48          100.99
373.93        100.4812
374.38        100.0795
374.83        99.69058
375.28        99.26049
375.72        98.81503
376.17        98.32555
376.62        97.66667
377.07        96.83859
377.52        95.88633
377.97        94.92104
378.42        94.13017
378.87        93.56265
379.32        93.15933
379.77        92.86726
380.22        92.59486
380.67        92.30037
381.11        92.01851
381.56         91.7001
382.01        91.28735
382.46         90.7869
382.91         90.2132
383.36        89.65908
383.81        89.27486
384.26        89.07658
384.71        89.00757
385.15        88.95053
385.60        88.76847
386.05        88.41039
386.50        87.94021
386.95        87.40834
387.40        86.90028
387.85        86.45076
388.29        85.97525
388.74        85.60098
389.19        85.31204
389.64        85.09284
390.09        84.93225
390.54         84.7442
390.98        84.37188
391.43        83.86257
391.88        83.25405
392.33        82.66473
392.78        82.29306
393.23        82.16671
393.67        82.09332
394.12        82.04543
394.57        82.07102
395.02        82.01266
395.47        81.35596
395.91        80.36377
396.36        79.93916
396.81        80.17667
397.26        80.65768
397.71        81.08434
398.15        81.12798
398.60        80.80054
399.05        80.09702
399.50        79.34167
399.95        79.03734
400.39         79.4732
400.84        79.60818
401.29        79.40496
401.74        79.19614
402.18        78.95805
402.63        78.40656
403.08        77.71918
403.53        77.30597
403.97        77.20412
404.42        77.28784
404.87        77.43739
405.32        77.42899
405.76        77.19775
406.21        77.00413
406.66        76.84074
407.11        76.37054
407.55        75.82294
408.00        75.85272
408.45         76.3858
408.90        76.84974
409.34        76.95628
409.79        76.39584
410.24        75.42771
410.68        74.94729
411.13        75.04958
411.58        75.19717
412.03        75.28852
412.47        75.41177
412.92        75.48934
413.37        75.51605
413.81        75.47733
414.26        75.41304
414.71        75.31517
415.15        75.19076
415.60        75.05107
416.05        74.98234
416.49        75.00377
416.94        75.08575
417.39        75.18468
417.83        75.21037
418.28         75.1469
418.73        75.03252
419.17        74.88832
419.62         74.7534
420.07        74.63877
420.51        74.51437
420.96        74.45924
421.41        74.46008
421.85        74.47971
422.30        74.73114
422.74        75.10517
423.19        75.00662
423.64        74.51961
424.08        74.81126
424.53        75.87996
424.98        75.27882
425.42        75.66759
425.87        75.47598
426.31        75.55516
426.76        75.13102
427.21        74.51079
427.65        74.95174
428.10        76.05052
428.54        76.36774
428.99        75.87373
429.44        74.75873
429.88        73.56158
430.33        74.19641
430.77        75.98405
431.22        75.93726
431.66         74.2453
432.11        73.46432
432.56        73.81633
433.00        74.53246
433.45        75.33797
433.89        75.39177
434.34        74.19861
434.78        75.90459
435.23        75.51075
435.67        75.59924
436.12        74.98226
436.57        75.39121
437.01        76.60282
437.46        77.11212
437.90        76.82394
438.35        76.07224
438.79         76.1574
439.24        75.72942
439.68        75.29797
440.13        75.44187
440.57         76.0868
441.02        76.53379
441.46         76.6467
441.91        76.94368
442.35        77.24474
442.80        77.17972
443.24        76.80801
443.69        76.68952
444.13        76.81791
444.58        76.81963
445.02        76.66106
445.47        76.66368
445.91         76.8755
446.36        77.05627
446.80        77.13959
447.24        77.95032
447.69        77.99966
448.13        78.22984
448.58        78.21726
449.02         78.0171
449.47        77.75383
449.91        77.61362
450.36        77.66895
450.80        77.81483
451.25        77.98649
451.69        78.03297
452.13        77.93406
452.58        77.75853
453.02        77.51943
453.47        77.31602
453.91        77.17093
454.36        76.94434
454.80        76.69896
455.24        76.77856
455.69        77.16557
456.13        76.94692
456.58        76.38238
457.02        75.93063
457.46        76.26531
457.91         76.7195
458.35        77.21908
458.79        77.25844
459.24         76.7879
459.68        76.22135
460.13        75.90901
460.57        74.86638
461.01        75.17156
461.46         75.3857
461.90        75.87125
462.34        75.58229
462.79        74.79646
463.23        74.82372
463.68        75.56259
464.12         75.7354
464.56        75.29322
465.01         75.0003
465.45        74.89449
465.89        74.93659
466.34        74.94863
466.78         75.0659
467.22        74.35285
467.67        73.75323
468.11        74.09799
468.55        74.33006
468.99        74.61375
469.44        74.73929
469.88        74.68202
470.32        74.52035
470.77        74.33064
471.21        74.24064
471.65         74.2705
472.10        74.39787
472.54        74.51797
472.98        74.50452
473.42        74.32832
473.87         74.0598
474.31        73.76505
474.75          73.535
475.20        73.35725
475.64        73.44146
476.08        73.79693
476.52        73.45245
476.97        72.85445
477.41         73.9621
477.85        72.73122
478.29        72.96714
478.74        73.48193
479.18         73.6023
479.62        72.75139
480.06        72.57329
480.50        72.95796
480.95        72.24678
481.39        72.97417
481.83        72.17474
482.27        72.68084
482.72        72.88459
483.16        72.73946
483.60         72.8941
484.04        73.07711
484.48        73.03016
484.93        73.11674
485.37         73.3306
485.81        73.51633
486.25        74.30674
486.69         74.0286
487.14        71.40565
487.58        70.77466
488.02        72.97351
488.46        72.62347
488.90        71.97929
489.34        72.93687
489.79        72.25322
490.23        72.40563
490.67        72.21431
491.11         72.1738
491.55        72.17981
491.99        72.17234
492.43        72.12511
492.88        72.01369
493.32        71.89227
493.76        71.78808
494.20        71.77028
494.64        71.84839
495.08        71.93552
495.52         72.0228
495.96        72.16787
496.41        72.29107
496.85        72.25967
497.29        72.09363
497.73        71.68875
498.17        71.67289
498.61         71.5228
499.05        71.46288
499.49         71.6927
499.93        72.07658
500.37        72.16162
500.82        71.98995
501.26        71.81641
501.70        71.96535
502.14        72.20565
502.58        72.00584
503.02        71.95181
503.46        71.87008
503.90        71.76521
504.34        71.67424
504.78        71.61491
505.22        71.61256
505.66        71.81911
506.10        72.15888
506.54        72.21635
506.98        71.90315
507.42        72.06055
507.86        71.47394
508.30        71.37786
508.74        71.42132
509.18        71.56152
509.62        71.73286
510.06        71.87058
510.50        71.95316
510.94         71.9892
511.38        71.98223
511.82        71.93621
512.26        71.85666
512.70        71.73425
513.14        71.59872
513.58        71.50217
514.02        71.45647
514.46        71.45734
514.90        71.46397
515.34        71.40556
515.78        71.27191
516.22        71.08875
516.66        70.91693
517.10         70.8487
517.54        70.90244
517.98        71.04868
518.42        71.22491
518.86         71.3278
519.30        71.33101
519.74        71.26588
520.18        71.18364
520.62        71.16758
521.06        71.23428
521.50         71.3453
521.93        71.46739
522.37        71.53813
522.81        71.54449
523.25         71.5162
523.69        71.44962
524.13        71.33561
524.57        71.18855
525.01        71.01376
525.45        70.87293
525.89        70.86392
526.32        70.99605
526.76        71.23457
527.20        71.49125
527.64        71.62341
528.08        71.59613
528.52        71.45934
528.96        71.27108
529.40        71.12484
529.83        71.04491
530.27        71.01669
530.71        71.03524
531.15        71.11082
531.59         71.2328
532.03        71.39576
532.46        71.54111
532.90        71.59478
533.34        71.54323
533.78        71.35731
534.22        71.10155
534.66        71.00098
535.09        71.01406
535.53        70.85883
535.97        70.56963
536.41        70.45315
536.85        70.52136
537.28        70.60765
537.72        70.67397
538.16        70.72346
538.60        70.73679
539.04        70.70964
539.47        70.65182
539.91        70.61996
540.35        70.60823
540.79        70.63407
541.22        70.68163
541.66        70.62593
542.10        70.64084
542.54        70.58988
542.97         70.5446
543.41        70.56575
543.85        70.64472
544.29        70.76424
544.72        70.86633
545.16        70.88667
545.60        70.79607
546.04        70.65709
546.47        70.51855
546.91        70.36617
547.35        70.28212
547.79        70.45649
548.22        70.73525
548.66        70.83539
549.10        70.72398
549.53        70.24686
549.97        70.13335
550.41         70.0486
550.84        70.19877
551.28        70.56472
551.72        71.03542
552.15        71.23965
552.59        71.12519
553.03        71.36053
553.46        71.05616
553.90         71.0249
554.34        71.02803
554.77        70.91027
555.21         70.6244
555.65        70.96725
556.08        70.57719
556.52        70.41082
556.96        70.12428
557.39        69.99632
557.83        70.06355
558.27        70.12153
558.70         70.1338
559.14        70.42249
559.57        70.36549
560.01        70.56087
560.45        70.71287
560.88        70.74921
561.32        70.70292
561.75        70.19495
562.19        69.52931
562.63        69.87152
563.06        70.95194
563.50        70.89989
563.93        69.86195
564.37         69.6943
564.80         70.3391
565.24        70.59835
565.68        70.39253
566.11        70.27874
566.55        70.29467
566.98        70.15095
567.42        69.97829
567.85        70.08279
568.29        70.45094
568.72        70.71062
569.16        70.87989
569.60        70.97356
570.03         70.9105
570.47        70.76285
570.90        71.21681
571.34        70.01222
571.77        70.63663
572.21        70.61428
572.64        70.95721
573.08        70.54549
573.51        70.80606
573.95        71.34601
574.38         70.8885
574.82        70.95183
575.25        71.34284
575.69        71.55805
576.12        71.06863
576.56        70.46085
576.99        71.16296
577.42        71.55378
577.86        71.00877
578.29         70.9272
578.73        71.91259
579.16        71.00333
579.60        70.59667
580.03        70.33455
580.47        70.98904
580.90         70.1228
581.33        71.50739
581.77        71.80856
582.20        71.66926
582.64        71.56194
583.07        71.10891
583.51        70.76008
583.94        70.72059
584.37        71.02959
584.81        71.58814
585.24        71.69466
585.68        71.33043
586.11         71.1854
586.54        71.24551
586.98        70.40213
587.41        70.19159
587.85        71.30741
588.28        71.22838
588.71        69.90694
589.15         71.1271
589.58        70.51855
590.01        70.60857
590.45        70.56084
590.88        70.75189
591.31        70.80152
591.75        70.66122
592.18        70.42317
592.61          70.142
593.05        70.46986
593.48        70.79147
593.91         70.7158
594.35        70.28493
594.78        70.10267
595.21        70.12752
595.65         70.6684
596.08        70.51534
596.51        70.22556
596.94        70.18313
597.38        70.10099
597.81        70.29111
598.24        69.78407
598.68        70.22247
599.11        69.89869
599.54        70.64455
599.97        70.52301
600.41        70.36302
600.84        70.88007
601.27        70.79642
601.70        70.80451
602.14         70.9509
602.57        70.80033
603.00        70.57285
603.43        70.29077
603.87        70.49255
604.30         70.5611
604.73        70.33182
605.16        70.15396
605.60         69.9649
606.03        70.21078
606.46        70.66102
606.89        70.59848
607.32        70.20409
607.76         70.0082
608.19        70.11737
608.62        70.49269
609.05         70.1683
609.48        70.43864
609.92        70.09052
610.35        69.66971
610.78        71.03535
611.21        71.10777
611.64        70.60153
612.07        70.68073
612.50        71.36919
612.94        71.04984
613.37        70.60069
613.80        70.54326
614.23        70.03278
614.66        70.35009
615.09        70.05528
615.52        70.24823
615.96         70.4893
616.39        70.64062
616.82        70.68214
617.25        70.49858
617.68        70.52319
618.11         70.3886
618.54        70.25657
618.97        70.19435
619.40        70.22577
619.84        70.21218
620.27        70.14398
620.70        70.31259
621.13        70.72593
621.56        70.15318
621.99        70.07817
622.42          70.102
622.85        70.20683
623.28        69.88852
623.71        69.97401
624.14        70.31634
624.57        70.36457
625.00         70.4895
625.43        70.43549
625.86        70.36214
626.29        70.34875
626.72        69.94113
627.15        70.00601
627.58        69.74108
628.01        69.46011
628.44        69.62977
628.87        70.17282
629.30        69.94947
629.73        69.85976
630.16        69.78281
630.59        69.97997
631.02          70.106
631.45        70.13609
631.88        70.10735
632.31        69.99241
632.74        70.07761
633.17        69.87079
633.60        69.84284
634.03        69.85136
634.46        69.90043
634.89        69.96579
635.32         70.0118
635.75         70.0279
636.18        70.01775
636.61        69.98505
637.04        69.93166
637.47        69.85809
637.89         69.7884
638.32        69.71132
638.75        69.60159
639.18        69.45589
639.61        69.46428
640.04        69.32708
640.47        69.32362
640.90        69.36221
641.33        69.42905
641.76        69.47909
642.18        69.54993
642.61        69.63869
643.04        69.58268
643.47        69.33573
643.90         69.8097
644.33        69.50542
644.76        69.51373
645.18        69.45217
645.61        69.68851
646.04        70.11486
646.47        70.16642
646.90        69.87088
647.33        69.77132
647.75        69.89635
648.18        69.83418
648.61        69.64841
649.04        69.74233
649.47        70.02177
649.89        70.12499
650.32        70.00857
650.75        69.70534
651.18        69.36427
651.61        69.53141
652.03        70.13098
652.46        70.15062
652.89        69.59723
653.32        69.58188
653.74        70.23307
654.17        69.75963
654.60        69.89413
655.03        70.49176
655.46        69.25125
655.88        70.17833
656.31        77.77547
656.74        75.84672
657.16        69.52144
657.59        68.08171
658.02        69.49261
658.45        69.71671
658.87        70.09495
659.30         69.0425
659.73        69.31604
660.15        70.43726
660.58        69.79139
661.01        69.66081
661.44         69.2313
661.86        69.35146
662.29        69.89659
662.72        70.01507
663.14        69.74529
663.57        69.74011
664.00         70.0012
664.42        70.05149
664.85        69.88889
665.27        69.71523
665.70        69.59731
666.13        69.57009
666.55        69.66232
666.98        69.84105
667.41         70.0618
667.83         70.2579
668.26        70.37881
668.69        70.43346
669.11        70.44144
669.54         70.4384
669.96        70.42216
670.39        70.39648
670.82        70.36269
671.24        70.18325
671.67        69.96317
672.09        70.07477
672.52        70.47816
672.94        70.59461
673.37        70.40408
673.80        70.18839
674.22        70.02842
674.65        69.90192
675.07        69.85429
675.50        69.87469
675.92        69.95028
676.35        70.01826
676.77        70.05788
677.20        70.13223
677.62        70.25266
678.05        70.10715
678.47        70.19688
678.90        70.12835
679.32        70.05632
679.75        70.00498
680.17        69.98022
680.60        69.96983
681.02        69.97569
681.45        69.99467
681.87        70.03301
682.30        70.08948
682.72        70.15285
683.15        70.14339
683.57        70.07466
684.00        70.01212
684.42        69.97588
684.85        69.96554
685.27        69.96975
685.70        70.00797
686.12        70.04659
686.54        70.02114
686.97        69.91199
687.39          69.834
687.82        69.76584
688.24        69.50806
688.66        69.16618
689.09        69.18775
689.51        69.54872
689.94        69.77113
690.36        69.83103
690.78        69.95824
691.21        70.18683
691.63        70.47787
692.06        70.81042
692.48        71.15716
692.90        71.43011
693.33        71.49434
693.75        71.32725
694.17        70.94692
694.60        70.55098
695.02        70.18509
695.44        70.34302
695.87        70.49577
696.29        70.67435
696.71        70.37254
697.14        69.81625
697.56        70.09892
697.98        71.05412
698.41        71.45989
698.83        71.23973
699.25        71.07973
699.68        71.04914
700.10         71.0181
700.52        71.00834
700.94        71.00633
701.37         71.0091
701.79        71.14176
702.21        71.31934
702.64        71.34354
703.06        71.22443
703.48        71.05245
703.90        70.82488
704.33        70.95023
704.75         70.5633
705.17         70.5034
705.59        70.52064
706.01        70.59283
706.44        70.71935
706.86        70.91785
707.28        71.15608
707.70        71.47791
708.12        71.78419
708.55        71.76411
708.97        71.46128
709.39         71.2667
709.81        71.22534
710.23        71.13618
710.66        71.01872
711.08        71.05595
711.50        71.19292
711.92          71.258
712.34        71.22911
712.76        71.16373
713.19        71.08402
713.61        71.07561
714.03        71.13586
714.45        71.22925
714.87        71.34927
715.29        71.49407
715.71        71.65237
716.13        71.82596
716.56        71.94987
716.98        72.00646
717.40         71.9549
717.82         71.8073
718.24        71.63604
718.66        71.56023
719.08        71.60339
719.50        71.73279
719.92        71.86801
720.34        71.87492
720.76        71.72588
721.19        71.47209
721.61         71.1978
722.03        71.02417
722.45        70.99657
722.87        71.09199
723.29        71.26517
723.71        71.44136
724.13        71.58583
724.55        71.69417
724.97        71.81117
725.39        72.01153
725.81        72.29196
726.23        72.61917
726.65         72.8567
727.07        72.79348
727.49        72.40968
727.91        71.79456
728.33        71.15631
728.75        70.82053
729.17        70.86629
729.59        71.19717
730.01        71.66012
730.43        71.98416
730.85        72.07745
731.27        72.02597
731.69        71.88484
732.10        71.75014
732.52        71.68439
732.94        71.59202
733.36         71.4875
733.78        71.59129
734.20        71.93816
734.62        71.77566
735.04         72.3273
735.46        72.40414
735.88        72.39694
736.30        72.45644
736.72        72.53205
737.13         72.4642
737.55        72.22859
737.97        71.77605
738.39         71.3113
738.81        71.54221
739.23        72.33392
739.65        72.59567
740.06        72.26599
740.48        72.27025
740.90        72.58621
741.32        72.61839
741.74        72.48068
742.16        72.32788
742.57        72.23472
742.99        72.08138
743.41         71.9674
743.83        72.09322
744.25        72.43331
744.67         72.8212
745.08        73.13232
745.50         73.1919
745.92        72.97125
746.34        72.49323
746.75        71.90611
747.17        71.51058
747.59        71.36418
748.01        71.39389
748.42        71.56011
748.84        71.75333
749.26        71.93779
749.68        72.13895
750.09        72.32322
750.51        72.45652
750.93        72.52371
751.35        72.51908
751.76        72.48145
752.18        72.47725
752.60        72.52926
753.01        72.64246
753.43        72.75873
753.85        72.82264
754.27         72.8274
754.68        72.80298
755.10        72.80056
755.52        72.88987
755.93        73.06557
756.35        73.28416
756.77        73.50756
757.18        73.60502
757.60        73.55769
758.02        73.59327
758.43        73.62758
758.85        73.19221
759.26        72.53892
759.68        72.43058
760.10        73.40025
760.51        73.68899
760.93        73.37401
761.34        73.18553
761.76        73.19547
762.18         73.0164
762.59        72.76935
763.01         72.8494
763.42        73.23869
763.84        73.42934
764.26        73.40269
764.67        73.28733
765.09        73.15291
765.50        73.29005
765.92         73.1686
766.33        73.09309
766.75        72.87955
767.16        72.85758
767.58        73.00214
768.00        73.14027
768.41         73.3147
768.83        73.72173
769.24        74.27132
769.66        74.61586
770.07        74.69844
770.49        74.62051
770.90        74.45368
771.32        74.36656
771.73        74.36806
772.15        74.24918
772.56        74.03765
772.97        73.90456
773.39        73.86671
773.80        73.91208
774.22        74.00835
774.63        74.21381
775.05        74.44028
775.46         74.6167
775.88        74.68306
776.29        74.67445
776.70        74.63383
777.12        74.66227
777.53        74.79745
777.95        74.98766
778.36        75.15875
778.77        75.15118
779.19        74.93899
779.60        74.62486
780.02        74.31303
780.43        74.07059
780.84        74.00391
781.26        74.26073
781.67        74.70318
782.09        74.96957
782.50        74.93066
782.91        74.49711
783.33        73.88844
783.74          73.707
784.15        74.05003
784.57        74.58734
784.98        75.20159
785.39         75.7612
785.81        76.17699
786.22        76.24516
786.63        76.42901
787.04        76.41325
787.46         76.3864
787.87        76.27348
788.28        76.16341
788.70        76.16877
789.11         76.2789
789.52        76.49905
789.93        76.72544
790.35        76.77284
790.76        76.62862
791.17        76.32888
791.58          75.993
792.00        75.81997
792.41         75.8754
792.82        76.02099
793.23        76.16074
793.65        76.36652
794.06        76.50533
794.47        76.09263
794.88        75.39453
795.29        75.19828
795.71        75.49287
796.12        76.01746
796.53        76.53883
796.94         76.7705
797.35        76.58102
797.76        76.07376
798.18        75.51477
798.59         75.2704
799.00        75.44154
799.41        75.90677
799.82        76.49502
800.23        76.91697
800.64        77.06795
801.06        77.01147
801.47        76.85574
801.88        76.67546
802.29        76.52373
802.70         76.3681
803.11        76.23502
803.52        76.17708
803.93         76.2108
804.34        76.33434
804.75        76.51962
805.17        76.74235
805.58        77.02396
805.99        77.15768
806.40        77.14296
806.81          77.395
807.22        77.73006
807.63        77.24158
808.04        76.14565
808.45         75.6343
808.86        75.83786
809.27        76.14453
809.68        76.41836
810.09        76.68464
810.50        76.87052
810.91        76.97447
811.32         77.0109
811.73        77.00431
812.14        76.97587
812.55        76.91447
812.96        76.86803
813.37         76.9241
813.78        77.09683
814.19        77.35969
814.60        77.64993
815.01        77.86738
815.42        77.98253
815.83        78.01657
816.24        77.97884
816.65        77.89352
817.05        77.78345
817.46         77.6237
817.87        77.46122
818.28        77.31568
818.69        77.19166
819.10        77.08759
819.51        77.01814
819.92        77.00317
820.33        77.03854
820.74         77.1109
821.14        77.16722
821.55         77.1572
821.96        77.06076
822.37        76.91505
822.78        76.76319
823.19        76.68269
823.60        76.71194
824.00        76.85036
824.41        77.06771
824.82        77.42917
825.23        77.90393
825.64        78.43774
826.04        78.94299
826.45        79.18928
826.86        79.15153
827.27        78.90401
827.68        78.47155
828.08        77.92871
828.49        77.30827
828.90           76.62
829.31        76.06747
829.72        75.95657
830.12        76.37196
830.53         77.2176
830.94        78.16148
831.35        78.53919
831.75        78.19666
832.16        77.26619
832.57        76.26093
832.97        75.96743
833.38        76.53364
833.79        77.71167
834.20         79.0323
834.60        79.69347
835.01        79.44159
835.42        78.57634
835.82        77.47589
836.23        76.71074
836.64         76.4633
837.04        76.57055
837.45        76.87659
837.86        77.19691
838.26        77.44927
838.67        77.66366
839.08        77.83862
839.48        77.92432
839.89        77.90066
840.29        77.76318
840.70        77.54543
841.11        77.28364
841.51        77.02387
841.92        76.75447
842.33        76.55898
842.73        76.57096
843.14        76.75972
843.54        77.13806
843.95        77.56364
844.35        77.87543
844.76        77.98035
845.17        77.91544
845.57        77.76213
845.98        77.64388
846.38        77.62193
846.79        77.64796
847.19        77.68026
847.60        77.56236
848.00        77.30294
848.41        76.94241
848.81        76.63486
849.22         76.5928
849.62        76.86584
850.03        77.34222
850.43        77.87246
850.84        78.04361
851.24        77.82204
851.65        77.29286
852.05        76.68204
852.46        76.32221
852.86        76.29851
853.27        76.50751
853.67        76.82684
854.07         77.2823
854.48        77.77334
854.88        78.42227
855.29        78.91187
855.69        78.93311
856.10        78.29704
856.50         77.2028
856.90        76.05307
857.31        75.45342
857.71        75.52531
858.12        76.05147
858.52        76.83158
858.92        77.24742
859.33        77.08129
859.73        76.57308
860.13        75.85231
860.54        75.14921
860.94        74.57339
861.34        74.04236
861.75        73.64948
862.15        73.62154
862.55        73.96316
862.96        74.60949
863.36        75.36224
863.76        75.79269
864.17        75.78879
864.57         75.4669
864.97        75.01057
865.38        74.74993
865.78        74.80445
866.18        75.03591
866.58         75.3159
866.99        75.42184
867.39        75.32253
867.79        75.12032
868.19        74.82946
868.60        74.41371
869.00        73.89483
869.40         73.2746
869.80        72.77473
870.21        72.80467
870.61        73.47514
871.01        74.56423
871.41        75.65185
871.81        76.10692
872.22        75.79172
872.62        74.91927
873.02        73.77943
873.42        72.86343
873.82        72.37678
874.22        72.21091
874.63        72.33321
875.03        72.68135
875.43        73.18668
875.83        73.84499
876.23        74.57593
876.63        75.23569
877.03        75.75969
877.44        76.13291
877.84        76.30769
878.24        76.18494
878.64        75.78368
879.04        75.15089
879.44        74.50507
879.84        74.17233
880.24        74.21065
880.64        74.54076
881.04        74.96165
881.44        75.11993
881.84        74.93719
882.24        74.53997
882.65         74.0531
883.05        73.82891
883.45        73.92085
883.85        74.18517
884.25        74.59309
884.65        75.12384
885.05        75.73402
885.45        76.44928
885.85        77.04687
886.25        77.13938
886.65        76.65973
887.05        75.71149
887.45        74.69347
887.85        74.23817
888.25        74.49289
888.65        75.30246
889.04        76.26206
889.44        76.67461
889.84        76.38048
890.24        75.57528
890.64        74.68116
891.04        74.30914
891.44        74.58582
891.84         75.3476
892.24        76.15286
892.64         76.2668
893.04        75.54371
893.44        74.24251
893.83        72.95956
894.23        72.59151
894.63        73.28249
895.03        74.75896
895.43        76.41541
895.83        77.14995
896.23        76.67088
896.63        75.39748
897.02        73.88166
897.42        73.01567
897.82        72.94272
898.22        73.43137
898.62        74.23772
899.01        74.98454
899.41        75.45415
899.81        75.78107
900.21        76.09418
900.61        76.59134
901.00        77.29011
901.40        78.04151
901.80        78.61282
902.20        78.68379
902.59        78.22153
902.99        77.36968
903.39        76.40915
903.79        75.78268
904.18          75.603
904.58        75.75738
904.98        76.08647
905.38        76.34905
905.77         76.4547
906.17        76.50839
906.57        76.46815
906.96        76.27439
907.36        75.93424
907.76        75.47563
908.15        75.09274
908.55        75.06605
908.95        75.46204
909.34        76.19157
909.74        77.01636
910.14        77.61731
910.53        77.86835
910.93        77.84985
911.33        77.62415
911.72        77.29797
912.12         76.9513
912.52        76.55188
912.91        76.13808
913.31        75.77236
913.70        75.50003
914.10        75.35032
914.49        75.33166
914.89        75.41376
915.29        75.58016
915.68        75.80897
916.08        76.09177
916.47         76.4394
916.87        76.81526
917.26        77.19128
917.66         77.4649
918.05        77.48722
918.45         77.2392
918.84        76.81284
919.24        76.33916
919.64        76.14076
920.03        76.31915
920.42        76.75024
920.82        77.29505
921.21        77.76333
921.61        78.04584
922.00        78.19506
922.40        78.16555
922.79        77.97122
923.19        77.62814
923.58        77.16767
923.98        76.62888
924.37        75.99022
924.77        75.31636
925.16        74.62773
925.55         74.0985
925.95        73.97698
926.34        74.33576
926.74         75.0447
927.13         75.9672
927.52        76.77736
927.92        77.34631
928.31        77.75488
928.70        77.99001
929.10        78.08093
929.49        78.08065
929.89        77.95144
930.28         77.7968
930.67         77.7526
931.07        77.83785
931.46        78.02074
931.85        78.23433
932.24        78.35922
932.64        78.35744
933.03        78.31583
933.42        78.17123
933.82        77.84277
934.21        77.35127
934.60        76.71629
934.99        76.20172
935.39        76.17682
935.78        76.72536
936.17        77.75611
936.56        78.86333
936.96        79.30141
937.35        78.91115
937.74        77.87541
938.13         76.6768
938.53        75.94891
938.92        75.79327
939.31         76.0889
939.70        76.57178
940.09        76.76594
940.49        76.54987
940.88        76.09792
941.27        75.68974
941.66        75.75342
942.05        76.36226
942.44        77.34175
942.84         78.3644
943.23          78.951
943.62        78.87645
944.01        78.33801
944.40        77.54042
944.79        76.80994
945.18        76.28897
945.57         75.8787
945.97        75.66398
946.36         75.8702
946.75        76.46176
947.14        77.40813
947.53        78.39204
947.92        78.81966
948.31        78.54414
948.70        77.74232
949.09        76.79974
949.48        76.31882
949.87        76.46976
950.26        77.10462
950.65        78.00723
951.04          78.785
951.43        79.26348
951.82        79.49811
952.21        79.61829
952.60        79.84222
952.99        80.17841
953.38        80.50483
953.77        80.56938
954.16        79.96355
954.55        78.68846
954.94        77.05329
955.33        75.39559
955.72        74.18738
956.11           73.58
956.50        73.38921
956.89        73.70485
957.28        74.66755
957.66        76.23069
958.05        78.21918
958.44        79.99138
958.83        80.32708
959.22        79.00437
959.61        76.50478
960.00        73.74358
960.39        72.03271
960.78        71.67894
961.16        72.32739
961.55        73.59375
961.94        74.92533
962.33        76.01934
962.72        77.02045
963.11        77.68798
963.49        77.59922
963.88        76.68298
964.27        75.14022
964.66         73.3984
965.04        72.06011
965.43        71.26102
965.82        70.85499
966.21        70.84328
966.60        71.17153
966.98        71.77758
967.37        72.67948
967.76        73.58976
968.15        73.99998
968.53        73.80607
968.92        73.06881
969.31        72.21158
969.69        71.95979
970.08        72.42687
970.47        73.42213
970.86        74.49092
971.24        74.80766
971.63        74.09153
972.02         72.7088
972.40         71.1039
972.79        69.96075
973.17         69.5032
973.56        69.52924
973.95        69.89507
974.33        70.40607
974.72        70.90759
975.11        71.41576
975.49        72.00473
975.88        72.71975
976.26        73.57825
976.65        74.44771
977.04        74.93788
977.42        74.44118
977.81        72.93247
978.19        70.64473
978.58        68.63089
978.96        68.21152
979.35        69.62337
979.74        72.60571
980.12        76.34005
980.51          78.516
980.89        78.55695
981.28        76.91897
981.66        74.70221
982.05        73.82301
982.43        74.74525
982.82        76.80064
983.20        79.44339
983.59        81.56065
983.97         82.8074
984.35        83.48666
984.74        83.41428
985.12        82.41128
985.51        80.56987
985.89        77.93526
986.28         75.3037
986.66        73.81522
987.04        73.85287
987.43        75.13868
987.81        76.97211
988.20         77.8827
988.58        77.47831
988.96         75.9939
989.35        74.21158
989.73        73.37896
990.12        73.75392
990.50        75.03538
990.88        76.26772
991.27        75.94006
991.65        73.88235
992.03        70.69215
992.42        67.64227
992.80        66.40501
993.18        67.46033
993.56        70.21249
993.95        73.63503
994.33        76.22468
994.71        77.17793
995.10        76.92565
995.48        75.79737
995.86        74.37627
996.24        73.02541
996.63        71.60172
997.01        70.31704
997.39        69.49528
997.77        69.18204
998.15        69.38894
998.54        69.96529
998.92        70.56038
999.30        71.01379
999.68         71.3586
1000.06         71.5687
1000.45        71.60577
1000.83        71.58974
1001.21        71.41269
1001.59        71.09716
1001.97        70.73368
1002.35        70.36369
1002.73        69.98914
1003.12        69.67918
1003.50        69.46411
1003.88        69.37728
1004.26        69.44349
1004.64        69.52424
1005.02        69.38509
1005.40        69.01136
1005.78        68.47798
1006.16        68.02418
1006.54        68.08063
1006.92        68.71328
1007.30         69.7016
1007.69        70.71587
1008.07        71.46763
1008.45         71.7365
1008.83        71.67605
1009.21        71.24246
1009.59        70.36295
1009.97        69.14513
1010.35        67.65951
1010.73        66.40652
1011.11        66.24728
1011.49        67.46047
1011.86        70.07124
1012.24        73.31434
1012.62        76.11494
1013.00        77.94305
1013.38        78.81331
1013.76        79.15106
1014.14        79.91616
1014.52         81.3527
1014.90         83.1501
1015.28        84.34772
1015.66        83.41375
1016.04         80.4009
1016.41        76.32015
1016.79        72.60402
1017.17        70.32735
1017.55        69.40734
1017.93        69.46769
1018.31        69.95042
1018.69        69.42937
1019.06        67.58105
1019.44        65.41985
1019.82        63.65011
1020.20        62.55652
1020.58        62.05921
1020.95        61.94606
1021.33        62.40492
1021.71        63.50094
1022.09        65.08406
1022.46        66.82397
1022.84        68.59518
1023.22         70.6704
1023.60        72.96255
1023.97        75.40127
1024.35        76.70373
1024.73        74.83556
