SpectraSmart Spectrum 2.9.0.0
--------- Device Information -----------
Spectrum Name :  反射率_0
Saving Time :  2024/05/01 16:28:24
Spectro-Module Model Name : SE2030-DUVN
Spectro-Module Serial Number : OS361AC55029948
Wavelength Start : 200
Wavelength End : 1025
Wavelength Unit : Wavelength(nm)
Spectrum Unit : Reflectance(%)
-----------Spectrum Setting ------------
Integration Time : 20ms
Average : 10
Boxcar : 0
Background removal :  enabled
linearity correction :  enabled
SC :  disabled
Intensity correction :  disabled
DWT denoise :  enabled
savitzky-golay :  disabled
FFT :  disabled
Running average :  disabled
Kalman :  disabled
High pass :  disabled
---------------BEGIN--------------------
Wavelength(nm)             Reflectance(%)
200.29               0
200.75        -21.9048
201.21         182.241
201.67       -136.9789
202.13       -48.98211
202.58       -6.537251
203.04        24.20875
203.50        45.21991
203.96        55.55584
204.42        57.63903
204.88        49.08501
205.34       -211.9129
205.80        91.28835
206.26        57.67131
206.72        10.01361
207.18       -203.6644
207.64        377.6832
208.10         160.934
208.55        102.4567
209.01        73.36855
209.47        63.24862
209.93        65.04313
210.39        71.91865
210.85        82.52017
211.31        98.57985
211.77        142.5338
212.23       -199.0475
212.69         15.9027
213.14        49.14941
213.60        109.0968
214.06       -474.1555
214.52       -65.77959
214.98       -37.02745
215.44       -27.90612
215.90       -22.92613
216.36        15.89583
216.81       -65.62048
217.27       -134.4468
217.73         352.558
218.19        74.79515
218.65        36.96677
219.11        3.437875
219.57       -82.49887
220.02       -443.7646
220.48       -246.5972
220.94       -56.27435
221.40       -4.228528
221.86        15.69851
222.32         25.2653
222.77        31.91612
223.23         39.0481
223.69        46.02867
224.15        46.71871
224.61         40.5087
225.06        32.30633
225.52        26.79871
225.98        25.31562
226.44        27.01073
226.90        31.48479
227.36        37.34423
227.81        38.90656
228.27        34.64812
228.73        28.58048
229.19        23.62292
229.65        20.89713
230.10        19.87915
230.56        20.12999
231.02        21.39454
231.48         22.9551
231.93        24.21121
232.39        25.32962
232.85         26.6125
233.31        28.51977
233.77        30.93681
234.22        33.50906
234.68        35.90468
235.14         38.0402
235.60        40.11383
236.05        42.61635
236.51        45.80135
236.97        49.23926
237.43        51.94646
237.88        53.19928
238.34        53.29823
238.80        54.26349
239.26        57.02617
239.71          62.383
240.17        69.86013
240.63        74.05566
241.08         69.9906
241.54        60.51919
242.00        52.35798
242.46         50.5687
242.91        56.51013
243.37        71.30701
243.83          99.144
244.28         125.671
244.74        127.3403
245.20        115.9012
245.66        104.4917
246.11        97.42184
246.57        93.23229
247.03        88.50316
247.48         80.1439
247.94        64.89203
248.40        45.82561
248.85         29.4134
249.31        22.95425
249.77        27.28991
250.22        36.90825
250.68        47.35925
251.14        56.05622
251.59        62.43113
252.05        68.26468
252.51        77.06715
252.96        95.27553
253.42        126.8178
253.88        136.0884
254.33        114.0965
254.79        98.54669
255.25        93.39587
255.70        92.49001
256.16        93.60207
256.62        93.86409
257.07        91.40807
257.53        88.07561
257.99        84.64561
258.44        81.97279
258.90        81.41926
259.35        82.13039
259.81         83.7261
260.27        85.05509
260.72        84.74377
261.18        83.16238
261.63        80.65172
262.09        78.24509
262.55         76.4439
263.00        75.11691
263.46        74.16391
263.91        73.11683
264.37        71.88196
264.83        70.35627
265.28        68.68346
265.74        67.04531
266.19        65.30904
266.65        63.63538
267.11         61.9311
267.56        60.40701
268.02        59.52056
268.47        59.25093
268.93        59.42485
269.38        59.61525
269.84        59.08098
270.30        57.69418
270.75        55.69214
271.21        53.51257
271.66        51.67849
272.12        50.40561
272.57        49.45402
273.03        48.74478
273.48        48.08023
273.94        47.41701
274.39        46.78179
274.85        46.14061
275.31        45.33365
275.76         44.3377
276.22        43.25441
276.67         42.1441
277.13        41.24468
277.58        40.51213
278.04        39.93282
278.49        39.37474
278.95        38.78349
279.40        38.08553
279.86        37.36987
280.31        36.62989
280.77        35.97075
281.22        35.35085
281.68        34.81975
282.13         34.2796
282.59        33.70232
283.04        33.05891
283.50        32.43185
283.95        31.90207
284.41        31.65879
284.86        31.70244
285.32        31.97161
285.77        32.33679
286.22        32.67558
286.68        32.94257
287.13        33.13392
287.59        33.25196
288.04        33.25693
288.50        33.18306
288.95        33.00098
289.41        32.79662
289.86        32.60001
290.32        32.47666
290.77        32.43355
291.22        32.48214
291.68        32.61237
292.13        32.83354
292.59        33.19892
293.04        33.74393
293.50        34.57132
293.95        35.66732
294.40        36.99336
294.86        38.46553
295.31        39.96361
295.77        41.42298
296.22        42.82556
296.68         44.1849
297.13        45.51183
297.58        46.84801
298.04        48.23569
298.49        49.64144
298.95        51.05353
299.40        52.45298
299.85        53.84509
300.31        55.38338
300.76        57.27391
301.21        59.55094
301.67        62.15302
302.12        64.75531
302.58        66.87248
303.03        68.35381
303.48        69.37822
303.94        70.35674
304.39        71.78129
304.84        73.82646
305.30        76.32994
305.75        78.98066
306.20         81.3256
306.66        83.24171
307.11        84.80782
307.57        86.25734
308.02        87.81399
308.47        89.57298
308.93        91.43935
309.38        93.21915
309.83        94.72248
310.29        95.93155
310.74        96.92919
311.19        97.85419
311.65        98.88635
312.10        100.0521
312.55        101.2804
313.00         102.571
313.46        103.9321
313.91        105.3124
314.36        106.6984
314.82        107.9004
315.27        108.6281
315.72        108.8215
316.18        108.6129
316.63        108.2153
317.08         108.039
317.53        108.2002
317.99        108.6066
318.44        109.1435
318.89        109.5763
319.35        109.8368
319.80        110.0295
320.25        110.2179
320.70        110.5004
321.16        110.8915
321.61        111.3489
322.06        111.8577
322.51        112.4307
322.97        113.0145
323.42        113.6298
323.87        114.1569
324.32        114.4293
324.78        114.4062
325.23        114.1825
325.68        113.8558
326.13        113.6117
326.59        113.5065
327.04         113.571
327.49        113.7847
327.94        114.1296
328.39         114.577
328.85        115.0696
329.30        115.6689
329.75        116.2953
330.20        116.9114
330.66        117.4859
331.11        117.9667
331.56        118.1451
332.01        118.0137
332.46        117.6238
332.92        117.2232
333.37        117.3506
333.82        118.0954
334.27         119.363
334.72        120.8088
335.17        121.8016
335.63        122.1217
336.08        121.9863
336.53        121.7058
336.98        121.8654
337.43        122.6225
337.88        123.7953
338.34         125.046
338.79        125.9149
339.24        126.2146
339.69        126.1038
340.14        125.8659
340.59        125.9364
341.05        126.4257
341.50        127.2242
341.95        128.0811
342.40        128.6026
342.85        128.7045
343.30        128.5342
343.75        128.3719
344.20        128.6395
344.66        129.4133
345.11         130.529
345.56        131.7203
346.01        132.5436
346.46        132.8696
346.91         132.857
347.36        132.6717
347.81        132.5634
348.26        132.6282
348.72        132.7985
349.17        133.0452
349.62        133.4038
350.07        133.8236
350.52         134.253
350.97        134.6024
351.42        134.7068
351.87        134.5377
352.32        134.2021
352.77        133.6472
353.22        132.8066
353.67         131.739
354.13        130.4995
354.58         129.419
355.03        129.1244
355.48        129.6842
355.93        130.9413
356.38         132.243
356.83        132.4865
357.28        131.4438
357.73        129.4661
358.18        127.3395
358.63        126.2377
359.08        126.3818
359.53        127.3802
359.98         128.573
360.43        128.8614
360.88        127.9474
361.33        126.2271
361.78        124.2164
362.23        122.6374
362.68        121.6828
363.13        121.1157
363.58         120.688
364.03        120.0401
364.48        119.0615
364.93        117.8788
365.38        116.6778
365.83        115.6967
366.28        114.9845
366.73        114.4764
367.18        113.9318
367.63         112.993
368.08         111.634
368.53        110.0019
368.98        108.4851
369.43        107.6414
369.88        107.5423
370.33        107.9904
370.78        108.5596
371.23        108.5074
371.68         107.633
372.13        106.1972
372.58        104.5598
373.03        103.2551
373.48         102.426
373.93         101.881
374.38        101.5235
374.83         101.209
375.28        100.8572
375.72        100.5215
376.17        100.1257
376.62        99.46642
377.07        98.53534
377.52         97.3824
377.97         96.2166
378.42        95.38756
378.87        94.96474
379.32        94.83733
379.77        94.81034
380.22        94.57256
380.67        94.04514
381.11        93.33848
381.56        92.55773
382.01        91.89878
382.46        91.43495
382.91         91.1002
383.36        90.85971
383.81        90.66522
384.26        90.48158
384.71        90.31979
385.15        90.13583
385.60        89.90701
386.05        89.60987
386.50        89.25153
386.95        88.84645
387.40         88.4358
387.85        88.03407
388.29        87.57567
388.74        87.18302
389.19        86.82647
389.64        86.50613
390.09        86.21803
390.54         85.9086
390.98         85.5276
391.43         85.1371
391.88        84.58906
392.33        83.99535
392.78        83.85528
393.23        83.98978
393.67        83.58025
394.12        82.84761
394.57         82.4229
395.02        82.21467
395.47        82.25474
395.91         82.0006
396.36        80.95452
396.81        81.70686
397.26        81.82952
397.71        81.94546
398.15        81.78574
398.60        81.43607
399.05        80.74316
399.50        79.95892
399.95        79.83959
400.39        80.29363
400.84        80.32513
401.29        79.86959
401.74        79.63972
402.18        79.60505
402.63        79.15496
403.08        78.43501
403.53        78.00964
403.97        77.91666
404.42        77.95658
404.87        78.02031
405.32        77.95872
405.76        77.71136
406.21        77.45921
406.66        77.24462
407.11        76.86702
407.55        76.49228
408.00        76.68208
408.45        77.27828
408.90        77.38548
409.34        76.91132
409.79         76.3712
410.24        75.91983
410.68        75.58459
411.13         75.4286
411.58        75.42935
412.03        75.52171
412.47        75.60271
412.92        75.60013
413.37         75.5561
413.81        75.47032
414.26        75.40195
414.71        75.34049
415.15        75.28269
415.60        75.18789
416.05        75.06013
416.49        74.90894
416.94        74.73638
417.39        74.58246
417.83        74.49121
418.28        74.47523
418.73        74.52545
419.17        74.59634
419.62        74.61987
420.07        74.57008
420.51        74.44553
420.96        74.33622
421.41        74.26028
421.85        74.20068
422.30        74.32307
422.74        74.51381
423.19        74.38326
423.64        74.03331
424.08         74.2123
424.53        74.82313
424.98        75.02621
425.42        74.72665
425.87        74.66072
426.31        74.80781
426.76        74.14809
427.21        73.08019
427.65        73.46915
428.10        74.93191
428.54        75.40903
428.99        74.83849
429.44        73.88656
429.88        72.99304
430.33        73.49028
430.77        74.85488
431.22        74.83736
431.66        73.59589
432.11        73.04029
432.56        73.26834
433.00        73.88431
433.45        74.73788
433.89        74.15648
434.34        73.12609
434.78        75.06563
435.23         74.0932
435.67        74.37283
436.12        74.19373
436.57        74.60802
437.01        75.41892
437.46        75.89452
437.90        75.49158
438.35        75.21833
438.79        75.00301
439.24        74.58556
439.68        74.11018
440.13        74.17322
440.57        74.71939
441.02        75.02607
441.46        74.97674
441.91        75.20038
442.35        75.59986
442.80        75.20341
443.24        75.39201
443.69         75.2731
444.13        75.26614
444.58         75.2848
445.02        75.32088
445.47        75.42897
445.91        75.59978
446.36        75.82252
446.80        76.06541
447.24        76.37714
447.69        76.67127
448.13        76.69991
448.58         76.5069
449.02        76.31693
449.47        76.23004
449.91        76.18272
450.36        76.21711
450.80        76.37833
451.25        76.59024
451.69        76.63007
452.13         76.4669
452.58        76.18327
453.02        75.85298
453.47        75.56873
453.91        75.34454
454.36        75.29073
454.80        75.40936
455.24        75.02681
455.69        75.01734
456.13        74.89565
456.58        75.06569
457.02        74.42414
457.46        74.83673
457.91        74.96595
458.35        75.18522
458.79        75.00708
459.24        74.43142
459.68        73.82294
460.13        73.47491
460.57        72.40957
461.01        72.75865
461.46        72.86698
461.90        73.17383
462.34        73.21265
462.79        72.82739
463.23        72.90331
463.68        73.25859
464.12        73.28104
464.56        72.97269
465.01        72.54378
465.45        72.22681
465.89        72.34415
466.34        72.77478
466.78        72.60726
467.22        71.87734
467.67        71.68175
468.11         71.7831
468.55        71.88041
468.99        71.83736
469.44        71.83605
469.88        71.87386
470.32        71.89587
470.77        71.90958
471.21        71.94459
471.65        71.97817
472.10        72.00858
472.54        72.00513
472.98        71.90879
473.42        71.70728
473.87        71.57798
474.31        71.47154
474.75        71.04787
475.20        70.46286
475.64        70.49875
476.08        71.06658
476.52         71.1304
476.97        70.56246
477.41        70.99635
477.85        70.28167
478.29        70.46626
478.74           70.61
479.18        70.74183
479.62        69.98595
480.06        69.84143
480.50        70.09561
480.95         69.4771
481.39         70.4312
481.83        69.24538
482.27        69.94453
482.72        70.00658
483.16        70.00269
483.60        70.14339
484.04        70.25895
484.48        70.13026
484.93        70.04682
485.37        70.37824
485.81        70.32246
486.25        71.00198
486.69        70.53462
487.14        68.42719
487.58        67.99313
488.02        70.22819
488.46        69.22827
488.90        68.89423
489.34         69.7197
489.79        69.88645
490.23         69.3452
490.67        69.12141
491.11         69.1275
491.55         69.2608
491.99        69.42441
492.43         69.4527
492.88        69.32561
493.32        69.19556
493.76        69.10841
494.20        69.08007
494.64         69.1138
495.08        69.18064
495.52        69.30428
495.96        69.38584
496.41        69.37444
496.85         69.5947
497.29        69.96643
497.73        69.14125
498.17        68.90947
498.61         68.4928
499.05        68.51804
499.49        68.66663
499.93        68.84926
500.37        69.12005
500.82        69.44202
501.26        69.14402
501.70        69.42895
502.14        69.39536
502.58        69.38387
503.02        69.28084
503.46        69.10709
503.90        68.92271
504.34        68.78835
504.78        68.77223
505.22        68.85542
505.66        69.11489
506.10        69.47478
506.54        69.45374
506.98        68.94234
507.42        69.30321
507.86        68.59558
508.30        68.26365
508.74        68.43418
509.18         68.5453
509.62        68.73146
510.06        68.90081
510.50        69.03709
510.94        69.13159
511.38         69.1771
511.82        69.18321
512.26        69.15479
512.70        69.05664
513.14        68.88642
513.58        68.75594
514.02        68.70264
514.46        68.39475
514.90        68.25231
515.34         68.3196
515.78        68.02711
516.22        67.94329
516.66        67.89981
517.10         67.9677
517.54        68.13718
517.98        68.38879
518.42        68.65809
518.86        68.82205
519.30        68.85034
519.74        68.77576
520.18        68.64332
520.62        68.53046
521.06        68.46351
521.50        68.41728
521.93        68.39534
522.37        68.39209
522.81        68.40649
523.25        68.44956
523.69        68.48655
524.13        68.45643
524.57        68.35501
525.01        68.20084
525.45        68.05508
525.89        68.01691
526.32        68.10194
526.76        68.27309
527.20        68.46435
527.64        68.57214
528.08        68.56742
528.52         68.4879
528.96        68.36569
529.40        68.25064
529.83        68.15807
530.27        68.09079
530.71        68.05653
531.15        68.08492
531.59        68.17552
532.03        68.31617
532.46        68.46242
532.90        68.56234
533.34        68.59917
533.78         68.5338
534.22        68.39744
534.66        68.36008
535.09         68.3731
535.53        68.18052
535.97        67.83689
536.41        67.67299
536.85        67.71276
537.28        67.78575
537.72        67.85596
538.16        67.92603
538.60        67.97334
539.04        67.99483
539.47        67.98143
539.91        67.96143
540.35        67.92564
540.79        67.88049
541.22        67.83173
541.66        67.73184
542.10        67.76617
542.54        67.64826
542.97        67.68647
543.41        67.64697
543.85        67.60731
544.29        67.60088
544.72        67.62436
545.16        67.66555
545.60        67.70447
546.04        67.76823
546.47        67.83295
546.91        67.82109
547.35        67.75494
547.79        67.72285
548.22        67.67718
548.66        67.61616
549.10        67.54263
549.53        67.16792
549.97        67.16149
550.41        67.12056
550.84        67.23597
551.28        67.48086
551.72        67.76429
552.15        67.86832
552.59        67.79724
553.03        67.70443
553.46        67.60193
553.90        67.57467
554.34        67.64583
554.77        67.59956
555.21        67.41015
555.65          67.951
556.08        67.81392
556.52        67.75238
556.96        67.18765
557.39        66.96493
557.83        67.04745
558.27        67.10204
558.70        67.07977
559.14        67.22624
559.57        66.99139
560.01        67.24548
560.45        67.65036
560.88        67.62296
561.32        67.26443
561.75        66.88633
562.19        66.67444
562.63         66.9354
563.06        67.48335
563.50        67.38097
563.93        66.72228
564.37        66.54261
564.80         66.8399
565.24        67.05298
565.68        67.09898
566.11        67.12743
566.55        67.14959
566.98        67.06263
567.42        66.96161
567.85        67.00735
568.29        67.19089
568.72        67.29046
569.16        67.37296
569.60        67.37428
570.03        67.21697
570.47        67.45863
570.90        67.71391
571.34        66.86504
571.77        67.31152
572.21        67.16215
572.64        67.26086
573.08        66.93487
573.51        67.34989
573.95        67.68406
574.38        66.93726
574.82        66.67476
575.25        67.41781
575.69        67.76781
576.12        67.85059
576.56        66.81374
576.99        67.47907
577.42        67.58563
577.86        67.56518
578.29        67.54861
578.73        68.36594
579.16        67.37629
579.60        66.66737
580.03        66.71586
580.47        67.34531
580.90        66.72124
581.33        67.75218
581.77        67.63412
582.20        67.60381
582.64        67.36185
583.07           67.36
583.51        67.08014
583.94        66.89508
584.37         67.2507
584.81        68.00005
585.24        68.03191
585.68        67.47617
586.11        66.92242
586.54        67.56414
586.98        66.71857
587.41        66.44367
587.85        67.39916
588.28        67.46543
588.71        66.07156
589.15        67.31522
589.58        66.63552
590.01        66.65054
590.45        66.69713
590.88        67.08514
591.31        67.18007
591.75         66.9026
592.18        66.56136
592.61        66.24165
593.05        66.67836
593.48        66.38251
593.91        67.03031
594.35        66.45373
594.78         66.3754
595.21        66.16695
595.65        66.91864
596.08        66.80914
596.51        66.47346
596.94        66.35381
597.38        66.28369
597.81        66.68463
598.24        65.96815
598.68        66.50171
599.11        66.35522
599.54        67.24465
599.97        66.93086
600.41        66.33285
600.84        66.82384
601.27        66.58318
601.70        67.18033
602.14        67.41729
602.57        67.10298
603.00        66.70399
603.43        66.27796
603.87        66.49373
604.30        66.71437
604.73        66.35883
605.16        66.16576
605.60        66.33892
606.03        66.49105
606.46        66.50861
606.89        66.68727
607.32        66.02797
607.76        65.89461
608.19        65.98587
608.62        66.59386
609.05        66.74795
609.48        66.53625
609.92        65.98954
610.35        65.72264
610.78        66.86144
611.21        67.11868
611.64        66.81924
612.07        66.82468
612.50        67.14045
612.94        67.04936
613.37        66.57786
613.80        66.54908
614.23        66.11517
614.66        66.41023
615.09        66.13575
615.52        66.16715
615.96        66.15177
616.39        66.52799
616.82        66.57321
617.25        66.65931
617.68        66.69729
618.11        66.52782
618.54        66.26491
618.97        66.14376
619.40        66.21372
619.84        66.18739
620.27        66.03737
620.70         66.2633
621.13        66.85241
621.56        66.24336
621.99        65.86031
622.42        66.49973
622.85        66.01945
623.28        66.36668
623.71        65.91966
624.14        66.52518
624.57        66.41275
625.00        66.59703
625.43        66.66193
625.86        66.50131
626.29        66.43332
626.72        66.36425
627.15        66.13677
627.58        65.80887
628.01        65.41231
628.44        65.60864
628.87        66.29092
629.30        66.09806
629.73        65.93713
630.16        65.88869
630.59        66.09602
631.02        66.21359
631.45        66.18595
631.88        66.12065
632.31        65.99708
632.74        66.06734
633.17        65.86593
633.60        65.83759
634.03        65.84675
634.46        65.90383
634.89        65.97952
635.32        66.02577
635.75        66.03204
636.18        66.00517
636.61        65.96272
637.04        65.93619
637.47        65.93896
637.89        65.94821
638.32        65.92201
638.75        65.89943
639.18        65.89158
639.61        65.62804
640.04         65.6306
640.47        65.54427
640.90        65.52795
641.33        65.54695
641.76        65.57007
642.18         65.6359
642.61        65.73199
643.04        65.70606
643.47        65.50725
643.90        65.98307
644.33        65.71284
644.76        65.73856
645.18        65.67632
645.61         65.8381
646.04        66.11788
646.47        65.99062
646.90        65.55488
647.33        65.41003
647.75          65.592
648.18        65.75848
648.61        65.85985
649.04        65.91289
649.47        65.88331
649.89        65.91787
650.32        65.96771
650.75        65.64995
651.18        65.13149
651.61        65.20295
652.03        65.79555
652.46        65.91732
652.89        65.55145
653.32        65.44441
653.74         65.7317
654.17        65.44982
654.60        66.15341
655.03        66.08068
655.46         64.9286
655.88        65.54855
656.31        72.09821
656.74        69.95756
657.16        64.41962
657.59        63.58762
658.02        65.62549
658.45        65.90343
658.87        66.17708
659.30        64.69569
659.73        65.16888
660.15        66.24425
660.58        65.45353
661.01        65.38981
661.44        65.15143
661.86        65.16855
662.29        65.38864
662.72        65.50996
663.14         65.5533
663.57        65.68319
664.00         65.8823
664.42        65.96856
664.85        65.93359
665.27        65.82559
665.70        65.68737
666.13         65.5805
666.55        65.53683
666.98         65.5295
667.41        65.55693
667.83        65.61865
668.26        65.68909
668.69        65.76894
669.11        65.85189
669.54        65.93042
669.96        65.98438
670.39        66.00469
670.82        66.00092
671.24        65.89793
671.67        65.77062
672.09        65.88349
672.52        66.16373
672.94        66.19813
673.37         65.9653
673.80        65.68066
674.22         65.4359
674.65        65.26292
675.07        65.21325
675.50        65.25964
675.92        65.36918
676.35        65.47671
676.77        65.55976
677.20        65.62868
677.62        65.67749
678.05        65.68488
678.47        65.65112
678.90        65.58237
679.32        65.50295
679.75        65.48012
680.17          65.519
680.60        65.60207
681.02          65.701
681.45         65.7523
681.87          65.753
682.30        65.71505
682.72        65.66107
683.15        65.59488
683.57        65.53185
684.00        65.45966
684.42          65.404
684.85        65.40421
685.27        65.44257
685.70        65.55926
686.12        65.67479
686.54        65.56249
686.97        65.24692
687.39        65.08157
687.82        65.07198
688.24        64.87246
688.66         64.5768
689.09        64.70742
689.51        65.20639
689.94        65.47999
690.36        65.47913
690.78        65.52767
691.21        65.66341
691.63        65.71277
692.06        65.74461
692.48        66.05608
692.90        66.52648
693.33        66.69383
693.75        66.52082
694.17        66.17978
694.60         65.8176
695.02        65.65977
695.44        65.70065
695.87        65.71502
696.29         65.6747
696.71         65.5619
697.14        65.45825
697.56        65.66391
697.98        66.08743
698.41         66.2739
698.83        66.18425
699.25        66.06586
699.68        65.96467
700.10         65.9159
700.52        65.93988
700.94        65.98326
701.37        66.03507
701.79        66.19872
702.21        66.39069
702.64        66.43377
703.06        66.34679
703.48        66.22841
703.90        66.07542
704.33         66.2568
704.75         65.9538
705.17        65.93339
705.59        65.95901
706.01        66.01933
706.44        66.10155
706.86        66.22343
707.28        66.36407
707.70        66.50989
708.12        66.62157
708.55         66.6263
708.97        66.51278
709.39        66.31635
709.81        66.09274
710.23         65.9453
710.66        65.90897
711.08         65.9684
711.50        66.08643
711.92        66.21671
712.34         66.3363
712.76        66.45415
713.19        66.53943
713.61        66.58884
714.03        66.57889
714.45         66.5116
714.87        66.41953
715.29        66.35558
715.71        66.33412
716.13        66.34901
716.56        66.35789
716.98        66.37128
717.40        66.35503
717.82        66.31657
718.24        66.28772
718.66        66.31876
719.08        66.41232
719.50        66.54439
719.92        66.65953
720.34        66.67171
720.76        66.56399
721.19        66.36894
721.61         66.1453
722.03        65.97683
722.45        65.90018
722.87         65.9073
723.29        65.97722
723.71        66.07294
724.13        66.17313
724.55        66.26619
724.97        66.38039
725.39         66.5619
725.81        66.80193
726.23        67.07946
726.65        67.27738
727.07        67.21368
727.49         66.8745
727.91        66.33633
728.33         65.7877
728.75        65.52605
729.17        65.61883
729.59        65.97107
730.01         66.4372
730.43        66.76102
730.85        66.85277
731.27        66.79388
731.69        66.62764
732.10        66.42197
732.52        66.22242
732.94        66.00105
733.36        65.81704
733.78        65.78036
734.20        65.90325
734.62        66.16451
735.04        66.48478
735.46        66.68546
735.88        66.75352
736.30        66.83312
736.72        66.89728
737.13        66.87539
737.55        66.76165
737.97        66.49448
738.39        66.22183
738.81        66.45987
739.23         67.1069
739.65        67.37749
740.06        67.19664
740.48        67.20147
740.90        67.36272
741.32        67.31995
741.74        67.07982
742.16        66.87939
742.57        66.75758
742.99        66.64246
743.41        66.59427
743.83        66.67728
744.25        66.89331
744.67        67.26347
745.08         67.6595
745.50        67.75115
745.92        67.50257
746.34        67.02359
746.75        66.48196
747.17         66.1626
747.59        66.12133
748.01        66.28635
748.42        66.56616
748.84         66.7672
749.26        66.83899
749.68        66.83765
750.09        66.80112
750.51        66.80364
750.93        66.85797
751.35        66.92815
751.76        67.00455
752.18        67.07381
752.60          67.133
753.01        67.20842
753.43        67.26862
753.85        67.30144
754.27        67.30791
754.68         67.2916
755.10        67.28744
755.52        67.34429
755.93        67.45866
756.35        67.60947
756.77        67.75317
757.18        67.77392
757.60        67.65575
758.02        67.55874
758.43        67.47542
758.85        67.16178
759.26         66.7626
759.68        66.92344
760.10        67.52937
760.51        67.75371
760.93          67.508
761.34        67.27988
761.76        67.17316
762.18        67.02657
762.59        66.94913
763.01        67.15527
763.42        67.58284
763.84        67.78111
764.26        67.71844
764.67        67.45615
765.09        67.14758
765.50        67.15546
765.92         67.4584
766.33        67.32891
766.75        66.78779
767.16          67.129
767.58        67.15069
768.00        67.36191
768.41        67.45058
768.83        68.01164
769.24        68.84908
769.66        69.09792
770.07        68.78629
770.49        68.55416
770.90        68.50939
771.32        68.47729
771.73        68.42887
772.15        68.33818
772.56        68.24106
772.97        67.93199
773.39        68.01704
773.80        68.02702
774.22         68.1079
774.63        68.29641
775.05        68.50935
775.46         68.6628
775.88        68.69441
776.29        68.65095
776.70        68.57729
777.12        68.57678
777.53        68.68845
777.95        68.85508
778.36        69.01157
778.77        69.03185
779.19        68.89478
779.60        68.64772
780.02        68.36119
780.43        68.18298
780.84        68.16794
781.26        68.15722
781.67         68.1311
782.09        68.33722
782.50        68.66601
782.91        68.31396
783.33        67.92588
783.74        67.87501
784.15        68.37154
784.57        68.95976
784.98        69.53766
785.39        70.05551
785.81        70.43442
786.22        70.47321
786.63        70.58736
787.04        70.46877
787.46        70.30038
787.87        70.03328
788.28        69.79565
788.70          69.755
789.11        69.90679
789.52        70.22793
789.93        70.57075
790.35        70.67595
790.76        70.50995
791.17        70.13904
791.58        69.69495
792.00        69.41104
792.41        69.37063
792.82        69.38804
793.23        69.41998
793.65        69.71239
794.06        70.09679
794.47        69.86224
794.88        69.22888
795.29        69.09178
795.71        69.43741
796.12        69.90299
796.53        70.30121
796.94        70.50041
797.35        70.40418
797.76         70.0682
798.18        69.68498
798.59        69.51422
799.00        69.63211
799.41        69.95271
799.82        70.36839
800.23          70.694
800.64        70.85721
801.06        70.89564
801.47        70.85988
801.88        70.73417
802.29        70.54647
802.70        70.29824
803.11        70.06114
803.52        69.95683
803.93        70.01649
804.34        70.20932
804.75        70.48167
805.17        70.74725
805.58        71.00117
805.99        71.12515
806.40        71.10976
806.81        71.19637
807.22        71.28123
807.63        70.81585
808.04        69.97298
808.45        69.55298
808.86        69.65411
809.27        69.88446
809.68        70.13586
810.09        70.37263
810.50           70.53
810.91        70.62459
811.32        70.65405
811.73        70.61713
812.14        70.52912
812.55        70.37926
812.96        70.24614
813.37        70.27176
813.78        70.48026
814.19        70.83054
814.60        71.20529
815.01        71.42007
815.42        71.42981
815.83        71.27839
816.24        71.04563
816.65         70.8903
817.05        70.87549
817.46        70.93364
817.87        71.02586
818.28        71.05202
818.69         70.9836
819.10        70.84733
819.51        70.69887
819.92        70.63416
820.33        70.67709
820.74        70.79323
821.14        70.89418
821.55        70.87533
821.96        70.70988
822.37        70.45704
822.78        70.20934
823.19        70.12743
823.60         70.2672
824.00         70.5912
824.41        71.01237
824.82        71.49326
825.23        71.97265
825.64        72.42935
826.04        72.79706
826.45         72.8941
826.86         72.7187
827.27        72.32886
827.68        71.78977
828.08        71.24088
828.49         70.7219
828.90        70.22845
829.31        69.87485
829.72         69.8181
830.12        70.10616
830.53        70.68176
830.94        71.31361
831.35        71.52813
831.75        71.23083
832.16         70.5054
832.57        69.75723
832.97        69.60938
833.38        70.16481
833.79        71.21311
834.20        72.36994
834.60        72.97602
835.01        72.81548
835.42        72.14011
835.82        71.21499
836.23        70.43854
836.64        69.96496
837.04        69.69189
837.45        69.60916
837.86        69.76569
838.26        70.14226
838.67        70.70409
839.08        71.31205
839.48        71.68866
839.89        71.74657
840.29        71.54425
840.70        71.20765
841.11        70.92384
841.51        70.77425
841.92        70.68447
842.33        70.67207
842.73        70.77052
843.14        70.92085
843.54        71.17479
843.95        71.42263
844.35        71.54405
844.76        71.47781
845.17        71.25302
845.57        70.96979
845.98        70.78072
846.38        70.74353
846.79        70.80219
847.19        70.88653
847.60        70.79501
848.00        70.51881
848.41        70.11895
848.81        69.74551
849.22        69.60334
849.62        69.75284
850.03        70.09226
850.43        70.53241
850.84        70.77666
851.24        70.81129
851.65        70.69965
852.05        70.56345
852.46        70.56071
852.86        70.70966
853.27        70.92134
853.67        71.17586
854.07        71.63789
854.48        72.24082
854.88        73.07402
855.29        73.70429
855.69        73.57296
856.10        72.45708
856.50        70.66754
856.90        68.84848
857.31        67.91492
857.71        68.04449
858.12        68.94794
858.52        70.24213
858.92        70.97005
859.33        70.79388
859.73        70.04833
860.13        69.01743
860.54        68.17608
860.94        67.69524
861.34        67.39682
861.75         67.2874
862.15        67.44872
862.55        67.83561
862.96        68.44263
863.36        69.09058
863.76        69.37637
864.17        69.21109
864.57        68.69573
864.97        68.06672
865.38        67.74261
865.78        67.86185
866.18        68.29217
866.58        68.82391
866.99        69.07402
867.39        68.96624
867.79         68.6378
868.19        68.23653
868.60         67.9409
869.00        67.80163
869.40        67.74343
869.80         67.8102
870.21        68.08337
870.61        68.58214
871.01        69.21722
871.41        69.74228
871.81        69.78593
872.22         69.2893
872.62        68.37604
873.02         67.3278
873.42        66.61703
873.82        66.40932
874.22        66.61427
874.63        67.05708
875.03        67.44198
875.43        67.67052
875.83        67.79729
876.23        67.95983
876.63        68.37743
877.03        69.05783
877.44         69.8693
877.84        70.55119
878.24        70.64297
878.64        70.07173
879.04        69.03309
879.44          67.882
879.84        67.13873
880.24        66.94149
880.64        67.15359
881.04        67.60057
881.44        67.98346
881.84        68.20491
882.24        68.36237
882.65        68.47525
883.05        68.67493
883.45        68.93466
883.85        69.16079
884.25        69.35555
884.65        69.56148
885.05        69.78168
885.45        70.02996
885.85        70.20718
886.25        70.13707
886.65        69.79845
887.05        69.25105
887.45         68.7041
887.85        68.47734
888.25        68.64005
888.65        69.11028
889.04        69.65629
889.44        69.87233
889.84        69.66859
890.24        69.14555
890.64        68.55484
891.04        68.26153
891.44        68.34376
891.84        68.71941
892.24        69.11349
892.64        69.06551
893.04        68.50095
893.44        67.59119
893.83        66.74742
894.23        66.59396
894.63        67.21774
895.03        68.41566
895.43        69.74921
895.83         70.4157
896.23        70.18399
896.63         69.3427
897.02        68.24394
897.42        67.50414
897.82        67.22138
898.22        67.25832
898.62        67.50352
899.01        67.80104
899.41        68.03483
899.81        68.29816
900.21         68.6575
900.61        69.19791
901.00        69.89908
901.40         70.6439
901.80        71.27335
902.20        71.57727
902.59        71.52021
902.99         71.1809
903.39        70.67722
903.79        70.20333
904.18        69.82874
904.58        69.53301
904.98        69.34009
905.38        69.28568
905.77        69.35594
906.17        69.58248
906.57        69.81952
906.96        69.83099
907.36        69.56193
907.76        69.08272
908.15        68.64259
908.55        68.60941
908.95        69.06982
909.34        69.90318
909.74        70.79705
910.14        71.31892
910.53        71.33538
910.93        70.98306
911.33        70.45377
911.72         70.0492
912.12        69.88864
912.52        69.87061
912.91        69.90714
913.31        69.85636
913.70        69.68385
914.10        69.45695
914.49        69.24921
914.89        69.13451
915.29        69.14012
915.68        69.23794
916.08        69.37231
916.47        69.47746
916.87         69.5266
917.26        69.53259
917.66          69.543
918.05         69.6299
918.45        69.79424
918.84        70.04587
919.24        70.28674
919.64        70.42159
920.03        70.44154
920.42        70.36153
920.82        70.27205
921.21        70.33615
921.61        70.54546
922.00        70.84547
922.40        71.11852
922.79        71.22245
923.19        71.09618
923.58        70.82163
923.98        70.41431
924.37        69.82633
924.77        69.12363
925.16        68.31649
925.55        67.62527
925.95        67.40302
926.34        67.74709
926.74         68.5107
927.13        69.50472
927.52        70.31363
927.92        70.78751
928.31        71.03617
928.70        71.08974
929.10        71.04723
929.49        70.97874
929.89        70.82521
930.28        70.66388
930.67        70.59112
931.07        70.62115
931.46        70.75009
931.85        70.91797
932.24        71.01192
932.64        70.99702
933.03        70.93843
933.42        70.81406
933.82        70.61449
934.21        70.34904
934.60        69.99651
934.99        69.70313
935.39        69.65285
935.78        69.90126
936.17        70.43872
936.56         70.9803
936.96        71.02441
937.35        70.51212
937.74        69.54384
938.13        68.59203
938.53        68.28715
938.92        68.68488
939.31        69.65036
939.70        70.71065
940.09        70.99902
940.49        70.31424
940.88         68.9791
941.27        67.56679
941.66        66.92928
942.05        67.26846
942.44        68.33754
942.84        69.73631
943.23        70.78654
943.62        71.16649
944.01         71.0904
944.40        70.77448
944.79        70.57046
945.18        70.59695
945.57        70.69482
945.97        70.81348
946.36        71.00433
946.75        71.21258
947.14         71.4681
947.53        71.66934
947.92        71.60137
948.31        71.24072
948.70        70.69035
949.09        70.11666
949.48        69.76181
949.87        69.71126
950.26        69.91885
950.65        70.35981
951.04        70.97952
951.43        71.67894
951.82        72.36591
952.21        72.96729
952.60        73.40961
952.99         73.6356
953.38        73.64305
953.77        73.27574
954.16        72.29558
954.55        70.78876
954.94        68.99798
955.33        67.32513
955.72        66.34494
956.11        66.18575
956.50        66.63165
956.89        67.55123
957.28        68.71625
957.66         69.9948
958.05        71.30541
958.44        72.24953
958.83        72.08897
959.22        70.75263
959.61        68.56676
960.00         66.2564
960.39        64.84547
960.78        64.57371
961.16        65.22229
961.55          66.435
961.94        67.68211
962.33         68.7104
962.72        69.63589
963.11        70.39142
963.49        70.86188
963.88        70.96729
964.27        70.71869
964.66        70.20621
965.04        69.61071
965.43        68.99078
965.82        68.30834
966.21        67.70509
966.60        67.41655
966.98        67.51184
967.37         67.9533
967.76        68.44481
968.15        68.44243
968.53        67.85407
968.92         66.8438
969.31        65.81359
969.69        65.41042
970.08        65.73688
970.47        66.57233
970.86        67.60547
971.24        68.27098
971.63        68.30199
972.02        67.93979
972.40        67.25484
972.79        66.38818
973.17        65.49248
973.56        64.54163
973.95        63.80559
974.33        63.71721
974.72        64.27422
975.11        65.33517
975.49        66.65128
975.88        67.64398
976.26        68.12077
976.65        68.18864
977.04        67.77751
977.42        66.77282
977.81        65.28632
978.19        63.36354
978.58        61.90036
978.96        62.02905
979.35        63.90231
979.74         67.2986
980.12        71.34332
980.51        73.61847
980.89        73.48825
981.28        71.42213
981.66        68.55479
982.05        66.88309
982.43        66.94052
982.82         68.1246
983.20        70.01853
983.59        71.71255
983.97        72.92069
984.35        73.89397
984.74        74.37594
985.12        74.06203
985.51        72.94232
985.89        71.02351
986.28        68.98188
986.66         67.7866
987.04        67.79307
987.43        68.78398
987.81        70.14069
988.20        70.57563
988.58        69.79029
988.96         68.0007
989.35        66.10728
989.73        65.51086
990.12        66.47509
990.50        68.67216
990.88        70.86964
991.27        71.08144
991.65        69.02183
992.03        65.38731
992.42        61.78237
992.80        60.42535
993.18        61.90482
993.56        65.46166
993.95        69.72382
994.33         72.5532
994.71         72.9707
995.10        71.63924
995.48        69.23958
995.86        66.93499
996.24        65.29688
996.63        64.01891
997.01        63.16082
997.39        62.81929
997.77        62.94111
998.15        63.58594
998.54        64.60975
998.92        65.62791
999.30        66.45787
999.68        67.11599
1000.06        67.47888
1000.45        67.38364
1000.83        66.95995
1001.21        66.16415
1001.59        65.30013
1001.97        64.93862
1002.35        65.20925
1002.73        65.92486
1003.12        66.84086
1003.50        67.43931
1003.88        67.60384
1004.26        67.59625
1004.64        67.31905
1005.02         66.6015
1005.40        65.51434
1005.78        64.04305
1006.16        62.85892
1006.54        63.17389
1006.92        65.16376
1007.30        68.39283
1007.69         71.6339
1008.07         73.0987
1008.45        72.25011
1008.83        69.70649
1009.21        66.38568
1009.59        63.85098
1009.97        62.72479
1010.35        62.63151
1010.73        63.49548
1011.11        65.15283
1011.49        67.42384
1011.86        70.53893
1012.24        73.86079
1012.62        76.55904
1013.00        78.20928
1013.38        78.71574
1013.76        78.27274
1014.14          77.534
1014.52        76.80739
1014.90        76.03408
1015.28        75.21136
1015.66        74.34036
1016.04         73.5555
1016.41        72.98841
1016.79        72.76089
1017.17        72.89682
1017.55          73.296
1017.93        73.80119
1018.31        74.13826
1018.69        73.62943
1019.06        72.19528
1019.44        70.58953
1019.82        68.88252
1020.20        66.68823
1020.58        63.85542
1020.95        60.13732
1021.33        56.53643
1021.71        55.75637
1022.09        59.12326
1022.46        65.70576
1022.84        73.13973
1023.22        78.39684
1023.60        80.63363
1023.97        80.58182
1024.35        78.45345
1024.73        74.96014
